,V5,V2,symbol
0,-0.2,0.005,
1,-0.2,0.005,
2,-0.2,0.005,
3,-0.2,0.005,
4,-0.2,0.005,
5,-0.2,0.005,
6,-0.2,0.005,
7,-0.2,0.005,
8,-0.19,0.005,
9,-0.175,0.005,
10,-0.19,0.005,
11,-0.205,-0.005,
12,-0.21,-0.005,
13,-0.2,0.01,
14,-0.195,-0.01,
15,-0.21,-0.01,
16,-0.23,-0.02,
17,-0.235,-0.035,
18,-0.245,-0.025,
19,-0.235,-0.01,
20,-0.23,-0.03,
21,-0.23,-0.04,
22,-0.245,-0.05,
23,-0.27,-0.06,
24,-0.26,-0.045,
25,-0.24,-0.035,
26,-0.225,-0.055,
27,-0.22,-0.065,
28,-0.225,-0.075,
29,-0.225,-0.095,
30,-0.225,-0.085,
31,-0.225,-0.075,
32,-0.22,-0.085,
33,-0.235,-0.09,
34,-0.26,-0.1,
35,-0.26,-0.12,
36,-0.26,-0.105,
37,-0.26,-0.1,
38,-0.255,-0.105,
39,-0.255,-0.125,
40,-0.26,-0.135,
41,-0.26,-0.145,
42,-0.265,-0.13,
43,-0.25,-0.11,
44,-0.24,-0.13,
45,-0.255,-0.14,
46,-0.265,-0.15,
47,-0.28,-0.15,
48,-0.26,-0.155,
49,-0.255,-0.14,
50,-0.25,-0.15,
51,-0.245,-0.15,
52,-0.25,-0.175,
53,-0.255,-0.17,
54,-0.245,-0.155,
55,-0.24,-0.155,
56,-0.25,-0.155,
57,-0.245,-0.17,
58,-0.265,-0.18,
59,-0.27,-0.175,
60,-0.25,-0.165,
61,-0.25,-0.15,
62,-0.245,-0.16,
63,-0.25,-0.16,
64,-0.255,-0.15,
65,-0.255,-0.15,
66,-0.24,-0.14,
67,-0.245,-0.125,
68,-0.265,-0.125,+
69,-0.26,-0.13,
70,-0.27,-0.125,
71,-0.28,-0.135,
72,-0.28,-0.125,
73,-0.265,-0.115,
74,-0.265,-0.125,
75,-0.26,-0.135,
76,-0.265,-0.135,
77,-0.255,-0.14,
78,-0.245,-0.135,
79,-0.23,-0.13,
80,-0.23,-0.145,
81,-0.235,-0.155,
82,-0.23,-0.165,
83,-0.235,-0.185,
84,-0.215,-0.195,
85,-0.19,-0.18,
86,-0.175,-0.19,
87,-0.175,-0.2,
88,-0.195,-0.21,
89,-0.225,-0.22,
90,-0.225,-0.205,
91,-0.225,-0.215,
92,-0.23,-0.225,
93,-0.215,-0.235,
94,-0.225,-0.255,
95,-0.225,-0.25,
96,-0.205,-0.245,
97,-0.165,-0.225,
98,-0.135,-0.23,
99,-0.135,-0.22,
100,-0.145,-0.22,
101,-0.165,-0.23,
102,-0.17,-0.21,
103,-0.17,-0.205,
104,-0.185,-0.215,
105,-0.205,-0.195,
106,-0.225,-0.16,
107,-0.23,-0.08,
108,-0.195,0.145,
109,-0.155,0.53,
110,-0.12,0.805,
111,-0.07,0.735,
112,-0.005,0.485,
113,0.215,0.285,
114,0.575,0.24,
115,0.845,0.22,
116,0.8,0.155,
117,0.525,0.1,
118,0.275,0.035,
119,0.18,-0.065,
120,0.195,-0.155,
121,0.23,-0.27,
122,0.255,-0.415,
123,0.28,-0.595,
124,0.285,-0.765,
125,0.3,-0.945,
126,0.32,-1.06,
127,0.34,-1.155,
128,0.355,-1.24,
129,0.345,-1.345,
130,0.33,-1.455,
131,0.32,-1.605,
132,0.34,-1.755,
133,0.38,-1.93,
134,0.4,-2.1,
135,0.41,-2.235,
136,0.395,-2.36,/
137,0.365,-2.49,
138,0.335,-2.595,
139,0.31,-2.7,
140,0.26,-2.79,
141,0.195,-2.86,
142,0.125,-2.93,
143,0.05,-3.005,
144,-0.035,-3.045,
145,-0.13,-3.065,
146,-0.25,-3.095,
147,-0.355,-3.13,
148,-0.42,-3.155,
149,-0.435,-3.155,
150,-0.395,-3.145,
151,-0.38,-3.095,
152,-0.39,-3.03,
153,-0.405,-2.955,
154,-0.44,-2.825,
155,-0.465,-2.69,
156,-0.47,-2.525,
157,-0.46,-2.345,
158,-0.435,-2.15,
159,-0.42,-1.94,
160,-0.405,-1.71,
161,-0.38,-1.475,
162,-0.34,-1.24,
163,-0.31,-0.995,
164,-0.295,-0.8,
165,-0.305,-0.61,
166,-0.31,-0.445,
167,-0.32,-0.28,
168,-0.32,-0.085,
169,-0.31,0.065,
170,-0.31,0.22,
171,-0.305,0.35,
172,-0.29,0.46,
173,-0.29,0.555,
174,-0.265,0.635,
175,-0.26,0.69,
176,-0.24,0.74,
177,-0.245,0.775,
178,-0.24,0.825,
179,-0.235,0.85,
180,-0.215,0.905,
181,-0.2,0.945,
182,-0.195,0.97,
183,-0.205,1.005,
184,-0.215,1.045,
185,-0.2,1.07,
186,-0.2,1.125,
187,-0.19,1.17,
188,-0.19,1.195,
189,-0.19,1.235,
190,-0.185,1.25,
191,-0.195,1.305,
192,-0.185,1.355,
193,-0.175,1.4,
194,-0.165,1.435,
195,-0.17,1.465,
196,-0.17,1.505,
197,-0.16,1.55,
198,-0.15,1.605,
199,-0.14,1.65,
200,-0.135,1.68,
201,-0.135,1.71,
202,-0.15,1.73,
203,-0.15,1.78,
204,-0.14,1.83,
205,-0.13,1.865,
206,-0.12,1.89,
207,-0.12,1.9,
208,-0.115,1.92,
209,-0.115,1.93,
210,-0.1,1.95,
211,-0.09,1.975,
212,-0.085,1.955,
213,-0.08,1.96,
214,-0.09,1.955,
215,-0.09,1.94,
216,-0.08,1.945,
217,-0.06,1.925,
218,-0.06,1.895,
219,-0.05,1.855,
220,-0.045,1.82,
221,-0.07,1.78,
222,-0.055,1.76,
223,-0.055,1.715,
224,-0.04,1.655,
225,-0.04,1.605,
226,-0.045,1.535,
227,-0.05,1.47,
228,-0.05,1.43,
229,-0.05,1.36,
230,-0.05,1.3,
231,-0.05,1.235,
232,-0.05,1.155,
233,-0.065,1.085,
234,-0.065,1.03,
235,-0.065,0.98,
236,-0.07,0.91,
237,-0.07,0.835,
238,-0.09,0.76,
239,-0.105,0.715,
240,-0.105,0.655,
241,-0.105,0.615,
242,-0.11,0.555,
243,-0.11,0.495,
244,-0.14,0.445,
245,-0.15,0.4,
246,-0.15,0.365,
247,-0.155,0.325,
248,-0.15,0.275,
249,-0.155,0.235,
250,-0.185,0.185,
251,-0.185,0.16,
252,-0.18,0.15,
253,-0.185,0.135,
254,-0.175,0.1,
255,-0.19,0.075,
256,-0.205,0.045,
257,-0.225,0.02,
258,-0.22,0.03,
259,-0.205,0.02,
260,-0.2,0.0,
261,-0.215,-0.015,
262,-0.225,-0.02,
263,-0.225,-0.035,
264,-0.23,-0.035,
265,-0.23,-0.04,
266,-0.225,-0.05,
267,-0.225,-0.07,
268,-0.23,-0.07,
269,-0.24,-0.065,
270,-0.245,-0.07,
271,-0.23,-0.055,
272,-0.235,-0.07,
273,-0.23,-0.075,
274,-0.245,-0.08,
275,-0.25,-0.085,
276,-0.23,-0.07,
277,-0.235,-0.065,
278,-0.23,-0.07,
279,-0.235,-0.07,
280,-0.25,-0.08,
281,-0.245,-0.085,
282,-0.245,-0.075,
283,-0.235,-0.055,
284,-0.24,-0.06,
285,-0.23,-0.06,
286,-0.235,-0.065,
287,-0.245,-0.07,
288,-0.235,-0.06,
289,-0.23,-0.04,
290,-0.225,-0.035,
291,-0.22,-0.04,
292,-0.22,-0.04,
293,-0.235,-0.04,
294,-0.23,-0.04,
295,-0.22,-0.02,
296,-0.205,-0.02,
297,-0.225,-0.04,
298,-0.23,-0.03,
299,-0.23,-0.035,
300,-0.23,-0.015,
301,-0.215,-0.02,
302,-0.215,-0.02,
303,-0.22,-0.03,
304,-0.235,-0.025,
305,-0.24,-0.03,
306,-0.235,-0.035,
307,-0.23,-0.015,
308,-0.225,-0.02,
309,-0.23,-0.035,
310,-0.25,-0.045,
311,-0.255,-0.045,
312,-0.245,-0.035,
313,-0.24,-0.04,
314,-0.24,-0.045,
315,-0.24,-0.045,
316,-0.255,-0.06,
317,-0.255,-0.08,
318,-0.26,-0.065,
319,-0.245,-0.06,
320,-0.245,-0.065,
321,-0.25,-0.09,
322,-0.265,-0.095,
323,-0.275,-0.1,
324,-0.27,-0.095,
325,-0.25,-0.1,
326,-0.255,-0.105,
327,-0.27,-0.115,
328,-0.275,-0.135,
329,-0.285,-0.14,
330,-0.285,-0.135,
331,-0.265,-0.12,
332,-0.275,-0.135,
333,-0.275,-0.145,
334,-0.28,-0.155,
335,-0.29,-0.15,
336,-0.275,-0.15,
337,-0.275,-0.15,
338,-0.265,-0.155,
339,-0.275,-0.16,
340,-0.29,-0.17,
341,-0.305,-0.18,
342,-0.3,-0.17,
343,-0.29,-0.165,
344,-0.285,-0.18,
345,-0.285,-0.185,
346,-0.295,-0.19,
347,-0.305,-0.185,
348,-0.29,-0.185,
349,-0.295,-0.185,
350,-0.275,-0.195,
351,-0.275,-0.19,
352,-0.305,-0.205,
353,-0.295,-0.21,
354,-0.3,-0.205,
355,-0.285,-0.2,
356,-0.28,-0.21,
357,-0.29,-0.215,
358,-0.305,-0.22,
359,-0.3,-0.225,
360,-0.305,-0.215,
361,-0.29,-0.205,
362,-0.295,-0.22,
363,-0.29,-0.215,
364,-0.305,-0.235,
365,-0.31,-0.23,
366,-0.31,-0.22,
367,-0.29,-0.215,
368,-0.29,-0.215,
369,-0.3,-0.22,
370,-0.295,-0.225,
371,-0.305,-0.225,
372,-0.3,-0.22,
373,-0.295,-0.215,
374,-0.29,-0.22,
375,-0.29,-0.215,
376,-0.295,-0.245,
377,-0.3,-0.235,
378,-0.285,-0.23,
379,-0.28,-0.215,
380,-0.285,-0.23,
381,-0.275,-0.23,
382,-0.305,-0.245,
383,-0.295,-0.235,
384,-0.29,-0.23,
385,-0.285,-0.21,
386,-0.28,-0.215,
387,-0.285,-0.23,
388,-0.3,-0.23,
389,-0.305,-0.24,
390,-0.305,-0.22,
391,-0.29,-0.205,
392,-0.29,-0.205,
393,-0.28,-0.215,
394,-0.285,-0.21,
395,-0.285,-0.205,
396,-0.275,-0.17,
397,-0.27,-0.14,
398,-0.26,-0.135,
399,-0.26,-0.15,
400,-0.255,-0.13,
401,-0.255,-0.065,
402,-0.23,0.125,
403,-0.19,0.49,
404,-0.155,0.79,
405,-0.1,0.745,
406,0.01,0.495,
407,0.24,0.32,
408,0.63,0.245,
409,0.915,0.21,
410,0.885,0.14,/
411,0.595,0.075,
412,0.32,-0.01,
413,0.2,-0.11,
414,0.19,-0.21,
415,0.21,-0.35,
416,0.205,-0.515,
417,0.21,-0.695,
418,0.195,-0.885,
419,0.19,-1.105,
420,0.2,-1.27,
421,0.225,-1.405,
422,0.23,-1.53,
423,0.22,-1.66,
424,0.205,-1.815,
425,0.185,-2.015,
426,0.195,-2.225,
427,0.18,-2.42,
428,0.175,-2.57,
429,0.155,-2.71,
430,0.115,-2.83,
431,0.07,-2.935,
432,0.045,-3.025,
433,0.0,-3.085,
434,-0.04,-3.125,
435,-0.105,-3.17,
436,-0.155,-3.205,
437,-0.215,-3.22,
438,-0.28,-3.24,
439,-0.35,-3.22,
440,-0.405,-3.23,
441,-0.45,-3.245,
442,-0.44,-3.24,
443,-0.39,-3.21,
444,-0.33,-3.17,
445,-0.285,-3.095,
446,-0.28,-2.99,
447,-0.305,-2.875,
448,-0.325,-2.755,
449,-0.365,-2.59,
450,-0.36,-2.39,
451,-0.35,-2.175,
452,-0.335,-1.94,
453,-0.31,-1.72,
454,-0.29,-1.48,
455,-0.29,-1.2,
456,-0.29,-0.96,
457,-0.31,-0.745,
458,-0.32,-0.54,
459,-0.335,-0.34,
460,-0.34,-0.14,
461,-0.345,0.03,
462,-0.355,0.19,
463,-0.335,0.355,
464,-0.335,0.46,
465,-0.335,0.55,
466,-0.34,0.635,
467,-0.345,0.675,
468,-0.33,0.745,
469,-0.32,0.795,
470,-0.305,0.84,
471,-0.3,0.885,
472,-0.3,0.92,
473,-0.3,0.96,
474,-0.29,1.01,
475,-0.285,1.05,
476,-0.285,1.085,
477,-0.28,1.11,
478,-0.29,1.14,
479,-0.28,1.185,
480,-0.285,1.23,
481,-0.265,1.275,
482,-0.265,1.3,
483,-0.27,1.32,
484,-0.265,1.35,
485,-0.27,1.4,
486,-0.265,1.435,
487,-0.25,1.49,
488,-0.245,1.515,
489,-0.245,1.55,
490,-0.245,1.57,
491,-0.25,1.625,
492,-0.25,1.665,
493,-0.225,1.7,
494,-0.225,1.735,
495,-0.23,1.76,
496,-0.235,1.785,
497,-0.245,1.83,
498,-0.215,1.86,
499,-0.21,1.9,
500,-0.195,1.92,
501,-0.2,1.925,
502,-0.2,1.935,
503,-0.205,1.96,
504,-0.195,1.965,
505,-0.17,1.985,
506,-0.16,1.98,
507,-0.165,1.96,
508,-0.16,1.935,
509,-0.165,1.925,
510,-0.145,1.915,
511,-0.135,1.895,
512,-0.135,1.86,
513,-0.135,1.81,
514,-0.13,1.76,
515,-0.135,1.725,
516,-0.125,1.675,
517,-0.12,1.63,
518,-0.11,1.555,
519,-0.125,1.49,
520,-0.125,1.42,
521,-0.135,1.35,
522,-0.13,1.3,
523,-0.125,1.235,
524,-0.12,1.16,
525,-0.125,1.065,
526,-0.13,1.0,
527,-0.14,0.93,
528,-0.135,0.875,
529,-0.135,0.83,
530,-0.13,0.76,
531,-0.135,0.69,
532,-0.15,0.635,
533,-0.16,0.575,
534,-0.16,0.54,
535,-0.145,0.495,
536,-0.15,0.445,
537,-0.155,0.4,
538,-0.175,0.34,
539,-0.19,0.295,
540,-0.185,0.28,
541,-0.185,0.245,
542,-0.185,0.205,
543,-0.19,0.17,
544,-0.205,0.14,
545,-0.205,0.115,
546,-0.205,0.11,
547,-0.2,0.095,
548,-0.205,0.065,
549,-0.21,0.045,
550,-0.23,0.03,
551,-0.22,0.025,
552,-0.225,0.015,
553,-0.215,0.02,
554,-0.22,0.005,
555,-0.22,-0.02,
556,-0.23,-0.035,
557,-0.225,-0.035,
558,-0.22,-0.04,
559,-0.225,-0.02,
560,-0.23,-0.04,
561,-0.23,-0.045,
562,-0.235,-0.05,
563,-0.24,-0.055,
564,-0.225,-0.045,
565,-0.225,-0.025,
566,-0.225,-0.035,
567,-0.22,-0.04,
568,-0.225,-0.05,
569,-0.235,-0.055,
570,-0.225,-0.035,
571,-0.22,-0.03,
572,-0.21,-0.025,
573,-0.215,-0.035,
574,-0.23,-0.035,
575,-0.235,-0.035,
576,-0.225,-0.03,
577,-0.21,-0.015,
578,-0.21,-0.02,
579,-0.22,-0.015,
580,-0.22,-0.03,
581,-0.23,-0.025,
582,-0.225,-0.005,
583,-0.215,0.005,
584,-0.22,0.0,
585,-0.215,-0.01,
586,-0.23,-0.015,
587,-0.23,-0.03,
588,-0.22,-0.025,
589,-0.21,-0.005,
590,-0.215,0.005,
591,-0.215,-0.02,
592,-0.225,-0.035,
593,-0.225,-0.035,
594,-0.225,-0.03,
595,-0.215,-0.025,
596,-0.22,-0.03,
597,-0.235,-0.04,
598,-0.24,-0.055,
599,-0.235,-0.06,
600,-0.24,-0.05,
601,-0.23,-0.045,
602,-0.225,-0.05,
603,-0.23,-0.07,
604,-0.24,-0.085,
605,-0.245,-0.085,
606,-0.245,-0.085,
607,-0.24,-0.075,
608,-0.23,-0.095,
609,-0.24,-0.11,
610,-0.245,-0.125,
611,-0.25,-0.115,
612,-0.25,-0.115,
613,-0.245,-0.115,
614,-0.24,-0.13,
615,-0.24,-0.145,
616,-0.255,-0.15,
617,-0.27,-0.145,
618,-0.255,-0.15,
619,-0.255,-0.135,
620,-0.245,-0.155,
621,-0.255,-0.165,
622,-0.26,-0.175,
623,-0.27,-0.18,
624,-0.265,-0.175,
625,-0.265,-0.165,
626,-0.265,-0.17,
627,-0.255,-0.19,
628,-0.265,-0.185,
629,-0.27,-0.195,
630,-0.275,-0.19,
631,-0.26,-0.185,
632,-0.26,-0.18,
633,-0.265,-0.2,
634,-0.27,-0.215,
635,-0.27,-0.215,
636,-0.275,-0.205,
637,-0.26,-0.21,
638,-0.255,-0.215,
639,-0.265,-0.215,
640,-0.28,-0.23,
641,-0.29,-0.215,
642,-0.285,-0.215,
643,-0.27,-0.21,
644,-0.265,-0.205,
645,-0.27,-0.22,
646,-0.28,-0.23,
647,-0.29,-0.235,
648,-0.29,-0.215,
649,-0.275,-0.215,
650,-0.265,-0.225,
651,-0.27,-0.23,
652,-0.29,-0.235,
653,-0.28,-0.235,
654,-0.275,-0.235,
655,-0.26,-0.23,
656,-0.26,-0.22,
657,-0.27,-0.24,
658,-0.285,-0.24,
659,-0.285,-0.245,
660,-0.27,-0.245,
661,-0.265,-0.23,
662,-0.27,-0.23,
663,-0.265,-0.24,
664,-0.285,-0.25,
665,-0.285,-0.245,
666,-0.28,-0.235,
667,-0.265,-0.225,
668,-0.265,-0.235,
669,-0.27,-0.245,
670,-0.27,-0.26,
671,-0.27,-0.26,
672,-0.265,-0.235,
673,-0.265,-0.24,
674,-0.265,-0.24,
675,-0.27,-0.255,
676,-0.27,-0.255,
677,-0.28,-0.245,
678,-0.28,-0.245,
679,-0.26,-0.23,
680,-0.255,-0.23,
681,-0.255,-0.235,
682,-0.26,-0.255,
683,-0.265,-0.235,
684,-0.255,-0.225,
685,-0.245,-0.205,
686,-0.235,-0.205,
687,-0.24,-0.185,
688,-0.23,-0.125,
689,-0.235,0.065,
690,-0.195,0.445,
691,-0.15,0.835,
692,-0.12,0.89,
693,-0.035,0.635,
694,0.17,0.35,
695,0.515,0.22,
696,0.87,0.175,
697,0.87,0.12,/
698,0.57,0.035,
699,0.275,-0.05,
700,0.155,-0.16,
701,0.15,-0.3,
702,0.175,-0.435,
703,0.18,-0.61,
704,0.175,-0.79,
705,0.16,-1.015,
706,0.16,-1.225,
707,0.16,-1.38,
708,0.17,-1.52,
709,0.165,-1.625,
710,0.155,-1.785,
711,0.135,-1.98,
712,0.115,-2.2,
713,0.115,-2.4,
714,0.12,-2.56,
715,0.11,-2.67,
716,0.09,-2.77,
717,0.04,-2.885,
718,0.0,-3.005,
719,-0.06,-3.09,
720,-0.11,-3.115,
721,-0.16,-3.15,
722,-0.205,-3.185,
723,-0.27,-3.215,
724,-0.335,-3.245,
725,-0.425,-3.25,
726,-0.505,-3.24,
727,-0.53,-3.245,
728,-0.52,-3.255,
729,-0.48,-3.25,
730,-0.445,-3.245,
731,-0.405,-3.22,
732,-0.375,-3.16,
733,-0.345,-3.08,
734,-0.335,-2.985,
735,-0.34,-2.87,
736,-0.33,-2.74,
737,-0.32,-2.545,
738,-0.295,-2.35,
739,-0.27,-2.09,
740,-0.255,-1.815,
741,-0.225,-1.54,
742,-0.22,-1.275,
743,-0.225,-1.0,
744,-0.255,-0.765,
745,-0.27,-0.53,
746,-0.29,-0.315,
747,-0.305,-0.125,
748,-0.31,0.055,
749,-0.325,0.25,
750,-0.32,0.4,
751,-0.31,0.525,
752,-0.29,0.61,
753,-0.295,0.655,
754,-0.305,0.7,
755,-0.315,0.75,
756,-0.305,0.8,
757,-0.305,0.84,
758,-0.3,0.88,
759,-0.3,0.905,
760,-0.305,0.92,
761,-0.315,0.96,
762,-0.305,0.995,
763,-0.295,1.03,
764,-0.295,1.045,
765,-0.31,1.08,
766,-0.315,1.09,
767,-0.315,1.135,
768,-0.32,1.17,
769,-0.305,1.195,
770,-0.3,1.215,
771,-0.315,1.265,
772,-0.31,1.27,
773,-0.315,1.325,
774,-0.305,1.355,
775,-0.295,1.4,
776,-0.29,1.43,
777,-0.3,1.46,
778,-0.3,1.485,
779,-0.295,1.525,
780,-0.295,1.57,
781,-0.275,1.62,
782,-0.26,1.64,
783,-0.28,1.67,
784,-0.28,1.7,
785,-0.27,1.74,
786,-0.26,1.775,
787,-0.255,1.825,
788,-0.245,1.855,
789,-0.24,1.875,
790,-0.245,1.88,
791,-0.245,1.91,
792,-0.235,1.94,
793,-0.205,1.955,
794,-0.21,1.97,
795,-0.2,1.955,
796,-0.21,1.96,
797,-0.205,1.955,
798,-0.18,1.97,
799,-0.165,1.945,
800,-0.155,1.935,
801,-0.155,1.905,
802,-0.155,1.86,
803,-0.155,1.83,
804,-0.14,1.8,
805,-0.135,1.775,
806,-0.115,1.72,
807,-0.125,1.65,
808,-0.125,1.59,
809,-0.135,1.525,
810,-0.12,1.47,
811,-0.125,1.42,
812,-0.11,1.34,
813,-0.115,1.25,
814,-0.13,1.185,
815,-0.135,1.12,
816,-0.13,1.05,
817,-0.115,0.99,
818,-0.125,0.915,
819,-0.115,0.84,
820,-0.12,0.77,
821,-0.14,0.705,
822,-0.125,0.66,
823,-0.13,0.61,
824,-0.125,0.55,
825,-0.135,0.49,
826,-0.145,0.44,
827,-0.15,0.385,
828,-0.15,0.355,
829,-0.145,0.325,
830,-0.15,0.28,
831,-0.175,0.245,
832,-0.18,0.2,
833,-0.2,0.185,
834,-0.19,0.155,
835,-0.19,0.145,
836,-0.185,0.13,
837,-0.2,0.11,
838,-0.21,0.08,
839,-0.22,0.065,
840,-0.21,0.065,
841,-0.21,0.055,
842,-0.225,0.05,
843,-0.225,0.025,
844,-0.23,0.01,
845,-0.235,-0.005,
846,-0.225,0.005,
847,-0.225,0.01,
848,-0.22,0.005,
849,-0.225,0.005,
850,-0.245,-0.005,
851,-0.25,0.0,
852,-0.24,0.0,
853,-0.235,0.005,
854,-0.23,0.0,
855,-0.225,-0.005,
856,-0.24,-0.02,
857,-0.24,-0.01,
858,-0.235,-0.005,
859,-0.24,0.0,
860,-0.235,0.005,
861,-0.245,-0.01,
862,-0.255,-0.01,
863,-0.26,-0.01,
864,-0.255,0.0,
865,-0.245,0.0,
866,-0.255,-0.005,
867,-0.255,-0.015,
868,-0.255,-0.01,
869,-0.26,-0.015,
870,-0.255,-0.015,
871,-0.24,-0.005,
872,-0.24,-0.01,
873,-0.245,-0.02,
874,-0.265,-0.025,
875,-0.285,-0.04,
876,-0.28,-0.025,
877,-0.275,-0.015,
878,-0.255,-0.02,
879,-0.245,-0.05,
880,-0.25,-0.065,
881,-0.265,-0.06,
882,-0.25,-0.06,
883,-0.25,-0.055,
884,-0.25,-0.055,
885,-0.255,-0.075,
886,-0.275,-0.1,
887,-0.29,-0.1,
888,-0.285,-0.085,
889,-0.29,-0.09,
890,-0.27,-0.105,
891,-0.275,-0.11,
892,-0.28,-0.12,
893,-0.285,-0.125,
894,-0.285,-0.115,
895,-0.29,-0.125,
896,-0.285,-0.12,
897,-0.3,-0.125,
898,-0.295,-0.14,
899,-0.3,-0.16,
900,-0.29,-0.145,
901,-0.29,-0.16,
902,-0.275,-0.155,
903,-0.285,-0.175,
904,-0.31,-0.18,
905,-0.305,-0.18,
906,-0.31,-0.175,
907,-0.305,-0.165,
908,-0.3,-0.18,
909,-0.305,-0.185,
910,-0.305,-0.205,
911,-0.315,-0.205,
912,-0.3,-0.19,
913,-0.295,-0.195,
914,-0.295,-0.2,
915,-0.295,-0.21,
916,-0.31,-0.22,
917,-0.33,-0.205,
918,-0.305,-0.205,
919,-0.3,-0.2,
920,-0.29,-0.215,
921,-0.29,-0.215,
922,-0.3,-0.23,
923,-0.31,-0.23,
924,-0.305,-0.22,
925,-0.3,-0.215,
926,-0.295,-0.215,
927,-0.3,-0.235,
928,-0.305,-0.25,
929,-0.315,-0.245,
930,-0.3,-0.235,
931,-0.305,-0.235,
932,-0.3,-0.23,
933,-0.29,-0.24,
934,-0.305,-0.255,
935,-0.315,-0.245,
936,-0.305,-0.245,
937,-0.305,-0.24,
938,-0.295,-0.25,
939,-0.295,-0.25,
940,-0.305,-0.265,
941,-0.305,-0.255,
942,-0.295,-0.24,
943,-0.305,-0.24,
944,-0.295,-0.255,
945,-0.295,-0.255,
946,-0.315,-0.275,
947,-0.31,-0.26,
948,-0.315,-0.25,
949,-0.3,-0.24,
950,-0.295,-0.24,
951,-0.305,-0.255,
952,-0.31,-0.275,
953,-0.32,-0.265,
954,-0.31,-0.255,
955,-0.3,-0.26,
956,-0.285,-0.25,
957,-0.28,-0.255,
958,-0.285,-0.27,
959,-0.29,-0.27,
960,-0.29,-0.25,
961,-0.27,-0.24,
962,-0.27,-0.255,
963,-0.28,-0.26,
964,-0.295,-0.265,
965,-0.305,-0.26,
966,-0.29,-0.25,
967,-0.29,-0.24,
968,-0.285,-0.25,
969,-0.285,-0.255,
970,-0.285,-0.27,
971,-0.295,-0.265,
972,-0.295,-0.25,
973,-0.28,-0.235,
974,-0.27,-0.235,
975,-0.27,-0.255,
976,-0.275,-0.255,
977,-0.27,-0.25,
978,-0.25,-0.235,
979,-0.24,-0.185,
980,-0.23,-0.13,
981,-0.225,0.075,
982,-0.2,0.44,
983,-0.17,0.72,
984,-0.095,0.665,
985,0.055,0.41,
986,0.35,0.235,
987,0.715,0.16,
988,0.88,0.095,
989,0.7,0.045,/
990,0.39,-0.025,
991,0.205,-0.105,
992,0.15,-0.235,
993,0.15,-0.375,
994,0.145,-0.53,
995,0.125,-0.705,
996,0.11,-0.9,
997,0.125,-1.095,
998,0.135,-1.29,
999,0.14,-1.6,
1000,0.12,-1.73,
1001,0.11,-1.865,
1002,0.09,-2.015,
1003,0.09,-2.205,
1004,0.09,-2.43,
1005,0.08,-2.59,
1006,0.06,-2.705,
1007,0.045,-2.79,
1008,0.035,-2.875,
1009,-0.01,-2.98,
1010,-0.045,-3.07,
1011,-0.1,-3.145,
1012,-0.17,-3.17,
1013,-0.22,-3.195,
1014,-0.265,-3.205,
1015,-0.31,-3.24,
1016,-0.375,-3.255,
1017,-0.46,-3.28,
1018,-0.55,-3.275,
1019,-0.6,-3.25,
1020,-0.6,-3.26,
1021,-0.59,-3.245,
1022,-0.57,-3.235,
1023,-0.525,-3.235,
1024,-0.5,-3.195,
1025,-0.485,-3.12,
1026,-0.48,-3.025,
1027,-0.485,-2.9,
1028,-0.49,-2.77,
1029,-0.48,-2.61,
1030,-0.485,-2.405,
1031,-0.45,-2.175,
1032,-0.42,-1.925,
1033,-0.375,-1.685,
1034,-0.335,-1.44,
1035,-0.32,-1.185,
1036,-0.315,-0.935,
1037,-0.32,-0.71,
1038,-0.32,-0.495,
1039,-0.305,-0.3,
1040,-0.295,-0.145,
1041,-0.3,0.005,
1042,-0.295,0.175,
1043,-0.28,0.32,
1044,-0.27,0.455,
1045,-0.255,0.535,
1046,-0.25,0.59,
1047,-0.23,0.635,
1048,-0.225,0.695,
1049,-0.22,0.735,
1050,-0.21,0.77,
1051,-0.215,0.79,
1052,-0.225,0.815,
1053,-0.235,0.83,
1054,-0.245,0.87,
1055,-0.225,0.895,
1056,-0.21,0.925,
1057,-0.21,0.96,
1058,-0.195,0.975,
1059,-0.2,1.01,
1060,-0.215,1.045,
1061,-0.215,1.085,
1062,-0.22,1.115,
1063,-0.225,1.135,
1064,-0.23,1.15,
1065,-0.23,1.155,
1066,-0.25,1.19,
1067,-0.245,1.23,
1068,-0.25,1.255,
1069,-0.24,1.29,
1070,-0.235,1.31,
1071,-0.235,1.33,
1072,-0.245,1.36,
1073,-0.24,1.405,
1074,-0.245,1.435,
1075,-0.255,1.48,
1076,-0.26,1.49,
1077,-0.275,1.5,
1078,-0.275,1.54,
1079,-0.26,1.58,
1080,-0.255,1.625,
1081,-0.255,1.635,
1082,-0.26,1.645,
1083,-0.265,1.665,
1084,-0.265,1.705,
1085,-0.25,1.75,
1086,-0.24,1.775,
1087,-0.235,1.785,
1088,-0.225,1.8,
1089,-0.23,1.81,
1090,-0.23,1.825,
1091,-0.215,1.85,
1092,-0.21,1.865,
1093,-0.22,1.875,
1094,-0.21,1.87,
1095,-0.215,1.85,
1096,-0.21,1.86,
1097,-0.195,1.86,
1098,-0.175,1.865,
1099,-0.15,1.86,
1100,-0.145,1.83,
1101,-0.155,1.795,
1102,-0.16,1.77,
1103,-0.165,1.765,
1104,-0.145,1.735,
1105,-0.14,1.695,
1106,-0.13,1.645,
1107,-0.125,1.59,
1108,-0.105,1.54,
1109,-0.1,1.495,
1110,-0.085,1.455,
1111,-0.075,1.385,
1112,-0.08,1.325,
1113,-0.105,1.245,
1114,-0.1,1.205,
1115,-0.095,1.145,
1116,-0.095,1.095,
1117,-0.085,1.04,
1118,-0.09,0.96,
1119,-0.1,0.885,
1120,-0.115,0.845,
1121,-0.1,0.79,
1122,-0.09,0.75,
1123,-0.09,0.69,
1124,-0.095,0.615,
1125,-0.115,0.555,
1126,-0.125,0.505,
1127,-0.12,0.465,
1128,-0.11,0.425,
1129,-0.115,0.385,
1130,-0.12,0.335,
1131,-0.12,0.29,
1132,-0.14,0.255,
1133,-0.14,0.24,
1134,-0.135,0.215,
1135,-0.14,0.19,
1136,-0.16,0.155,
1137,-0.17,0.11,
1138,-0.18,0.1,
1139,-0.175,0.09,
1140,-0.175,0.08,
1141,-0.165,0.065,
1142,-0.18,0.03,
1143,-0.19,0.015,
1144,-0.2,0.0,
1145,-0.2,-0.005,
1146,-0.185,-0.005,
1147,-0.195,-0.01,
1148,-0.18,-0.03,
1149,-0.205,-0.04,
1150,-0.215,-0.03,
1151,-0.215,-0.035,
1152,-0.21,-0.03,
1153,-0.21,-0.04,
1154,-0.22,-0.05,
1155,-0.23,-0.06,
1156,-0.235,-0.05,
1157,-0.23,-0.04,
1158,-0.22,-0.035,
1159,-0.22,-0.045,
1160,-0.225,-0.045,
1161,-0.23,-0.055,
1162,-0.235,-0.05,
1163,-0.23,-0.05,
1164,-0.225,-0.035,
1165,-0.225,-0.035,
1166,-0.235,-0.05,
1167,-0.24,-0.04,
1168,-0.255,-0.05,
1169,-0.24,-0.045,
1170,-0.23,-0.04,
1171,-0.23,-0.03,
1172,-0.235,-0.065,
1173,-0.255,-0.06,
1174,-0.26,-0.05,
1175,-0.25,-0.04,
1176,-0.245,-0.04,
1177,-0.245,-0.04,
1178,-0.245,-0.055,
1179,-0.25,-0.07,
1180,-0.26,-0.055,
1181,-0.26,-0.055,
1182,-0.24,-0.045,
1183,-0.25,-0.045,
1184,-0.26,-0.065,
1185,-0.25,-0.08,
1186,-0.26,-0.085,
1187,-0.255,-0.07,
1188,-0.245,-0.065,
1189,-0.245,-0.08,
1190,-0.26,-0.09,
1191,-0.26,-0.105,
1192,-0.255,-0.105,
1193,-0.26,-0.095,
1194,-0.26,-0.095,
1195,-0.255,-0.105,
1196,-0.265,-0.115,
1197,-0.275,-0.13,
1198,-0.28,-0.14,
1199,-0.27,-0.125,
1200,-0.265,-0.135,
1201,-0.26,-0.135,
1202,-0.275,-0.145,
1203,-0.275,-0.16,
1204,-0.285,-0.16,
1205,-0.28,-0.155,
1206,-0.27,-0.16,
1207,-0.275,-0.17,
1208,-0.275,-0.165,
1209,-0.29,-0.18,
1210,-0.3,-0.19,
1211,-0.285,-0.195,
1212,-0.28,-0.175,
1213,-0.28,-0.175,
1214,-0.29,-0.205,
1215,-0.29,-0.205,
1216,-0.3,-0.215,
1217,-0.3,-0.21,
1218,-0.275,-0.2,
1219,-0.285,-0.2,
1220,-0.285,-0.22,
1221,-0.295,-0.225,
1222,-0.305,-0.23,
1223,-0.3,-0.21,
1224,-0.29,-0.205,
1225,-0.285,-0.21,
1226,-0.285,-0.24,
1227,-0.305,-0.25,
1228,-0.305,-0.24,
1229,-0.3,-0.23,
1230,-0.29,-0.23,
1231,-0.3,-0.23,
1232,-0.295,-0.25,
1233,-0.315,-0.255,
1234,-0.315,-0.245,
1235,-0.31,-0.245,
1236,-0.3,-0.245,
1237,-0.3,-0.24,
1238,-0.305,-0.265,
1239,-0.305,-0.26,
1240,-0.32,-0.255,
1241,-0.3,-0.25,
1242,-0.295,-0.245,
1243,-0.295,-0.245,
1244,-0.3,-0.255,
1245,-0.315,-0.27,
1246,-0.32,-0.27,
1247,-0.31,-0.275,
1248,-0.305,-0.25,
1249,-0.29,-0.255,
1250,-0.3,-0.26,
1251,-0.31,-0.28,
1252,-0.315,-0.275,
1253,-0.305,-0.26,
1254,-0.3,-0.265,
1255,-0.3,-0.26,
1256,-0.295,-0.27,
1257,-0.315,-0.28,
1258,-0.315,-0.275,
1259,-0.315,-0.27,
1260,-0.3,-0.265,
1261,-0.295,-0.27,
1262,-0.305,-0.285,
1263,-0.315,-0.29,
1264,-0.315,-0.28,
1265,-0.305,-0.27,
1266,-0.295,-0.265,
1267,-0.3,-0.265,
1268,-0.295,-0.285,
1269,-0.32,-0.28,
1270,-0.32,-0.285,
1271,-0.29,-0.265,
1272,-0.3,-0.265,
1273,-0.295,-0.265,
1274,-0.3,-0.265,
1275,-0.295,-0.285,
1276,-0.3,-0.275,
1277,-0.3,-0.265,
1278,-0.3,-0.255,
1279,-0.3,-0.27,
1280,-0.29,-0.28,
1281,-0.305,-0.29,
1282,-0.3,-0.265,
1283,-0.31,-0.27,
1284,-0.3,-0.265,
1285,-0.285,-0.26,
1286,-0.295,-0.275,
1287,-0.305,-0.28,
1288,-0.31,-0.27,
1289,-0.29,-0.265,
1290,-0.275,-0.255,
1291,-0.27,-0.265,
1292,-0.27,-0.26,
1293,-0.285,-0.26,
1294,-0.28,-0.215,
1295,-0.265,-0.165,
1296,-0.25,-0.02,
1297,-0.23,0.25,
1298,-0.205,0.63,
1299,-0.17,0.85,
1300,-0.13,0.755,
1301,-0.015,0.51,
1302,0.215,0.33,
1303,0.58,0.24,
1304,0.845,0.17,
1305,0.815,0.125,/
1306,0.54,0.06,
1307,0.27,0.015,
1308,0.155,-0.055,
1309,0.135,-0.16,
1310,0.14,-0.295,
1311,0.135,-0.43,
1312,0.14,-0.575,
1313,0.14,-0.74,
1314,0.15,-0.905,
1315,0.165,-1.095,
1316,0.16,-1.255,
1317,0.16,-1.415,
1318,0.17,-1.55,
1319,0.17,-1.67,
1320,0.16,-1.805,
1321,0.145,-1.97,
1322,0.125,-2.165,
1323,0.125,-2.385,
1324,0.1,-2.56,
1325,0.1,-2.66,
1326,0.08,-2.755,
1327,0.05,-2.845,
1328,0.02,-2.96,
1329,-0.03,-3.05,
1330,-0.08,-3.125,
1331,-0.13,-3.15,
1332,-0.16,-3.18,
1333,-0.22,-3.21,
1334,-0.28,-3.24,
1335,-0.34,-3.27,
1336,-0.41,-3.265,
1337,-0.48,-3.26,
1338,-0.53,-3.255,
1339,-0.565,-3.265,
1340,-0.555,-3.27,
1341,-0.525,-3.27,
1342,-0.49,-3.245,
1343,-0.465,-3.21,
1344,-0.445,-3.155,
1345,-0.45,-3.085,
1346,-0.445,-3.005,
1347,-0.445,-2.92,
1348,-0.45,-2.78,
1349,-0.43,-2.615,
1350,-0.41,-2.465,
1351,-0.4,-2.285,
1352,-0.385,-2.11,
1353,-0.37,-1.905,
1354,-0.34,-1.67,
1355,-0.305,-1.425,
1356,-0.28,-1.185,
1357,-0.28,-0.97,
1358,-0.295,-0.785,
1359,-0.32,-0.61,
1360,-0.325,-0.4,
1361,-0.32,-0.22,
1362,-0.32,-0.055,
1363,-0.325,0.11,
1364,-0.32,0.25,
1365,-0.33,0.385,
1366,-0.325,0.515,
1367,-0.32,0.615,
1368,-0.295,0.69,
1369,-0.295,0.745,
1370,-0.29,0.785,
1371,-0.29,0.825,
1372,-0.29,0.865,
1373,-0.275,0.915,
1374,-0.275,0.96,
1375,-0.285,0.99,
1376,-0.275,1.01,
1377,-0.265,1.03,
1378,-0.265,1.065,
1379,-0.25,1.11,
1380,-0.25,1.145,
1381,-0.245,1.16,
1382,-0.245,1.18,
1383,-0.25,1.185,
1384,-0.24,1.235,
1385,-0.225,1.25,
1386,-0.23,1.285,
1387,-0.225,1.29,
1388,-0.23,1.3,
1389,-0.225,1.31,
1390,-0.235,1.34,
1391,-0.215,1.365,
1392,-0.2,1.39,
1393,-0.18,1.41,
1394,-0.185,1.425,
1395,-0.18,1.455,
1396,-0.175,1.5,
1397,-0.175,1.545,
1398,-0.175,1.585,
1399,-0.18,1.635,
1400,-0.2,1.66,
1401,-0.22,1.685,
1402,-0.23,1.71,
1403,-0.225,1.755,
1404,-0.235,1.78,
1405,-0.24,1.805,
1406,-0.255,1.825,
1407,-0.25,1.825,
1408,-0.255,1.855,
1409,-0.24,1.89,
1410,-0.23,1.905,
1411,-0.235,1.92,
1412,-0.23,1.92,
1413,-0.24,1.905,
1414,-0.24,1.905,
1415,-0.23,1.915,
1416,-0.215,1.91,
1417,-0.225,1.89,
1418,-0.22,1.855,
1419,-0.21,1.82,
1420,-0.21,1.805,
1421,-0.195,1.785,
1422,-0.195,1.745,
1423,-0.185,1.7,
1424,-0.19,1.645,
1425,-0.19,1.595,
1426,-0.185,1.55,
1427,-0.17,1.505,
1428,-0.165,1.47,
1429,-0.17,1.39,
1430,-0.16,1.335,
1431,-0.17,1.25,
1432,-0.165,1.19,
1433,-0.145,1.135,
1434,-0.15,1.085,
1435,-0.145,1.02,
1436,-0.15,0.945,
1437,-0.155,0.87,
1438,-0.16,0.805,
1439,-0.16,0.745,
1440,-0.15,0.705,
1441,-0.155,0.635,
1442,-0.15,0.565,
1443,-0.165,0.505,
1444,-0.175,0.465,
1445,-0.165,0.43,
1446,-0.165,0.385,
1447,-0.175,0.345,
1448,-0.185,0.28,
1449,-0.205,0.245,
1450,-0.205,0.21,
1451,-0.2,0.19,
1452,-0.195,0.17,
1453,-0.2,0.135,
1454,-0.215,0.09,
1455,-0.215,0.075,
1456,-0.225,0.04,
1457,-0.22,0.05,
1458,-0.21,0.035,
1459,-0.215,0.02,
1460,-0.215,0.0,
1461,-0.24,-0.03,
1462,-0.245,-0.035,
1463,-0.25,-0.03,
1464,-0.24,-0.025,
1465,-0.245,-0.04,
1466,-0.25,-0.055,
1467,-0.26,-0.065,
1468,-0.26,-0.055,
1469,-0.26,-0.045,
1470,-0.25,-0.045,
1471,-0.245,-0.05,
1472,-0.255,-0.065,
1473,-0.25,-0.075,
1474,-0.265,-0.065,
1475,-0.27,-0.05,
1476,-0.245,-0.045,
1477,-0.255,-0.045,
1478,-0.25,-0.065,
1479,-0.265,-0.075,
1480,-0.275,-0.05,
1481,-0.275,-0.045,
1482,-0.265,-0.04,
1483,-0.28,-0.045,
1484,-0.28,-0.055,
1485,-0.285,-0.075,
1486,-0.29,-0.065,
1487,-0.275,-0.05,
1488,-0.27,-0.055,
1489,-0.285,-0.055,
1490,-0.275,-0.06,
1491,-0.29,-0.07,
1492,-0.295,-0.055,
1493,-0.27,-0.055,
1494,-0.275,-0.055,
1495,-0.275,-0.06,
1496,-0.285,-0.06,
1497,-0.29,-0.085,
1498,-0.295,-0.085,
1499,-0.29,-0.08,
1500,-0.29,-0.075,
1501,-0.295,-0.08,
1502,-0.305,-0.1,
1503,-0.305,-0.11,
1504,-0.31,-0.11,
1505,-0.3,-0.09,
1506,-0.29,-0.09,
1507,-0.285,-0.09,
1508,-0.305,-0.135,
1509,-0.295,-0.14,
1510,-0.31,-0.125,
1511,-0.31,-0.125,
1512,-0.3,-0.13,
1513,-0.305,-0.14,
1514,-0.315,-0.145,
1515,-0.325,-0.175,
1516,-0.32,-0.17,
1517,-0.305,-0.155,
1518,-0.305,-0.16,
1519,-0.32,-0.175,
1520,-0.315,-0.185,
1521,-0.33,-0.205,
1522,-0.325,-0.195,
1523,-0.325,-0.195,
1524,-0.315,-0.19,
1525,-0.305,-0.19,
1526,-0.32,-0.205,
1527,-0.34,-0.215,
1528,-0.33,-0.21,
1529,-0.32,-0.21,
1530,-0.32,-0.22,
1531,-0.32,-0.215,
1532,-0.325,-0.22,
1533,-0.335,-0.24,
1534,-0.335,-0.235,
1535,-0.345,-0.24,
1536,-0.33,-0.23,
1537,-0.32,-0.23,
1538,-0.325,-0.245,
1539,-0.34,-0.25,
1540,-0.345,-0.25,
1541,-0.34,-0.24,
1542,-0.32,-0.25,
1543,-0.315,-0.24,
1544,-0.335,-0.245,
1545,-0.345,-0.26,
1546,-0.335,-0.255,
1547,-0.335,-0.255,
1548,-0.33,-0.24,
1549,-0.335,-0.24,
1550,-0.335,-0.26,
1551,-0.34,-0.265,
1552,-0.34,-0.27,
1553,-0.33,-0.255,
1554,-0.32,-0.26,
1555,-0.33,-0.255,
1556,-0.335,-0.26,
1557,-0.345,-0.275,
1558,-0.35,-0.265,
1559,-0.335,-0.265,
1560,-0.325,-0.26,
1561,-0.32,-0.26,
1562,-0.33,-0.285,
1563,-0.34,-0.285,
1564,-0.345,-0.28,
1565,-0.33,-0.275,
1566,-0.325,-0.27,
1567,-0.325,-0.265,
1568,-0.335,-0.285,
1569,-0.345,-0.285,
1570,-0.34,-0.285,
1571,-0.345,-0.28,
1572,-0.32,-0.26,
1573,-0.315,-0.26,
1574,-0.33,-0.28,
1575,-0.335,-0.285,
1576,-0.34,-0.275,
1577,-0.33,-0.27,
1578,-0.33,-0.26,
1579,-0.325,-0.26,
1580,-0.32,-0.255,
1581,-0.335,-0.275,
1582,-0.33,-0.275,
1583,-0.325,-0.26,
1584,-0.315,-0.26,
1585,-0.315,-0.255,
1586,-0.33,-0.26,
1587,-0.34,-0.28,
1588,-0.33,-0.285,
1589,-0.325,-0.265,
1590,-0.31,-0.255,
1591,-0.305,-0.26,
1592,-0.31,-0.26,
1593,-0.31,-0.27,
1594,-0.325,-0.27,
1595,-0.315,-0.27,
1596,-0.3,-0.255,
1597,-0.3,-0.255,
1598,-0.305,-0.26,
1599,-0.31,-0.27,
1600,-0.31,-0.245,
1601,-0.3,-0.23,
1602,-0.29,-0.225,
1603,-0.28,-0.2,
1604,-0.275,-0.165,
1605,-0.265,-0.045,
1606,-0.265,0.24,
1607,-0.23,0.615,
1608,-0.18,0.83,
1609,-0.11,0.705,
1610,0.005,0.43,
1611,0.26,0.245,
1612,0.645,0.18,
1613,0.89,0.13,
1614,0.8,0.075,/
1615,0.455,0.0,
1616,0.19,-0.08,
1617,0.1,-0.2,
1618,0.095,-0.305,
1619,0.12,-0.425,
1620,0.12,-0.585,
1621,0.11,-0.76,
1622,0.105,-0.98,
1623,0.11,-1.175,
1624,0.1,-1.35,
1625,0.12,-1.475,
1626,0.12,-1.595,
1627,0.125,-1.725,
1628,0.095,-1.875,
1629,0.075,-2.075,
1630,0.06,-2.26,
1631,0.065,-2.435,
1632,0.08,-2.58,
1633,0.06,-2.71,
1634,0.03,-2.815,
1635,-0.015,-2.92,
1636,-0.05,-2.995,
1637,-0.08,-3.07,
1638,-0.115,-3.13,
1639,-0.17,-3.165,
1640,-0.225,-3.2,
1641,-0.29,-3.225,
1642,-0.35,-3.25,
1643,-0.405,-3.24,
1644,-0.465,-3.245,
1645,-0.545,-3.245,
1646,-0.6,-3.265,
1647,-0.625,-3.26,
1648,-0.59,-3.25,
1649,-0.55,-3.235,
1650,-0.505,-3.21,
1651,-0.475,-3.2,
1652,-0.455,-3.165,
1653,-0.46,-3.11,
1654,-0.455,-3.03,
1655,-0.46,-2.9,
1656,-0.445,-2.77,
1657,-0.44,-2.61,
1658,-0.43,-2.44,
1659,-0.41,-2.235,
1660,-0.39,-1.98,
1661,-0.34,-1.715,
1662,-0.295,-1.45,
1663,-0.295,-1.195,
1664,-0.3,-0.965,
1665,-0.315,-0.745,
1666,-0.355,-0.505,
1667,-0.33,-0.285,
1668,-0.33,-0.085,
1669,-0.345,0.1,
1670,-0.355,0.265,
1671,-0.35,0.42,
1672,-0.35,0.56,
1673,-0.33,0.66,
1674,-0.32,0.735,
1675,-0.295,0.785,
1676,-0.305,0.82,
1677,-0.305,0.85,
1678,-0.31,0.895,
1679,-0.31,0.945,
1680,-0.3,0.98,
1681,-0.29,1.02,
1682,-0.28,1.04,
1683,-0.29,1.06,
1684,-0.285,1.095,
1685,-0.285,1.135,
1686,-0.275,1.165,
1687,-0.26,1.19,
1688,-0.27,1.225,
1689,-0.27,1.235,
1690,-0.27,1.275,
1691,-0.255,1.315,
1692,-0.255,1.34,
1693,-0.26,1.385,
1694,-0.26,1.4,
1695,-0.255,1.435,
1696,-0.265,1.47,
1697,-0.26,1.515,
1698,-0.24,1.54,
1699,-0.24,1.585,
1700,-0.24,1.62,
1701,-0.24,1.64,
1702,-0.25,1.67,
1703,-0.24,1.72,
1704,-0.225,1.765,
1705,-0.21,1.78,
1706,-0.22,1.805,
1707,-0.215,1.835,
1708,-0.215,1.87,
1709,-0.2,1.915,
1710,-0.2,1.94,
1711,-0.195,1.955,
1712,-0.2,1.975,
1713,-0.2,1.995,
1714,-0.195,2.03,
1715,-0.185,2.04,
1716,-0.17,2.06,
1717,-0.16,2.075,
1718,-0.15,2.06,
1719,-0.15,2.065,
1720,-0.16,2.06,
1721,-0.145,2.07,
1722,-0.14,2.07,
1723,-0.14,2.035,
1724,-0.14,2.005,
1725,-0.14,1.97,
1726,-0.14,1.95,
1727,-0.135,1.93,
1728,-0.125,1.875,
1729,-0.125,1.825,
1730,-0.11,1.775,
1731,-0.115,1.7,
1732,-0.125,1.66,
1733,-0.09,1.61,
1734,-0.08,1.535,
1735,-0.08,1.47,
1736,-0.08,1.395,
1737,-0.09,1.31,
1738,-0.095,1.22,
1739,-0.085,1.145,
1740,-0.08,1.07,
1741,-0.075,0.98,
1742,-0.08,0.895,
1743,-0.09,0.815,
1744,-0.085,0.735,
1745,-0.085,0.68,
1746,-0.08,0.635,
1747,-0.09,0.55,
1748,-0.1,0.49,
1749,-0.11,0.425,
1750,-0.135,0.38,
1751,-0.13,0.36,
1752,-0.125,0.34,
1753,-0.135,0.305,
1754,-0.15,0.255,
1755,-0.175,0.22,
1756,-0.19,0.19,
1757,-0.2,0.18,
1758,-0.2,0.16,
1759,-0.195,0.135,
1760,-0.21,0.105,
1761,-0.23,0.08,
1762,-0.22,0.065,
1763,-0.23,0.07,
1764,-0.22,0.075,
1765,-0.22,0.05,
1766,-0.245,0.045,
1767,-0.27,0.02,
1768,-0.255,0.025,
1769,-0.255,0.02,
1770,-0.25,0.03,
1771,-0.255,0.025,
1772,-0.26,0.01,
1773,-0.255,-0.005,
1774,-0.265,0.0,
1775,-0.265,0.005,
1776,-0.25,0.015,
1777,-0.255,0.015,
1778,-0.255,0.005,
1779,-0.27,0.015,
1780,-0.275,0.01,
1781,-0.27,0.02,
1782,-0.265,0.02,
1783,-0.27,0.015,
1784,-0.265,0.025,
1785,-0.275,-0.005,
1786,-0.28,0.005,
1787,-0.275,0.03,
1788,-0.27,0.03,
1789,-0.275,0.03,
1790,-0.285,0.015,
1791,-0.295,-0.005,
1792,-0.295,0.015,
1793,-0.29,0.025,
1794,-0.275,0.015,
1795,-0.285,0.03,
1796,-0.305,0.01,
1797,-0.3,0.0,
1798,-0.295,-0.005,
1799,-0.295,0.0,
1800,-0.29,0.01,
1801,-0.29,-0.005,
1802,-0.29,-0.015,
1803,-0.305,-0.03,
1804,-0.31,-0.02,
1805,-0.315,-0.01,
1806,-0.295,-0.015,
1807,-0.305,-0.035,
1808,-0.31,-0.04,
1809,-0.315,-0.055,
1810,-0.33,-0.055,
1811,-0.32,-0.045,
1812,-0.32,-0.045,
1813,-0.315,-0.055,
1814,-0.33,-0.075,
1815,-0.345,-0.08,
1816,-0.34,-0.075,
1817,-0.335,-0.075,
1818,-0.325,-0.07,
1819,-0.335,-0.085,
1820,-0.325,-0.09,
1821,-0.33,-0.1,
1822,-0.34,-0.095,
1823,-0.335,-0.095,
1824,-0.32,-0.1,
1825,-0.33,-0.105,
1826,-0.335,-0.115,
1827,-0.335,-0.12,
1828,-0.345,-0.12,
1829,-0.335,-0.11,
1830,-0.33,-0.115,
1831,-0.33,-0.11,
1832,-0.34,-0.13,
1833,-0.35,-0.14,
1834,-0.34,-0.13,
1835,-0.34,-0.11,
1836,-0.33,-0.115,
1837,-0.325,-0.115,
1838,-0.33,-0.135,
1839,-0.34,-0.145,
1840,-0.34,-0.155,
1841,-0.335,-0.135,
1842,-0.33,-0.135,
1843,-0.33,-0.135,
1844,-0.33,-0.14,
1845,-0.34,-0.16,
1846,-0.35,-0.145,
1847,-0.34,-0.14,
1848,-0.33,-0.14,
1849,-0.33,-0.14,
1850,-0.33,-0.15,
1851,-0.335,-0.16,
1852,-0.34,-0.165,
1853,-0.345,-0.145,
1854,-0.33,-0.145,
1855,-0.335,-0.135,
1856,-0.335,-0.155,
1857,-0.34,-0.165,
1858,-0.335,-0.15,
1859,-0.325,-0.15,
1860,-0.32,-0.145,
1861,-0.32,-0.14,
1862,-0.32,-0.165,
1863,-0.33,-0.17,
1864,-0.32,-0.165,
1865,-0.315,-0.15,
1866,-0.31,-0.155,
1867,-0.32,-0.165,
1868,-0.33,-0.165,
1869,-0.335,-0.17,
1870,-0.335,-0.16,
1871,-0.32,-0.15,
1872,-0.315,-0.15,
1873,-0.33,-0.155,
1874,-0.325,-0.165,
1875,-0.315,-0.17,
1876,-0.31,-0.17,
1877,-0.305,-0.16,
1878,-0.285,-0.165,
1879,-0.295,-0.15,
1880,-0.295,-0.16,
1881,-0.305,-0.185,
1882,-0.32,-0.175,
1883,-0.305,-0.18,
1884,-0.28,-0.155,
1885,-0.275,-0.16,
1886,-0.285,-0.175,
1887,-0.29,-0.18,
1888,-0.3,-0.185,
1889,-0.29,-0.16,
1890,-0.285,-0.16,
1891,-0.28,-0.165,
1892,-0.295,-0.18,
1893,-0.295,-0.185,
1894,-0.295,-0.17,
1895,-0.285,-0.17,
1896,-0.285,-0.15,
1897,-0.28,-0.16,
1898,-0.28,-0.155,
1899,-0.28,-0.16,
1900,-0.275,-0.15,
1901,-0.27,-0.115,
1902,-0.26,-0.03,
1903,-0.23,0.185,
1904,-0.21,0.59,
1905,-0.16,0.845,
1906,-0.085,0.77,
1907,0.095,0.515,
1908,0.42,0.335,
1909,0.81,0.265,
1910,0.935,0.195,
1911,0.735,0.125,/
1912,0.385,0.055,
1913,0.185,-0.025,
1914,0.14,-0.15,
1915,0.15,-0.3,
1916,0.155,-0.47,
1917,0.145,-0.655,
1918,0.145,-0.845,
1919,0.145,-1.05,
1920,0.15,-1.255,
1921,0.155,-1.425,
1922,0.14,-1.585,
1923,0.13,-1.73,
1924,0.11,-1.865,
1925,0.115,-2.01,
1926,0.11,-2.19,
1927,0.125,-2.41,
1928,0.115,-2.59,
1929,0.1,-2.72,
1930,0.065,-2.805,
1931,0.04,-2.875,
1932,0.02,-2.96,
1933,-0.01,-3.025,
1934,-0.07,-3.09,
1935,-0.14,-3.125,
1936,-0.195,-3.14,
1937,-0.25,-3.145,
1938,-0.295,-3.16,
1939,-0.365,-3.18,
1940,-0.455,-3.19,
1941,-0.53,-3.19,
1942,-0.58,-3.18,
1943,-0.56,-3.18,
1944,-0.53,-3.16,
1945,-0.475,-3.16,
1946,-0.455,-3.135,
1947,-0.46,-3.095,
1948,-0.46,-3.005,
1949,-0.47,-2.9,
1950,-0.465,-2.76,
1951,-0.455,-2.59,
1952,-0.43,-2.395,
1953,-0.425,-2.16,
1954,-0.385,-1.875,
1955,-0.33,-1.59,
1956,-0.29,-1.32,
1957,-0.27,-1.035,
1958,-0.28,-0.78,
1959,-0.315,-0.545,
1960,-0.32,-0.315,
1961,-0.31,-0.085,
1962,-0.32,0.1,
1963,-0.32,0.285,
1964,-0.32,0.435,
1965,-0.315,0.555,
1966,-0.315,0.675,
1967,-0.285,0.75,
1968,-0.255,0.815,
1969,-0.245,0.85,
1970,-0.25,0.885,
1971,-0.26,0.925,
1972,-0.25,0.975,
1973,-0.25,1.015,
1974,-0.235,1.05,
1975,-0.235,1.09,
1976,-0.245,1.115,
1977,-0.24,1.14,
1978,-0.245,1.17,
1979,-0.23,1.22,
1980,-0.22,1.245,
1981,-0.21,1.27,
1982,-0.235,1.285,
1983,-0.23,1.315,
1984,-0.225,1.37,
1985,-0.205,1.4,
1986,-0.195,1.435,
1987,-0.21,1.475,
1988,-0.185,1.505,
1989,-0.195,1.535,
1990,-0.195,1.57,
1991,-0.18,1.61,
1992,-0.175,1.65,
1993,-0.175,1.68,
1994,-0.165,1.7,
1995,-0.19,1.735,
1996,-0.185,1.775,
1997,-0.175,1.82,
1998,-0.165,1.855,
1999,-0.16,1.89,
2000,-0.165,1.93,
2001,-0.145,1.935,
2002,-0.145,1.96,
2003,-0.13,2.005,
2004,-0.115,2.015,
2005,-0.115,2.035,
2006,-0.11,2.045,
2007,-0.115,2.025,
2008,-0.11,2.05,
2009,-0.105,2.065,
2010,-0.095,2.06,
2011,-0.09,2.045,
2012,-0.095,2.03,
2013,-0.08,2.0,
2014,-0.095,1.975,
2015,-0.075,1.965,
2016,-0.065,1.945,
2017,-0.065,1.9,
2018,-0.065,1.845,
2019,-0.07,1.785,
2020,-0.06,1.765,
2021,-0.045,1.72,
2022,-0.04,1.675,
2023,-0.03,1.61,
2024,-0.025,1.545,
2025,-0.03,1.47,
2026,-0.045,1.41,
2027,-0.02,1.345,
2028,-0.025,1.265,
2029,-0.02,1.2,
2030,-0.025,1.105,
2031,-0.05,1.01,
2032,-0.04,0.955,
2033,-0.035,0.885,
2034,-0.01,0.83,
2035,-0.005,0.75,
2036,-0.01,0.67,
2037,-0.03,0.605,
2038,-0.03,0.555,
2039,-0.03,0.505,
2040,-0.045,0.465,
2041,-0.04,0.41,
2042,-0.055,0.35,
2043,-0.06,0.305,
2044,-0.085,0.275,
2045,-0.095,0.25,
2046,-0.095,0.235,
2047,-0.095,0.195,
2048,-0.11,0.18,
2049,-0.11,0.145,
2050,-0.11,0.145,
2051,-0.12,0.14,
2052,-0.12,0.125,
2053,-0.13,0.09,
2054,-0.14,0.075,
2055,-0.16,0.055,
2056,-0.17,0.06,
2057,-0.165,0.065,
2058,-0.17,0.065,
2059,-0.185,0.04,
2060,-0.185,0.035,
2061,-0.2,0.02,
2062,-0.205,0.025,
2063,-0.2,0.025,
2064,-0.185,0.02,
2065,-0.19,0.025,
2066,-0.2,0.01,
2067,-0.19,0.0,
2068,-0.2,0.005,
2069,-0.185,0.01,
2070,-0.18,0.025,
2071,-0.185,0.015,
2072,-0.19,0.0,
2073,-0.205,0.005,
2074,-0.22,0.015,
2075,-0.21,0.015,
2076,-0.2,0.03,
2077,-0.2,0.03,
2078,-0.195,0.02,
2079,-0.205,0.03,
2080,-0.2,0.02,
2081,-0.195,0.035,
2082,-0.2,0.035,
2083,-0.2,0.035,
2084,-0.215,0.02,
2085,-0.22,0.015,
2086,-0.215,0.025,
2087,-0.205,0.03,
2088,-0.195,0.025,
2089,-0.195,0.025,
2090,-0.205,0.005,
2091,-0.225,-0.015,
2092,-0.225,0.015,
2093,-0.235,0.015,
2094,-0.225,0.01,
2095,-0.225,0.0,
2096,-0.225,-0.015,
2097,-0.235,-0.025,
2098,-0.245,-0.025,
2099,-0.245,-0.01,
2100,-0.245,-0.015,
2101,-0.245,-0.02,
2102,-0.245,-0.035,
2103,-0.245,-0.05,
2104,-0.255,-0.04,
2105,-0.25,-0.055,
2106,-0.245,-0.045,
2107,-0.26,-0.055,
2108,-0.26,-0.08,
2109,-0.265,-0.075,
2110,-0.27,-0.075,
2111,-0.255,-0.07,
2112,-0.255,-0.07,
2113,-0.26,-0.08,
2114,-0.255,-0.095,
2115,-0.255,-0.09,
2116,-0.265,-0.1,
2117,-0.26,-0.095,
2118,-0.25,-0.1,
2119,-0.28,-0.1,
2120,-0.265,-0.12,
2121,-0.265,-0.13,
2122,-0.275,-0.12,
2123,-0.265,-0.125,
2124,-0.265,-0.115,
2125,-0.265,-0.125,
2126,-0.275,-0.14,
2127,-0.27,-0.135,
2128,-0.28,-0.135,
2129,-0.265,-0.14,
2130,-0.255,-0.145,
2131,-0.25,-0.135,
2132,-0.275,-0.14,
2133,-0.28,-0.15,
2134,-0.275,-0.15,
2135,-0.275,-0.145,
2136,-0.27,-0.15,
2137,-0.275,-0.15,
2138,-0.26,-0.155,
2139,-0.27,-0.155,
2140,-0.265,-0.15,
2141,-0.275,-0.145,
2142,-0.255,-0.155,
2143,-0.255,-0.14,
2144,-0.26,-0.16,
2145,-0.265,-0.16,
2146,-0.27,-0.17,
2147,-0.26,-0.16,
2148,-0.25,-0.15,
2149,-0.26,-0.16,
2150,-0.255,-0.16,
2151,-0.265,-0.18,
2152,-0.26,-0.17,
2153,-0.25,-0.16,
2154,-0.24,-0.17,
2155,-0.25,-0.165,
2156,-0.255,-0.17,
2157,-0.26,-0.18,
2158,-0.26,-0.17,
2159,-0.255,-0.15,
2160,-0.25,-0.16,
2161,-0.255,-0.165,
2162,-0.245,-0.17,
2163,-0.27,-0.18,
2164,-0.275,-0.175,
2165,-0.27,-0.165,
2166,-0.255,-0.165,
2167,-0.255,-0.17,
2168,-0.26,-0.175,
2169,-0.265,-0.185,
2170,-0.26,-0.175,
2171,-0.26,-0.175,
2172,-0.255,-0.17,
2173,-0.245,-0.17,
2174,-0.245,-0.175,
2175,-0.255,-0.185,
2176,-0.26,-0.18,
2177,-0.255,-0.175,
2178,-0.255,-0.17,
2179,-0.25,-0.175,
2180,-0.25,-0.18,
2181,-0.26,-0.195,
2182,-0.265,-0.18,
2183,-0.255,-0.165,
2184,-0.24,-0.16,
2185,-0.245,-0.17,
2186,-0.245,-0.17,
2187,-0.25,-0.175,
2188,-0.255,-0.17,
2189,-0.24,-0.15,
2190,-0.225,-0.14,
2191,-0.22,-0.11,
2192,-0.22,-0.095,
2193,-0.225,0.005,
2194,-0.225,0.275,
2195,-0.175,0.705,
2196,-0.115,0.955,
2197,-0.035,0.805,
2198,0.155,0.5,
2199,0.51,0.335,
2200,0.88,0.265,
2201,0.955,0.235,/
2202,0.685,0.175,
2203,0.345,0.09,
2204,0.185,-0.01,
2205,0.155,-0.15,
2206,0.175,-0.3,
2207,0.19,-0.45,
2208,0.195,-0.625,
2209,0.195,-0.835,
2210,0.185,-1.06,
2211,0.19,-1.265,
2212,0.19,-1.42,
2213,0.2,-1.56,
2214,0.195,-1.69,
2215,0.165,-1.85,
2216,0.14,-2.035,
2217,0.135,-2.265,
2218,0.13,-2.465,
2219,0.13,-2.59,
2220,0.125,-2.695,
2221,0.085,-2.79,
2222,0.045,-2.9,
2223,-0.015,-3.005,
2224,-0.075,-3.065,
2225,-0.12,-3.095,
2226,-0.17,-3.125,
2227,-0.24,-3.15,
2228,-0.32,-3.175,
2229,-0.39,-3.195,
2230,-0.48,-3.19,
2231,-0.555,-3.18,
2232,-0.58,-3.175,
2233,-0.575,-3.16,
2234,-0.54,-3.155,
2235,-0.51,-3.145,
2236,-0.485,-3.105,
2237,-0.47,-3.03,
2238,-0.45,-2.925,
2239,-0.45,-2.81,
2240,-0.44,-2.65,
2241,-0.435,-2.48,
2242,-0.415,-2.25,
2243,-0.37,-1.99,
2244,-0.34,-1.72,
2245,-0.285,-1.43,
2246,-0.265,-1.16,
2247,-0.28,-0.915,
2248,-0.285,-0.675,
2249,-0.29,-0.425,
2250,-0.285,-0.2,
2251,-0.295,-0.01,
2252,-0.305,0.175,
2253,-0.315,0.37,
2254,-0.305,0.53,
2255,-0.285,0.645,
2256,-0.27,0.72,
2257,-0.25,0.78,
2258,-0.26,0.815,
2259,-0.26,0.85,
2260,-0.265,0.905,
2261,-0.26,0.95,
2262,-0.24,0.985,
2263,-0.235,1.02,
2264,-0.245,1.055,
2265,-0.245,1.065,
2266,-0.25,1.115,
2267,-0.25,1.155,
2268,-0.225,1.195,
2269,-0.22,1.235,
2270,-0.235,1.24,
2271,-0.25,1.265,
2272,-0.245,1.32,
2273,-0.23,1.355,
2274,-0.22,1.4,
2275,-0.215,1.43,
2276,-0.215,1.445,
2277,-0.24,1.485,
2278,-0.225,1.53,
2279,-0.21,1.565,
2280,-0.195,1.615,
2281,-0.2,1.645,
2282,-0.205,1.67,
2283,-0.23,1.705,
2284,-0.215,1.74,
2285,-0.205,1.785,
2286,-0.195,1.81,
2287,-0.19,1.855,
2288,-0.185,1.875,
2289,-0.185,1.89,
2290,-0.175,1.915,
2291,-0.165,1.965,
2292,-0.16,1.99,
2293,-0.155,1.995,
2294,-0.16,2.01,
2295,-0.16,2.0,
2296,-0.16,2.02,
2297,-0.13,2.025,
2298,-0.13,2.04,
2299,-0.12,2.02,
2300,-0.125,1.99,
2301,-0.12,1.98,
2302,-0.11,1.96,
2303,-0.095,1.945,
2304,-0.08,1.915,
2305,-0.075,1.87,
2306,-0.09,1.825,
2307,-0.095,1.775,
2308,-0.1,1.73,
2309,-0.07,1.685,
2310,-0.07,1.625,
2311,-0.08,1.56,
2312,-0.085,1.48,
2313,-0.08,1.41,
2314,-0.075,1.355,
2315,-0.05,1.3,
2316,-0.045,1.215,
2317,-0.055,1.16,
2318,-0.06,1.075,
2319,-0.065,0.985,
2320,-0.075,0.94,
2321,-0.06,0.88,
2322,-0.06,0.815,
2323,-0.06,0.75,
2324,-0.07,0.675,
2325,-0.08,0.615,
2326,-0.1,0.57,
2327,-0.1,0.52,
2328,-0.085,0.48,
2329,-0.095,0.43,
2330,-0.11,0.38,
2331,-0.125,0.335,
2332,-0.14,0.31,
2333,-0.135,0.29,
2334,-0.14,0.25,
2335,-0.13,0.225,
2336,-0.14,0.195,
2337,-0.155,0.165,
2338,-0.17,0.15,
2339,-0.165,0.135,
2340,-0.165,0.13,
2341,-0.165,0.115,
2342,-0.17,0.09,
2343,-0.18,0.07,
2344,-0.175,0.07,
2345,-0.18,0.07,
2346,-0.175,0.07,
2347,-0.175,0.055,
2348,-0.185,0.05,
2349,-0.195,0.04,
2350,-0.2,0.045,
2351,-0.19,0.04,
2352,-0.185,0.06,
2353,-0.19,0.045,
2354,-0.2,0.04,
2355,-0.215,0.03,
2356,-0.225,0.03,
2357,-0.21,0.05,
2358,-0.2,0.04,
2359,-0.205,0.04,
2360,-0.215,0.035,
2361,-0.205,0.025,
2362,-0.22,0.035,
2363,-0.21,0.04,
2364,-0.2,0.05,
2365,-0.21,0.055,
2366,-0.21,0.045,
2367,-0.215,0.04,
2368,-0.22,0.045,
2369,-0.21,0.06,
2370,-0.195,0.065,
2371,-0.21,0.075,
2372,-0.215,0.08,
2373,-0.235,0.06,
2374,-0.24,0.075,
2375,-0.23,0.09,
2376,-0.22,0.09,
2377,-0.22,0.095,
2378,-0.23,0.065,
2379,-0.245,0.06,
2380,-0.25,0.075,
2381,-0.245,0.085,
2382,-0.24,0.075,
2383,-0.225,0.07,
2384,-0.23,0.05,
2385,-0.225,0.03,
2386,-0.235,0.03,
2387,-0.22,0.03,
2388,-0.21,0.02,
2389,-0.22,-0.005,
2390,-0.23,-0.025,
2391,-0.23,-0.05,
2392,-0.22,-0.05,
2393,-0.21,-0.055,
2394,-0.19,-0.07,
2395,-0.195,-0.08,
2396,-0.2,-0.095,
2397,-0.23,-0.13,
2398,-0.235,-0.13,
2399,-0.23,-0.12,
2400,-0.22,-0.12,
2401,-0.22,-0.125,
2402,-0.23,-0.13,
2403,-0.23,-0.14,
2404,-0.245,-0.12,
2405,-0.24,-0.12,
2406,-0.24,-0.12,
2407,-0.245,-0.13,
2408,-0.26,-0.14,
2409,-0.28,-0.145,
2410,-0.305,-0.15,
2411,-0.285,-0.14,
2412,-0.28,-0.14,
2413,-0.28,-0.135,
2414,-0.285,-0.155,
2415,-0.295,-0.17,
2416,-0.31,-0.155,
2417,-0.295,-0.16,
2418,-0.285,-0.145,
2419,-0.275,-0.165,
2420,-0.295,-0.165,
2421,-0.31,-0.175,
2422,-0.31,-0.165,
2423,-0.315,-0.17,
2424,-0.295,-0.165,
2425,-0.295,-0.175,
2426,-0.315,-0.185,
2427,-0.32,-0.19,
2428,-0.32,-0.185,
2429,-0.305,-0.17,
2430,-0.295,-0.165,
2431,-0.3,-0.185,
2432,-0.32,-0.195,
2433,-0.315,-0.205,
2434,-0.315,-0.19,
2435,-0.305,-0.185,
2436,-0.295,-0.18,
2437,-0.305,-0.19,
2438,-0.31,-0.185,
2439,-0.31,-0.2,
2440,-0.31,-0.19,
2441,-0.3,-0.17,
2442,-0.3,-0.175,
2443,-0.3,-0.175,
2444,-0.315,-0.195,
2445,-0.32,-0.2,
2446,-0.31,-0.19,
2447,-0.305,-0.185,
2448,-0.295,-0.18,
2449,-0.295,-0.18,
2450,-0.3,-0.195,
2451,-0.295,-0.215,
2452,-0.31,-0.19,
2453,-0.305,-0.185,
2454,-0.305,-0.18,
2455,-0.295,-0.17,
2456,-0.3,-0.185,
2457,-0.3,-0.19,
2458,-0.3,-0.195,
2459,-0.295,-0.185,
2460,-0.285,-0.175,
2461,-0.285,-0.18,
2462,-0.29,-0.195,
2463,-0.31,-0.19,
2464,-0.305,-0.18,
2465,-0.29,-0.175,
2466,-0.285,-0.175,
2467,-0.29,-0.175,
2468,-0.3,-0.19,
2469,-0.29,-0.2,
2470,-0.3,-0.195,
2471,-0.285,-0.17,
2472,-0.285,-0.175,
2473,-0.285,-0.165,
2474,-0.285,-0.185,
2475,-0.28,-0.18,
2476,-0.275,-0.165,
2477,-0.27,-0.14,
2478,-0.25,-0.12,
2479,-0.25,-0.095,
2480,-0.255,-0.055,
2481,-0.25,0.08,
2482,-0.23,0.355,
2483,-0.19,0.68,
2484,-0.13,0.73,
2485,-0.03,0.515,
2486,0.225,0.3,
2487,0.585,0.205,
2488,0.785,0.16,
2489,0.65,0.11,/
2490,0.34,0.055,
2491,0.15,-0.06,
2492,0.11,-0.19,
2493,0.12,-0.35,
2494,0.155,-0.52,
2495,0.155,-0.695,
2496,0.155,-0.905,
2497,0.15,-1.12,
2498,0.155,-1.35,
2499,0.16,-1.535,
2500,0.165,-1.685,
2501,0.155,-1.83,
2502,0.145,-1.97,
2503,0.125,-2.125,
2504,0.135,-2.3,
2505,0.135,-2.455,
2506,0.135,-2.57,
2507,0.125,-2.65,
2508,0.11,-2.715,
2509,0.075,-2.795,
2510,0.04,-2.9,
2511,-0.02,-2.98,
2512,-0.075,-3.005,
2513,-0.12,-3.025,
2514,-0.17,-3.055,
2515,-0.23,-3.09,
2516,-0.285,-3.12,
2517,-0.375,-3.135,
2518,-0.465,-3.14,
2519,-0.48,-3.14,
2520,-0.46,-3.125,
2521,-0.405,-3.105,
2522,-0.37,-3.1,
2523,-0.365,-3.07,
2524,-0.365,-3.01,
2525,-0.36,-2.915,
2526,-0.365,-2.82,
2527,-0.375,-2.725,
2528,-0.38,-2.615,
2529,-0.4,-2.5,
2530,-0.395,-2.35,
2531,-0.38,-2.17,
2532,-0.355,-1.95,
2533,-0.33,-1.705,
2534,-0.325,-1.48,
2535,-0.32,-1.24,
2536,-0.33,-1.01,
2537,-0.33,-0.76,
2538,-0.32,-0.545,
2539,-0.325,-0.325,
2540,-0.335,-0.135,
2541,-0.35,0.035,
2542,-0.36,0.21,
2543,-0.35,0.375,
2544,-0.35,0.53,
2545,-0.345,0.64,
2546,-0.325,0.72,
2547,-0.325,0.785,
2548,-0.335,0.855,
2549,-0.315,0.92,
2550,-0.3,0.965,
2551,-0.285,1.005,
2552,-0.295,1.045,
2553,-0.3,1.08,
2554,-0.31,1.135,
2555,-0.295,1.19,
2556,-0.275,1.23,
2557,-0.275,1.27,
2558,-0.27,1.305,
2559,-0.285,1.335,
2560,-0.29,1.375,
2561,-0.27,1.435,
2562,-0.25,1.48,
2563,-0.265,1.51,
2564,-0.265,1.545,
2565,-0.28,1.575,
2566,-0.275,1.635,
2567,-0.275,1.685,
2568,-0.255,1.725,
2569,-0.255,1.77,
2570,-0.255,1.79,
2571,-0.26,1.83,
2572,-0.265,1.865,
2573,-0.245,1.91,
2574,-0.24,1.94,
2575,-0.235,1.975,
2576,-0.24,2.005,
2577,-0.24,2.015,
2578,-0.24,2.065,
2579,-0.225,2.08,
2580,-0.215,2.105,
2581,-0.21,2.115,
2582,-0.22,2.115,
2583,-0.205,2.125,
2584,-0.195,2.145,
2585,-0.19,2.16,
2586,-0.17,2.17,
2587,-0.175,2.155,
2588,-0.175,2.13,
2589,-0.18,2.1,
2590,-0.18,2.085,
2591,-0.145,2.065,
2592,-0.14,2.04,
2593,-0.145,2.01,
2594,-0.14,1.95,
2595,-0.14,1.9,
2596,-0.145,1.865,
2597,-0.12,1.82,
2598,-0.105,1.77,
2599,-0.11,1.71,
2600,-0.12,1.635,
2601,-0.125,1.575,
2602,-0.12,1.525,
2603,-0.115,1.47,
2604,-0.095,1.4,
2605,-0.095,1.34,
2606,-0.11,1.25,
2607,-0.11,1.195,
2608,-0.115,1.125,
2609,-0.11,1.065,
2610,-0.105,1.01,
2611,-0.105,0.935,
2612,-0.11,0.865,
2613,-0.115,0.805,
2614,-0.135,0.755,
2615,-0.125,0.7,
2616,-0.12,0.65,
2617,-0.13,0.585,
2618,-0.13,0.54,
2619,-0.145,0.47,
2620,-0.15,0.435,
2621,-0.15,0.42,
2622,-0.145,0.38,
2623,-0.15,0.35,
2624,-0.155,0.305,
2625,-0.175,0.265,
2626,-0.185,0.24,
2627,-0.17,0.23,
2628,-0.18,0.205,
2629,-0.17,0.19,
2630,-0.19,0.16,
2631,-0.19,0.135,
2632,-0.195,0.115,
2633,-0.19,0.125,
2634,-0.18,0.095,
2635,-0.19,0.075,
2636,-0.2,0.055,
2637,-0.21,0.045,
2638,-0.2,0.045,
2639,-0.195,0.045,
2640,-0.185,0.025,
2641,-0.18,0.035,
2642,-0.2,0.01,
2643,-0.21,0.005,
2644,-0.205,0.005,
2645,-0.2,0.005,
2646,-0.185,0.01,
2647,-0.2,-0.01,
2648,-0.205,-0.02,
2649,-0.21,-0.015,
2650,-0.205,-0.01,
2651,-0.205,0.0,
2652,-0.2,0.01,
2653,-0.2,-0.01,
2654,-0.21,-0.015,
2655,-0.21,-0.02,
2656,-0.22,-0.015,
2657,-0.2,0.005,
2658,-0.19,0.0,
2659,-0.2,-0.005,
2660,-0.21,0.0,
2661,-0.215,-0.015,
2662,-0.225,0.0,
2663,-0.215,0.005,
2664,-0.195,0.0,
2665,-0.205,0.0,
2666,-0.21,0.0,
2667,-0.22,-0.01,
2668,-0.22,0.005,
2669,-0.21,0.015,
2670,-0.2,0.01,
2671,-0.21,0.02,
2672,-0.215,0.0,
2673,-0.215,-0.005,
2674,-0.22,0.0,
2675,-0.215,0.005,
2676,-0.21,0.01,
2677,-0.21,0.0,
2678,-0.215,-0.005,
2679,-0.215,-0.02,
2680,-0.23,-0.01,
2681,-0.215,-0.005,
2682,-0.21,-0.01,
2683,-0.215,-0.025,
2684,-0.225,-0.02,
2685,-0.23,-0.04,
2686,-0.245,-0.03,
2687,-0.225,-0.03,
2688,-0.22,-0.035,
2689,-0.225,-0.04,
2690,-0.23,-0.055,
2691,-0.245,-0.065,
2692,-0.24,-0.065,
2693,-0.235,-0.06,
2694,-0.225,-0.06,
2695,-0.225,-0.07,
2696,-0.235,-0.08,
2697,-0.24,-0.09,
2698,-0.25,-0.08,
2699,-0.24,-0.085,
2700,-0.225,-0.085,
2701,-0.23,-0.09,
2702,-0.24,-0.105,
2703,-0.245,-0.115,
2704,-0.255,-0.11,
2705,-0.25,-0.095,
2706,-0.245,-0.1,
2707,-0.245,-0.105,
2708,-0.25,-0.12,
2709,-0.26,-0.13,
2710,-0.265,-0.125,
2711,-0.245,-0.105,
2712,-0.245,-0.11,
2713,-0.245,-0.11,
2714,-0.245,-0.13,
2715,-0.27,-0.125,
2716,-0.265,-0.105,
2717,-0.26,-0.105,
2718,-0.255,-0.1,
2719,-0.26,-0.1,
2720,-0.265,-0.105,
2721,-0.275,-0.105,
2722,-0.285,-0.105,
2723,-0.27,-0.09,
2724,-0.27,-0.09,
2725,-0.27,-0.095,
2726,-0.275,-0.105,
2727,-0.27,-0.12,
2728,-0.26,-0.12,
2729,-0.245,-0.125,
2730,-0.23,-0.12,
2731,-0.23,-0.14,
2732,-0.245,-0.16,
2733,-0.245,-0.17,
2734,-0.24,-0.175,
2735,-0.225,-0.18,
2736,-0.21,-0.19,
2737,-0.215,-0.21,
2738,-0.22,-0.225,
2739,-0.215,-0.24,
2740,-0.235,-0.225,
2741,-0.235,-0.235,
2742,-0.225,-0.24,
2743,-0.23,-0.245,
2744,-0.225,-0.26,
2745,-0.235,-0.265,
2746,-0.24,-0.24,
2747,-0.23,-0.22,
2748,-0.22,-0.215,
2749,-0.24,-0.22,
2750,-0.24,-0.225,
2751,-0.26,-0.235,
2752,-0.26,-0.22,
2753,-0.27,-0.215,
2754,-0.265,-0.215,
2755,-0.255,-0.2,
2756,-0.265,-0.225,
2757,-0.28,-0.225,
2758,-0.265,-0.215,
2759,-0.26,-0.21,
2760,-0.26,-0.21,
2761,-0.26,-0.2,
2762,-0.265,-0.215,
2763,-0.27,-0.225,
2764,-0.275,-0.2,
2765,-0.255,-0.19,
2766,-0.25,-0.19,
2767,-0.26,-0.19,
2768,-0.265,-0.195,
2769,-0.27,-0.185,
2770,-0.265,-0.17,
2771,-0.255,-0.13,
2772,-0.235,-0.08,
2773,-0.225,0.02,
2774,-0.22,0.22,
2775,-0.195,0.55,
2776,-0.16,0.825,
2777,-0.105,0.76,
2778,0.01,0.495,
2779,0.31,0.31,
2780,0.68,0.225,
2781,0.825,0.195,/
2782,0.595,0.155,
2783,0.295,0.135,
2784,0.145,0.1,
2785,0.13,0.055,
2786,0.16,-0.01,
2787,0.185,-0.125,
2788,0.19,-0.25,
2789,0.21,-0.425,
2790,0.245,-0.62,
2791,0.26,-0.855,
2792,0.265,-1.09,
2793,0.29,-1.34,
2794,0.3,-1.58,
2795,0.305,-1.785,
2796,0.32,-1.975,
2797,0.33,-2.1,
2798,0.345,-2.22,
2799,0.365,-2.325,
2800,0.38,-2.4,
2801,0.38,-2.505,
2802,0.41,-2.61,
2803,0.395,-2.735,
2804,0.395,-2.86,
2805,0.345,-2.925,
2806,0.285,-2.97,
2807,0.23,-3.015,
2808,0.195,-3.055,
2809,0.155,-3.105,
2810,0.065,-3.145,
2811,-0.035,-3.165,
2812,-0.13,-3.165,
2813,-0.16,-3.165,
2814,-0.14,-3.16,
2815,-0.13,-3.17,
2816,-0.135,-3.17,
2817,-0.14,-3.145,
2818,-0.165,-3.095,
2819,-0.17,-3.035,
2820,-0.19,-2.96,
2821,-0.225,-2.87,
2822,-0.285,-2.77,
2823,-0.32,-2.64,
2824,-0.345,-2.49,
2825,-0.345,-2.335,
2826,-0.35,-2.13,
2827,-0.36,-1.9,
2828,-0.37,-1.67,
2829,-0.4,-1.405,
2830,-0.405,-1.165,
2831,-0.395,-0.915,
2832,-0.37,-0.675,
2833,-0.37,-0.43,
2834,-0.365,-0.225,
2835,-0.395,-0.04,
2836,-0.39,0.14,
2837,-0.41,0.32,
2838,-0.395,0.48,
2839,-0.4,0.63,
2840,-0.39,0.725,
2841,-0.4,0.79,
2842,-0.395,0.87,
2843,-0.38,0.935,
2844,-0.35,0.99,
2845,-0.335,1.035,
2846,-0.335,1.075,
2847,-0.34,1.115,
2848,-0.35,1.165,
2849,-0.335,1.22,
2850,-0.315,1.27,
2851,-0.325,1.31,
2852,-0.33,1.345,
2853,-0.33,1.385,
2854,-0.325,1.45,
2855,-0.315,1.5,
2856,-0.305,1.545,
2857,-0.315,1.58,
2858,-0.32,1.63,
2859,-0.32,1.66,
2860,-0.32,1.72,
2861,-0.32,1.77,
2862,-0.305,1.815,
2863,-0.295,1.85,
2864,-0.315,1.885,
2865,-0.3,1.915,
2866,-0.295,1.97,
2867,-0.28,2.01,
2868,-0.275,2.045,
2869,-0.29,2.07,
2870,-0.285,2.09,
2871,-0.3,2.125,
2872,-0.295,2.16,
2873,-0.28,2.18,
2874,-0.26,2.2,
2875,-0.27,2.2,
2876,-0.27,2.195,
2877,-0.27,2.205,
2878,-0.255,2.21,
2879,-0.24,2.21,
2880,-0.225,2.205,
2881,-0.215,2.19,
2882,-0.205,2.155,
2883,-0.21,2.12,
2884,-0.21,2.095,
2885,-0.2,2.07,
2886,-0.18,2.025,
2887,-0.165,1.985,
2888,-0.165,1.93,
2889,-0.165,1.88,
2890,-0.17,1.815,
2891,-0.15,1.76,
2892,-0.145,1.715,
2893,-0.145,1.64,
2894,-0.135,1.57,
2895,-0.145,1.49,
2896,-0.14,1.42,
2897,-0.145,1.36,
2898,-0.125,1.285,
2899,-0.13,1.2,
2900,-0.14,1.11,
2901,-0.145,1.04,
2902,-0.16,0.96,
2903,-0.15,0.9,
2904,-0.135,0.84,
2905,-0.145,0.77,
2906,-0.155,0.695,
2907,-0.165,0.625,
2908,-0.17,0.58,
2909,-0.16,0.52,
2910,-0.145,0.475,
2911,-0.16,0.425,
2912,-0.17,0.375,
2913,-0.19,0.315,
2914,-0.19,0.285,
2915,-0.18,0.255,
2916,-0.175,0.22,
2917,-0.17,0.185,
2918,-0.195,0.155,
2919,-0.21,0.11,
2920,-0.215,0.11,
2921,-0.21,0.095,
2922,-0.21,0.07,
2923,-0.22,0.055,
2924,-0.225,0.025,
2925,-0.235,0.0,
2926,-0.235,0.0,
2927,-0.22,0.0,
2928,-0.215,-0.005,
2929,-0.22,-0.015,
2930,-0.215,-0.03,
2931,-0.22,-0.04,
2932,-0.23,-0.055,
2933,-0.235,-0.035,
2934,-0.22,-0.04,
2935,-0.23,-0.04,
2936,-0.245,-0.065,
2937,-0.25,-0.07,
2938,-0.24,-0.075,
2939,-0.23,-0.065,
2940,-0.215,-0.06,
2941,-0.23,-0.075,
2942,-0.24,-0.075,
2943,-0.245,-0.08,
2944,-0.245,-0.075,
2945,-0.23,-0.065,
2946,-0.225,-0.06,
2947,-0.225,-0.055,
2948,-0.235,-0.07,
2949,-0.23,-0.085,
2950,-0.23,-0.07,
2951,-0.225,-0.06,
2952,-0.205,-0.055,
2953,-0.215,-0.04,
2954,-0.225,-0.06,
2955,-0.24,-0.065,
2956,-0.25,-0.07,
2957,-0.235,-0.04,
2958,-0.215,-0.035,
2959,-0.225,-0.05,
2960,-0.225,-0.04,
2961,-0.235,-0.055,
2962,-0.25,-0.035,
2963,-0.245,-0.02,
2964,-0.235,-0.035,
2965,-0.24,-0.025,
2966,-0.26,-0.035,
2967,-0.255,-0.035,
2968,-0.25,-0.035,
2969,-0.24,-0.025,
2970,-0.225,-0.03,
2971,-0.24,-0.04,
2972,-0.25,-0.05,
2973,-0.26,-0.055,
2974,-0.265,-0.06,
2975,-0.255,-0.04,
2976,-0.235,-0.05,
2977,-0.26,-0.05,
2978,-0.26,-0.065,
2979,-0.26,-0.075,
2980,-0.275,-0.075,
2981,-0.255,-0.07,
2982,-0.255,-0.065,
2983,-0.27,-0.09,
2984,-0.28,-0.105,
2985,-0.275,-0.11,
2986,-0.285,-0.12,
2987,-0.28,-0.105,
2988,-0.265,-0.11,
2989,-0.285,-0.115,
2990,-0.285,-0.125,
2991,-0.295,-0.13,
2992,-0.29,-0.13,
2993,-0.285,-0.12,
2994,-0.265,-0.125,
2995,-0.275,-0.135,
2996,-0.275,-0.15,
2997,-0.29,-0.165,
2998,-0.28,-0.16,
2999,-0.27,-0.15,
3000,-0.27,-0.155,
3001,-0.275,-0.175,
3002,-0.28,-0.19,
3003,-0.3,-0.19,
3004,-0.305,-0.18,
3005,-0.305,-0.175,
3006,-0.28,-0.18,
3007,-0.295,-0.2,
3008,-0.285,-0.21,
3009,-0.3,-0.205,
3010,-0.315,-0.21,
3011,-0.31,-0.2,
3012,-0.3,-0.205,
3013,-0.29,-0.2,
3014,-0.295,-0.215,
3015,-0.305,-0.225,
3016,-0.31,-0.22,
3017,-0.3,-0.205,
3018,-0.295,-0.205,
3019,-0.29,-0.21,
3020,-0.285,-0.23,
3021,-0.3,-0.225,
3022,-0.295,-0.23,
3023,-0.3,-0.215,
3024,-0.28,-0.22,
3025,-0.28,-0.215,
3026,-0.285,-0.215,
3027,-0.31,-0.24,
3028,-0.3,-0.23,
3029,-0.295,-0.22,
3030,-0.265,-0.21,
3031,-0.27,-0.23,
3032,-0.29,-0.235,
3033,-0.3,-0.24,
3034,-0.285,-0.235,
3035,-0.275,-0.23,
3036,-0.28,-0.225,
3037,-0.28,-0.235,
3038,-0.305,-0.23,
3039,-0.3,-0.235,
3040,-0.3,-0.22,
3041,-0.305,-0.21,
3042,-0.285,-0.2,
3043,-0.285,-0.195,
3044,-0.315,-0.195,
3045,-0.32,-0.2,
3046,-0.315,-0.185,
3047,-0.305,-0.17,
3048,-0.285,-0.17,
3049,-0.29,-0.17,
3050,-0.295,-0.19,
3051,-0.29,-0.19,
3052,-0.31,-0.18,
3053,-0.285,-0.175,
3054,-0.27,-0.165,
3055,-0.27,-0.175,
3056,-0.26,-0.195,
3057,-0.255,-0.21,
3058,-0.255,-0.215,
3059,-0.235,-0.195,
3060,-0.225,-0.2,
3061,-0.225,-0.185,
3062,-0.22,-0.185,
3063,-0.215,-0.135,
3064,-0.19,0.0,
3065,-0.17,0.27,
3066,-0.145,0.665,
3067,-0.125,0.835,
3068,-0.085,0.66,
3069,0.06,0.37,
3070,0.41,0.215,
3071,0.81,0.155,
3072,0.94,0.09,/
3073,0.7,0.02,
3074,0.365,-0.07,
3075,0.18,-0.135,
3076,0.14,-0.25,
3077,0.17,-0.385,
3078,0.18,-0.54,
3079,0.155,-0.705,
3080,0.12,-0.905,
3081,0.115,-1.13,
3082,0.11,-1.32,
3083,0.145,-1.465,
3084,0.16,-1.585,
3085,0.15,-1.705,
3086,0.13,-1.865,
3087,0.125,-2.045,
3088,0.12,-2.225,
3089,0.145,-2.4,
3090,0.165,-2.56,
3091,0.15,-2.68,
3092,0.14,-2.79,
3093,0.1,-2.905,
3094,0.08,-2.98,
3095,0.08,-3.055,
3096,0.055,-3.105,
3097,0.0,-3.14,
3098,-0.015,-3.185,
3099,-0.08,-3.22,
3100,-0.135,-3.24,
3101,-0.21,-3.235,
3102,-0.28,-3.255,
3103,-0.37,-3.255,
3104,-0.415,-3.265,
3105,-0.41,-3.265,
3106,-0.385,-3.25,
3107,-0.35,-3.205,
3108,-0.33,-3.15,
3109,-0.345,-3.08,
3110,-0.37,-2.985,
3111,-0.405,-2.86,
3112,-0.42,-2.7,
3113,-0.425,-2.545,
3114,-0.41,-2.33,
3115,-0.395,-2.12,
3116,-0.355,-1.91,
3117,-0.34,-1.68,
3118,-0.315,-1.43,
3119,-0.28,-1.18,
3120,-0.275,-0.955,
3121,-0.305,-0.755,
3122,-0.32,-0.56,
3123,-0.34,-0.36,
3124,-0.35,-0.16,
3125,-0.345,0.02,
3126,-0.32,0.18,
3127,-0.33,0.325,
3128,-0.32,0.43,
3129,-0.32,0.545,
3130,-0.31,0.62,
3131,-0.285,0.7,
3132,-0.275,0.745,
3133,-0.265,0.795,
3134,-0.275,0.82,
3135,-0.265,0.865,
3136,-0.26,0.925,
3137,-0.255,0.965,
3138,-0.24,0.995,
3139,-0.245,1.03,
3140,-0.25,1.055,
3141,-0.235,1.08,
3142,-0.245,1.125,
3143,-0.23,1.17,
3144,-0.21,1.215,
3145,-0.205,1.245,
3146,-0.215,1.275,
3147,-0.22,1.3,
3148,-0.215,1.36,
3149,-0.21,1.4,
3150,-0.21,1.435,
3151,-0.2,1.475,
3152,-0.2,1.5,
3153,-0.205,1.53,
3154,-0.2,1.585,
3155,-0.205,1.64,
3156,-0.185,1.675,
3157,-0.175,1.69,
3158,-0.17,1.72,
3159,-0.16,1.745,
3160,-0.16,1.785,
3161,-0.135,1.815,
3162,-0.12,1.845,
3163,-0.125,1.87,
3164,-0.14,1.88,
3165,-0.14,1.885,
3166,-0.13,1.915,
3167,-0.11,1.935,
3168,-0.11,1.955,
3169,-0.105,1.95,
3170,-0.1,1.94,
3171,-0.1,1.95,
3172,-0.105,1.945,
3173,-0.09,1.955,
3174,-0.065,1.93,
3175,-0.075,1.915,
3176,-0.06,1.88,
3177,-0.065,1.85,
3178,-0.07,1.825,
3179,-0.05,1.79,
3180,-0.04,1.745,
3181,-0.05,1.7,
3182,-0.04,1.645,
3183,-0.05,1.595,
3184,-0.05,1.545,
3185,-0.035,1.495,
3186,-0.03,1.445,
3187,-0.035,1.365,
3188,-0.06,1.305,
3189,-0.065,1.22,
3190,-0.065,1.16,
3191,-0.06,1.1,
3192,-0.04,1.04,
3193,-0.06,0.96,
3194,-0.07,0.88,
3195,-0.075,0.81,
3196,-0.1,0.75,
3197,-0.1,0.71,
3198,-0.1,0.655,
3199,-0.115,0.58,
3200,-0.12,0.53,
3201,-0.135,0.46,
3202,-0.145,0.42,
3203,-0.135,0.375,
3204,-0.135,0.325,
3205,-0.145,0.295,
3206,-0.16,0.25,
3207,-0.165,0.205,
3208,-0.165,0.195,
3209,-0.165,0.165,
3210,-0.17,0.145,
3211,-0.16,0.115,
3212,-0.195,0.09,
3213,-0.18,0.065,
3214,-0.2,0.065,
3215,-0.195,0.055,
3216,-0.19,0.035,
3217,-0.2,0.0,
3218,-0.215,0.0,
3219,-0.22,-0.015,
3220,-0.225,-0.025,
3221,-0.22,-0.025,
3222,-0.205,-0.025,
3223,-0.205,-0.03,
3224,-0.205,-0.055,
3225,-0.22,-0.065,
3226,-0.22,-0.07,
3227,-0.22,-0.045,
3228,-0.2,-0.06,
3229,-0.21,-0.065,
3230,-0.215,-0.075,
3231,-0.22,-0.075,
3232,-0.22,-0.07,
3233,-0.22,-0.05,
3234,-0.21,-0.055,
3235,-0.21,-0.06,
3236,-0.23,-0.06,
3237,-0.235,-0.08,
3238,-0.235,-0.055,
3239,-0.225,-0.055,
3240,-0.22,-0.055,
3241,-0.22,-0.05,
3242,-0.225,-0.06,
3243,-0.245,-0.05,
3244,-0.245,-0.05,
3245,-0.235,-0.04,
3246,-0.235,-0.045,
3247,-0.22,-0.03,
3248,-0.225,-0.055,
3249,-0.22,-0.055,
3250,-0.235,-0.045,
3251,-0.225,-0.025,
3252,-0.22,-0.025,
3253,-0.245,-0.035,
3254,-0.24,-0.04,
3255,-0.255,-0.055,
3256,-0.26,-0.055,
3257,-0.25,-0.035,
3258,-0.23,-0.03,
3259,-0.225,-0.04,
3260,-0.25,-0.045,
3261,-0.255,-0.055,
3262,-0.245,-0.05,
3263,-0.23,-0.04,
3264,-0.225,-0.035,
3265,-0.235,-0.045,
3266,-0.245,-0.055,
3267,-0.25,-0.07,
3268,-0.255,-0.06,
3269,-0.26,-0.055,
3270,-0.245,-0.055,
3271,-0.25,-0.07,
3272,-0.26,-0.09,
3273,-0.29,-0.09,
3274,-0.285,-0.085,
3275,-0.275,-0.075,
3276,-0.265,-0.08,
3277,-0.275,-0.09,
3278,-0.28,-0.1,
3279,-0.285,-0.11,
3280,-0.285,-0.11,
3281,-0.28,-0.105,
3282,-0.265,-0.11,
3283,-0.27,-0.12,
3284,-0.28,-0.135,
3285,-0.3,-0.14,
3286,-0.305,-0.135,
3287,-0.3,-0.125,
3288,-0.295,-0.14,
3289,-0.285,-0.145,
3290,-0.285,-0.155,
3291,-0.29,-0.17,
3292,-0.295,-0.155,
3293,-0.3,-0.16,
3294,-0.29,-0.155,
3295,-0.295,-0.16,
3296,-0.31,-0.175,
3297,-0.305,-0.17,
3298,-0.325,-0.17,
3299,-0.31,-0.175,
3300,-0.29,-0.175,
3301,-0.305,-0.175,
3302,-0.31,-0.195,
3303,-0.325,-0.2,
3304,-0.33,-0.18,
3305,-0.315,-0.185,
3306,-0.3,-0.185,
3307,-0.3,-0.195,
3308,-0.315,-0.215,
3309,-0.32,-0.21,
3310,-0.33,-0.19,
3311,-0.32,-0.19,
3312,-0.305,-0.205,
3313,-0.305,-0.2,
3314,-0.325,-0.22,
3315,-0.325,-0.23,
3316,-0.325,-0.215,
3317,-0.32,-0.195,
3318,-0.31,-0.205,
3319,-0.315,-0.21,
3320,-0.32,-0.23,
3321,-0.32,-0.235,
3322,-0.335,-0.22,
3323,-0.325,-0.21,
3324,-0.32,-0.215,
3325,-0.325,-0.21,
3326,-0.33,-0.22,
3327,-0.34,-0.235,
3328,-0.335,-0.22,
3329,-0.335,-0.215,
3330,-0.325,-0.215,
3331,-0.32,-0.215,
3332,-0.34,-0.235,
3333,-0.35,-0.24,
3334,-0.35,-0.225,
3335,-0.345,-0.215,
3336,-0.335,-0.22,
3337,-0.35,-0.215,
3338,-0.35,-0.235,
3339,-0.355,-0.24,
3340,-0.355,-0.235,
3341,-0.355,-0.21,
3342,-0.335,-0.225,
3343,-0.35,-0.215,
3344,-0.35,-0.23,
3345,-0.365,-0.225,
3346,-0.36,-0.225,
3347,-0.355,-0.215,
3348,-0.345,-0.215,
3349,-0.345,-0.22,
3350,-0.355,-0.22,
3351,-0.355,-0.22,
3352,-0.355,-0.21,
3353,-0.345,-0.19,
3354,-0.325,-0.185,
3355,-0.325,-0.185,
3356,-0.335,-0.175,
3357,-0.345,-0.175,
3358,-0.335,-0.16,
3359,-0.335,-0.145,
3360,-0.31,-0.145,
3361,-0.33,-0.145,
3362,-0.325,-0.155,
3363,-0.315,-0.14,
3364,-0.305,-0.085,
3365,-0.29,0.08,
3366,-0.24,0.415,
3367,-0.225,0.745,
3368,-0.185,0.745,
3369,-0.1,0.515,
3370,0.11,0.31,
3371,0.475,0.245,
3372,0.76,0.2,
3373,0.73,0.125,/
3374,0.445,0.045,
3375,0.18,-0.02,
3376,0.08,-0.11,
3377,0.085,-0.22,
3378,0.11,-0.365,
3379,0.11,-0.54,
3380,0.1,-0.73,
3381,0.1,-0.915,
3382,0.1,-1.125,
3383,0.115,-1.285,
3384,0.13,-1.425,
3385,0.13,-1.58,
3386,0.09,-1.73,
3387,0.06,-1.89,
3388,0.04,-2.05,
3389,0.055,-2.235,
3390,0.045,-2.44,
3391,0.05,-2.62,
3392,0.03,-2.74,
3393,-0.005,-2.835,
3394,-0.03,-2.94,
3395,-0.065,-3.025,
3396,-0.075,-3.095,
3397,-0.14,-3.145,
3398,-0.2,-3.185,
3399,-0.235,-3.225,
3400,-0.28,-3.245,
3401,-0.325,-3.235,
3402,-0.375,-3.24,
3403,-0.45,-3.255,
3404,-0.525,-3.27,
3405,-0.58,-3.27,
3406,-0.57,-3.25,
3407,-0.53,-3.235,
3408,-0.47,-3.205,
3409,-0.44,-3.19,
3410,-0.425,-3.15,
3411,-0.415,-3.075,
3412,-0.425,-2.96,
3413,-0.44,-2.84,
3414,-0.44,-2.73,
3415,-0.45,-2.565,
3416,-0.465,-2.415,
3417,-0.465,-2.22,
3418,-0.44,-2.015,
3419,-0.41,-1.8,
3420,-0.37,-1.58,
3421,-0.35,-1.325,
3422,-0.355,-1.115,
3423,-0.385,-0.905,
3424,-0.4,-0.685,
3425,-0.41,-0.48,
3426,-0.405,-0.295,
3427,-0.415,-0.115,
3428,-0.435,0.035,
3429,-0.45,0.195,
3430,-0.45,0.335,
3431,-0.44,0.475,
3432,-0.43,0.565,
3433,-0.435,0.635,
3434,-0.43,0.7,
3435,-0.44,0.74,
3436,-0.42,0.795,
3437,-0.41,0.85,
3438,-0.395,0.89,
3439,-0.39,0.94,
3440,-0.395,0.95,
3441,-0.4,0.995,
3442,-0.395,1.045,
3443,-0.375,1.09,
3444,-0.375,1.105,
3445,-0.375,1.135,
3446,-0.38,1.165,
3447,-0.375,1.18,
3448,-0.37,1.235,
3449,-0.36,1.27,
3450,-0.34,1.305,
3451,-0.355,1.33,
3452,-0.36,1.355,
3453,-0.37,1.385,
3454,-0.345,1.425,
3455,-0.345,1.48,
3456,-0.33,1.495,
3457,-0.335,1.53,
3458,-0.33,1.54,
3459,-0.34,1.565,
3460,-0.33,1.61,
3461,-0.34,1.645,
3462,-0.33,1.685,
3463,-0.32,1.705,
3464,-0.31,1.73,
3465,-0.325,1.745,
3466,-0.325,1.79,
3467,-0.305,1.825,
3468,-0.29,1.85,
3469,-0.29,1.875,
3470,-0.295,1.875,
3471,-0.3,1.91,
3472,-0.295,1.935,
3473,-0.29,1.955,
3474,-0.26,1.97,
3475,-0.265,1.975,
3476,-0.275,1.975,
3477,-0.275,1.975,
3478,-0.275,1.99,
3479,-0.255,1.995,
3480,-0.23,1.995,
3481,-0.245,1.99,
3482,-0.25,1.97,
3483,-0.25,1.945,
3484,-0.24,1.93,
3485,-0.23,1.92,
3486,-0.225,1.89,
3487,-0.225,1.855,
3488,-0.235,1.81,
3489,-0.225,1.765,
3490,-0.21,1.73,
3491,-0.21,1.695,
3492,-0.205,1.655,
3493,-0.2,1.595,
3494,-0.205,1.525,
3495,-0.215,1.465,
3496,-0.205,1.425,
3497,-0.195,1.355,
3498,-0.2,1.305,
3499,-0.205,1.23,
3500,-0.21,1.155,
3501,-0.215,1.095,
3502,-0.23,1.055,
3503,-0.21,1.0,
3504,-0.195,0.955,
3505,-0.21,0.895,
3506,-0.225,0.82,
3507,-0.225,0.76,
3508,-0.225,0.705,
3509,-0.23,0.66,
3510,-0.235,0.605,
3511,-0.24,0.555,
3512,-0.245,0.49,
3513,-0.255,0.44,
3514,-0.255,0.415,
3515,-0.255,0.385,
3516,-0.25,0.35,
3517,-0.255,0.3,
3518,-0.27,0.26,
3519,-0.29,0.215,
3520,-0.285,0.195,
3521,-0.285,0.185,
3522,-0.28,0.155,
3523,-0.295,0.12,
3524,-0.3,0.085,
3525,-0.315,0.065,
3526,-0.325,0.055,
3527,-0.31,0.05,
3528,-0.3,0.03,
3529,-0.3,0.015,
3530,-0.31,-0.01,
3531,-0.33,-0.015,
3532,-0.33,-0.025,
3533,-0.32,-0.025,
3534,-0.325,-0.03,
3535,-0.315,-0.04,
3536,-0.325,-0.06,
3537,-0.335,-0.075,
3538,-0.34,-0.07,
3539,-0.335,-0.06,
3540,-0.325,-0.075,
3541,-0.325,-0.075,
3542,-0.325,-0.075,
3543,-0.34,-0.095,
3544,-0.34,-0.075,
3545,-0.34,-0.06,
3546,-0.33,-0.07,
3547,-0.33,-0.065,
3548,-0.335,-0.075,
3549,-0.335,-0.07,
3550,-0.34,-0.065,
3551,-0.335,-0.06,
3552,-0.335,-0.055,
3553,-0.33,-0.055,
3554,-0.335,-0.06,
3555,-0.335,-0.07,
3556,-0.345,-0.06,
3557,-0.34,-0.03,
3558,-0.32,-0.04,
3559,-0.31,-0.045,
3560,-0.33,-0.045,
3561,-0.35,-0.06,
3562,-0.34,-0.035,
3563,-0.33,-0.025,
3564,-0.335,-0.03,
3565,-0.315,-0.025,
3566,-0.32,-0.025,
3567,-0.335,-0.04,
3568,-0.33,-0.02,
3569,-0.33,-0.01,
3570,-0.325,-0.025,
3571,-0.32,-0.035,
3572,-0.33,-0.03,
3573,-0.33,-0.03,
3574,-0.345,-0.025,
3575,-0.335,-0.015,
3576,-0.33,-0.03,
3577,-0.335,-0.04,
3578,-0.34,-0.04,
3579,-0.34,-0.05,
3580,-0.34,-0.04,
3581,-0.35,-0.035,
3582,-0.34,-0.04,
3583,-0.34,-0.045,
3584,-0.35,-0.065,
3585,-0.355,-0.07,
3586,-0.345,-0.085,
3587,-0.34,-0.06,
3588,-0.335,-0.07,
3589,-0.35,-0.085,
3590,-0.355,-0.1,
3591,-0.355,-0.105,
3592,-0.38,-0.105,
3593,-0.37,-0.105,
3594,-0.355,-0.095,
3595,-0.35,-0.115,
3596,-0.37,-0.115,
3597,-0.37,-0.135,
3598,-0.36,-0.115,
3599,-0.36,-0.125,
3600,-0.355,-0.135,
3601,-0.355,-0.135,
3602,-0.36,-0.155,
3603,-0.375,-0.175,
3604,-0.37,-0.16,
3605,-0.365,-0.15,
3606,-0.355,-0.16,
3607,-0.365,-0.155,
3608,-0.38,-0.17,
3609,-0.395,-0.175,
3610,-0.38,-0.17,
3611,-0.38,-0.17,
3612,-0.38,-0.17,
3613,-0.375,-0.18,
3614,-0.38,-0.185,
3615,-0.395,-0.19,
3616,-0.395,-0.19,
3617,-0.39,-0.18,
3618,-0.37,-0.19,
3619,-0.375,-0.195,
3620,-0.385,-0.21,
3621,-0.395,-0.21,
3622,-0.395,-0.19,
3623,-0.385,-0.2,
3624,-0.375,-0.195,
3625,-0.375,-0.195,
3626,-0.375,-0.21,
3627,-0.405,-0.22,
3628,-0.395,-0.21,
3629,-0.385,-0.195,
3630,-0.375,-0.215,
3631,-0.38,-0.215,
3632,-0.38,-0.225,
3633,-0.395,-0.225,
3634,-0.405,-0.215,
3635,-0.395,-0.21,
3636,-0.385,-0.225,
3637,-0.38,-0.215,
3638,-0.395,-0.23,
3639,-0.4,-0.23,
3640,-0.405,-0.24,
3641,-0.4,-0.21,
3642,-0.385,-0.21,
3643,-0.395,-0.22,
3644,-0.395,-0.245,
3645,-0.41,-0.23,
3646,-0.405,-0.235,
3647,-0.405,-0.225,
3648,-0.4,-0.225,
3649,-0.395,-0.23,
3650,-0.4,-0.245,
3651,-0.395,-0.24,
3652,-0.4,-0.225,
3653,-0.385,-0.21,
3654,-0.37,-0.225,
3655,-0.38,-0.23,
3656,-0.385,-0.235,
3657,-0.395,-0.235,
3658,-0.4,-0.225,
3659,-0.4,-0.23,
3660,-0.39,-0.22,
3661,-0.38,-0.22,
3662,-0.4,-0.235,
3663,-0.395,-0.24,
3664,-0.39,-0.235,
3665,-0.375,-0.23,
3666,-0.385,-0.225,
3667,-0.39,-0.23,
3668,-0.385,-0.235,
3669,-0.4,-0.245,
3670,-0.385,-0.23,
3671,-0.38,-0.215,
3672,-0.37,-0.225,
3673,-0.385,-0.225,
3674,-0.385,-0.24,
3675,-0.4,-0.24,
3676,-0.39,-0.23,
3677,-0.38,-0.22,
3678,-0.37,-0.21,
3679,-0.37,-0.2,
3680,-0.375,-0.215,
3681,-0.38,-0.195,
3682,-0.36,-0.14,
3683,-0.35,-0.01,
3684,-0.32,0.285,
3685,-0.305,0.665,
3686,-0.275,0.835,
3687,-0.225,0.675,
3688,-0.095,0.415,
3689,0.21,0.285,
3690,0.585,0.22,
3691,0.71,0.15,
3692,0.525,0.08,/
3693,0.22,0.01,
3694,0.05,-0.06,
3695,0.035,-0.135,
3696,0.05,-0.255,
3697,0.045,-0.4,
3698,0.025,-0.555,
3699,0.015,-0.72,
3700,0.015,-0.91,
3701,0.015,-1.1,
3702,0.025,-1.28,
3703,0.03,-1.425,
3704,0.01,-1.575,
3705,-0.01,-1.71,
3706,-0.025,-1.855,
3707,-0.04,-2.005,
3708,-0.02,-2.2,
3709,-0.025,-2.415,
3710,-0.03,-2.59,
3711,-0.05,-2.71,
3712,-0.075,-2.81,
3713,-0.085,-2.895,
3714,-0.105,-2.98,
3715,-0.135,-3.075,
3716,-0.19,-3.16,
3717,-0.255,-3.21,
3718,-0.325,-3.235,
3719,-0.4,-3.235,
3720,-0.44,-3.26,
3721,-0.5,-3.275,
3722,-0.58,-3.29,
3723,-0.67,-3.29,
3724,-0.72,-3.3,
3725,-0.7,-3.28,
3726,-0.65,-3.27,
3727,-0.595,-3.265,
3728,-0.565,-3.26,
3729,-0.525,-3.24,
3730,-0.5,-3.185,
3731,-0.5,-3.1,
3732,-0.49,-3.0,
3733,-0.505,-2.875,
3734,-0.51,-2.72,
3735,-0.52,-2.525,
3736,-0.5,-2.305,
3737,-0.48,-2.05,
3738,-0.435,-1.79,
3739,-0.39,-1.53,
3740,-0.375,-1.285,
3741,-0.38,-1.035,
3742,-0.395,-0.8,
3743,-0.4,-0.585,
3744,-0.41,-0.375,
3745,-0.43,-0.165,
3746,-0.44,0.0,
3747,-0.45,0.175,
3748,-0.445,0.355,
3749,-0.445,0.495,
3750,-0.43,0.58,
3751,-0.44,0.65,
3752,-0.44,0.71,
3753,-0.445,0.755,
3754,-0.445,0.805,
3755,-0.44,0.845,
3756,-0.43,0.88,
3757,-0.42,0.915,
3758,-0.43,0.935,
3759,-0.43,0.97,
3760,-0.43,1.005,
3761,-0.415,1.05,
3762,-0.42,1.08,
3763,-0.42,1.1,
3764,-0.42,1.12,
3765,-0.43,1.145,
3766,-0.41,1.18,
3767,-0.425,1.22,
3768,-0.4,1.245,
3769,-0.4,1.27,
3770,-0.405,1.28,
3771,-0.415,1.315,
3772,-0.415,1.36,
3773,-0.405,1.39,
3774,-0.39,1.43,
3775,-0.405,1.46,
3776,-0.405,1.485,
3777,-0.4,1.515,
3778,-0.39,1.55,
3779,-0.375,1.595,
3780,-0.37,1.62,
3781,-0.355,1.66,
3782,-0.365,1.69,
3783,-0.375,1.72,
3784,-0.375,1.765,
3785,-0.345,1.8,
3786,-0.33,1.83,
3787,-0.345,1.86,
3788,-0.34,1.875,
3789,-0.33,1.9,
3790,-0.33,1.935,
3791,-0.315,1.97,
3792,-0.295,1.99,
3793,-0.285,2.01,
3794,-0.29,2.02,
3795,-0.295,2.005,
3796,-0.275,2.015,
3797,-0.27,2.035,
3798,-0.245,2.025,
3799,-0.24,2.02,
3800,-0.25,1.985,
3801,-0.25,1.965,
3802,-0.24,1.95,
3803,-0.23,1.945,
3804,-0.2,1.9,
3805,-0.2,1.865,
3806,-0.21,1.81,
3807,-0.215,1.765,
3808,-0.215,1.715,
3809,-0.2,1.675,
3810,-0.185,1.62,
3811,-0.175,1.56,
3812,-0.2,1.475,
3813,-0.21,1.4,
3814,-0.2,1.345,
3815,-0.185,1.28,
3816,-0.17,1.205,
3817,-0.17,1.13,
3818,-0.185,1.035,
3819,-0.195,0.965,
3820,-0.205,0.91,
3821,-0.21,0.84,
3822,-0.205,0.775,
3823,-0.2,0.72,
3824,-0.21,0.64,
3825,-0.225,0.585,
3826,-0.23,0.54,
3827,-0.22,0.505,
3828,-0.215,0.46,
3829,-0.22,0.41,
3830,-0.245,0.355,
3831,-0.255,0.325,
3832,-0.255,0.295,
3833,-0.25,0.255,
3834,-0.255,0.225,
3835,-0.255,0.215,
3836,-0.27,0.17,
3837,-0.29,0.135,
3838,-0.275,0.13,
3839,-0.28,0.13,
3840,-0.27,0.115,
3841,-0.285,0.09,
3842,-0.28,0.08,
3843,-0.295,0.06,
3844,-0.29,0.055,
3845,-0.295,0.07,
3846,-0.285,0.035,
3847,-0.285,0.04,
3848,-0.295,0.03,
3849,-0.305,0.025,
3850,-0.315,0.02,
3851,-0.3,0.035,
3852,-0.3,0.02,
3853,-0.295,0.01,
3854,-0.305,0.0,
3855,-0.325,0.01,
3856,-0.33,0.015,
3857,-0.31,0.035,
3858,-0.305,0.025,
3859,-0.305,0.02,
3860,-0.315,0.01,
3861,-0.34,0.01,
3862,-0.335,0.025,
3863,-0.315,0.025,
3864,-0.32,0.03,
3865,-0.31,0.035,
3866,-0.325,0.02,
3867,-0.33,0.01,
3868,-0.33,0.025,
3869,-0.325,0.03,
3870,-0.305,0.04,
3871,-0.315,0.035,
3872,-0.325,0.025,
3873,-0.34,0.025,
3874,-0.345,0.02,
3875,-0.325,0.025,
3876,-0.31,0.035,
3877,-0.32,0.015,
3878,-0.33,0.015,
3879,-0.335,0.01,
3880,-0.33,0.015,
3881,-0.32,0.01,
3882,-0.325,0.005,
3883,-0.335,0.0,
3884,-0.335,-0.01,
3885,-0.35,-0.02,
3886,-0.345,-0.02,
3887,-0.325,-0.01,
3888,-0.33,-0.02,
3889,-0.325,-0.02,
3890,-0.335,-0.035,
3891,-0.36,-0.045,
3892,-0.36,-0.035,
3893,-0.355,-0.035,
3894,-0.35,-0.04,
3895,-0.345,-0.05,
3896,-0.36,-0.07,
3897,-0.365,-0.07,
3898,-0.365,-0.08,
3899,-0.345,-0.08,
3900,-0.34,-0.085,
3901,-0.35,-0.09,
3902,-0.35,-0.11,
3903,-0.365,-0.11,
3904,-0.37,-0.11,
3905,-0.355,-0.095,
3906,-0.36,-0.11,
3907,-0.365,-0.11,
3908,-0.375,-0.125,
3909,-0.385,-0.125,
3910,-0.39,-0.115,
3911,-0.365,-0.12,
3912,-0.36,-0.12,
3913,-0.37,-0.125,
3914,-0.38,-0.135,
3915,-0.39,-0.135,
3916,-0.37,-0.14,
3917,-0.365,-0.13,
3918,-0.37,-0.135,
3919,-0.36,-0.14,
3920,-0.365,-0.18,
3921,-0.385,-0.16,
3922,-0.375,-0.145,
3923,-0.375,-0.15,
3924,-0.375,-0.15,
3925,-0.38,-0.16,
3926,-0.38,-0.175,
3927,-0.4,-0.17,
3928,-0.375,-0.165,
3929,-0.38,-0.16,
3930,-0.37,-0.17,
3931,-0.385,-0.16,
3932,-0.385,-0.185,
3933,-0.4,-0.19,
3934,-0.39,-0.185,
3935,-0.39,-0.17,
3936,-0.375,-0.165,
3937,-0.37,-0.185,
3938,-0.37,-0.19,
3939,-0.39,-0.185,
3940,-0.375,-0.18,
3941,-0.365,-0.17,
3942,-0.365,-0.185,
3943,-0.375,-0.18,
3944,-0.385,-0.19,
3945,-0.405,-0.19,
3946,-0.395,-0.185,
3947,-0.375,-0.17,
3948,-0.36,-0.18,
3949,-0.355,-0.195,
3950,-0.35,-0.195,
3951,-0.365,-0.2,
3952,-0.35,-0.185,
3953,-0.37,-0.185,
3954,-0.365,-0.18,
3955,-0.365,-0.195,
3956,-0.38,-0.2,
3957,-0.38,-0.195,
3958,-0.375,-0.18,
3959,-0.36,-0.185,
3960,-0.35,-0.18,
3961,-0.35,-0.185,
3962,-0.35,-0.2,
3963,-0.36,-0.21,
3964,-0.35,-0.19,
3965,-0.355,-0.185,
3966,-0.345,-0.19,
3967,-0.35,-0.205,
3968,-0.365,-0.205,
3969,-0.375,-0.205,
3970,-0.37,-0.2,
3971,-0.36,-0.19,
3972,-0.355,-0.185,
3973,-0.345,-0.2,
3974,-0.365,-0.21,
3975,-0.36,-0.215,
3976,-0.36,-0.19,
3977,-0.34,-0.18,
3978,-0.34,-0.19,
3979,-0.345,-0.18,
3980,-0.36,-0.205,
3981,-0.36,-0.2,
3982,-0.35,-0.185,
3983,-0.345,-0.175,
3984,-0.33,-0.18,
3985,-0.32,-0.175,
3986,-0.315,-0.16,
3987,-0.32,-0.145,
3988,-0.305,-0.065,
3989,-0.295,0.085,
3990,-0.27,0.42,
3991,-0.25,0.79,
3992,-0.235,0.925,
3993,-0.175,0.74,
3994,-0.03,0.485,
3995,0.285,0.34,
3996,0.66,0.265,
3997,0.81,0.195,
3998,0.61,0.125,/
3999,0.295,0.05,
4000,0.125,-0.02,
4001,0.085,-0.125,
4002,0.115,-0.265,
4003,0.125,-0.425,
4004,0.105,-0.605,
4005,0.09,-0.815,
4006,0.09,-1.045,
4007,0.1,-1.25,
4008,0.095,-1.445,
4009,0.11,-1.585,
4010,0.085,-1.755,
4011,0.06,-1.905,
4012,0.04,-2.085,
4013,0.045,-2.285,
4014,0.045,-2.485,
4015,0.035,-2.645,
4016,0.015,-2.765,
4017,-0.015,-2.855,
4018,-0.045,-2.935,
4019,-0.06,-3.01,
4020,-0.1,-3.085,
4021,-0.16,-3.15,
4022,-0.225,-3.19,
4023,-0.3,-3.225,
4024,-0.36,-3.24,
4025,-0.42,-3.235,
4026,-0.49,-3.245,
4027,-0.58,-3.255,
4028,-0.665,-3.27,
4029,-0.71,-3.265,
4030,-0.695,-3.255,
4031,-0.655,-3.23,
4032,-0.6,-3.21,
4033,-0.56,-3.19,
4034,-0.54,-3.135,
4035,-0.55,-3.045,
4036,-0.55,-2.91,
4037,-0.54,-2.745,
4038,-0.52,-2.565,
4039,-0.515,-2.355,
4040,-0.485,-2.14,
4041,-0.455,-1.885,
4042,-0.405,-1.62,
4043,-0.355,-1.35,
4044,-0.34,-1.09,
4045,-0.35,-0.85,
4046,-0.365,-0.64,
4047,-0.355,-0.405,
4048,-0.34,-0.185,
4049,-0.33,0.01,
4050,-0.315,0.18,
4051,-0.325,0.34,
4052,-0.33,0.48,
4053,-0.335,0.605,
4054,-0.325,0.7,
4055,-0.3,0.77,
4056,-0.275,0.82,
4057,-0.255,0.855,
4058,-0.245,0.875,
4059,-0.24,0.905,
4060,-0.24,0.935,
4061,-0.225,0.965,
4062,-0.22,1.0,
4063,-0.23,1.02,
4064,-0.23,1.04,
4065,-0.24,1.065,
4066,-0.23,1.11,
4067,-0.235,1.14,
4068,-0.22,1.175,
4069,-0.215,1.205,
4070,-0.22,1.235,
4071,-0.245,1.25,
4072,-0.26,1.27,
4073,-0.25,1.32,
4074,-0.255,1.35,
4075,-0.255,1.375,
4076,-0.26,1.385,
4077,-0.275,1.435,
4078,-0.275,1.475,
4079,-0.28,1.505,
4080,-0.265,1.55,
4081,-0.27,1.575,
4082,-0.28,1.605,
4083,-0.29,1.63,
4084,-0.275,1.665,
4085,-0.265,1.71,
4086,-0.25,1.74,
4087,-0.25,1.775,
4088,-0.255,1.795,
4089,-0.27,1.82,
4090,-0.285,1.845,
4091,-0.275,1.89,
4092,-0.26,1.9,
4093,-0.26,1.92,
4094,-0.25,1.925,
4095,-0.245,1.955,
4096,-0.23,1.98,
4097,-0.225,1.985,
4098,-0.205,1.99,
4099,-0.205,1.99,
4100,-0.2,1.97,
4101,-0.205,1.965,
4102,-0.19,1.95,
4103,-0.165,1.945,
4104,-0.14,1.92,
4105,-0.12,1.88,
4106,-0.125,1.83,
4107,-0.13,1.785,
4108,-0.135,1.75,
4109,-0.13,1.695,
4110,-0.13,1.645,
4111,-0.115,1.565,
4112,-0.1,1.49,
4113,-0.09,1.425,
4114,-0.1,1.365,
4115,-0.075,1.305,
4116,-0.08,1.225,
4117,-0.09,1.14,
4118,-0.1,1.065,
4119,-0.105,0.985,
4120,-0.11,0.92,
4121,-0.105,0.86,
4122,-0.09,0.79,
4123,-0.1,0.725,
4124,-0.115,0.655,
4125,-0.12,0.58,
4126,-0.12,0.54,
4127,-0.12,0.5,
4128,-0.12,0.46,
4129,-0.125,0.41,
4130,-0.14,0.36,
4131,-0.145,0.325,
4132,-0.145,0.29,
4133,-0.145,0.285,
4134,-0.145,0.235,
4135,-0.15,0.205,
4136,-0.17,0.18,
4137,-0.175,0.165,
4138,-0.185,0.16,
4139,-0.18,0.15,
4140,-0.185,0.13,
4141,-0.2,0.11,
4142,-0.215,0.085,
4143,-0.225,0.1,
4144,-0.22,0.085,
4145,-0.2,0.09,
4146,-0.18,0.08,
4147,-0.21,0.07,
4148,-0.215,0.06,
4149,-0.225,0.06,
4150,-0.215,0.065,
4151,-0.21,0.07,
4152,-0.21,0.07,
4153,-0.215,0.05,
4154,-0.235,0.035,
4155,-0.24,0.04,
4156,-0.255,0.05,
4157,-0.23,0.06,
4158,-0.22,0.055,
4159,-0.23,0.055,
4160,-0.225,0.05,
4161,-0.24,0.045,
4162,-0.23,0.065,
4163,-0.245,0.06,
4164,-0.23,0.065,
4165,-0.235,0.07,
4166,-0.245,0.04,
4167,-0.255,0.05,
4168,-0.25,0.055,
4169,-0.23,0.055,
4170,-0.22,0.05,
4171,-0.24,0.05,
4172,-0.25,0.045,
4173,-0.26,0.03,
4174,-0.25,0.045,
4175,-0.25,0.06,
4176,-0.23,0.055,
4177,-0.235,0.045,
4178,-0.24,0.035,
4179,-0.255,0.03,
4180,-0.26,0.03,
4181,-0.245,0.03,
4182,-0.255,0.035,
4183,-0.255,0.02,
4184,-0.255,0.0,
4185,-0.27,-0.005,
4186,-0.27,0.005,
4187,-0.265,0.005,
4188,-0.25,0.0,
4189,-0.245,-0.01,
4190,-0.25,-0.03,
4191,-0.265,-0.025,
4192,-0.27,-0.02,
4193,-0.27,-0.025,
4194,-0.265,-0.03,
4195,-0.27,-0.035,
4196,-0.28,-0.065,
4197,-0.265,-0.055,
4198,-0.27,-0.05,
4199,-0.28,-0.05,
4200,-0.27,-0.055,
4201,-0.27,-0.07,
4202,-0.285,-0.09,
4203,-0.29,-0.095,
4204,-0.29,-0.09,
4205,-0.285,-0.08,
4206,-0.275,-0.085,
4207,-0.28,-0.1,
4208,-0.29,-0.115,
4209,-0.305,-0.11,
4210,-0.295,-0.105,
4211,-0.29,-0.09,
4212,-0.28,-0.1,
4213,-0.28,-0.105,
4214,-0.28,-0.12,
4215,-0.31,-0.12,
4216,-0.3,-0.125,
4217,-0.3,-0.11,
4218,-0.275,-0.13,
4219,-0.285,-0.125,
4220,-0.285,-0.14,
4221,-0.295,-0.14,
4222,-0.295,-0.125,
4223,-0.3,-0.13,
4224,-0.285,-0.125,
4225,-0.29,-0.135,
4226,-0.295,-0.14,
4227,-0.305,-0.15,
4228,-0.295,-0.135,
4229,-0.29,-0.13,
4230,-0.285,-0.14,
4231,-0.29,-0.14,
4232,-0.29,-0.155,
4233,-0.31,-0.15,
4234,-0.31,-0.145,
4235,-0.3,-0.15,
4236,-0.295,-0.145,
4237,-0.295,-0.145,
4238,-0.295,-0.165,
4239,-0.3,-0.165,
4240,-0.295,-0.155,
4241,-0.29,-0.14,
4242,-0.285,-0.145,
4243,-0.28,-0.15,
4244,-0.295,-0.165,
4245,-0.3,-0.17,
4246,-0.31,-0.155,
4247,-0.29,-0.145,
4248,-0.29,-0.155,
4249,-0.29,-0.165,
4250,-0.295,-0.17,
4251,-0.295,-0.165,
4252,-0.295,-0.16,
4253,-0.295,-0.15,
4254,-0.305,-0.15,
4255,-0.295,-0.16,
4256,-0.305,-0.165,
4257,-0.305,-0.165,
4258,-0.31,-0.16,
4259,-0.305,-0.15,
4260,-0.29,-0.155,
4261,-0.295,-0.165,
4262,-0.29,-0.175,
4263,-0.3,-0.18,
4264,-0.29,-0.165,
4265,-0.285,-0.16,
4266,-0.27,-0.17,
4267,-0.28,-0.165,
4268,-0.28,-0.185,
4269,-0.29,-0.18,
4270,-0.3,-0.175,
4271,-0.27,-0.16,
4272,-0.28,-0.17,
4273,-0.285,-0.17,
4274,-0.285,-0.17,
4275,-0.3,-0.165,
4276,-0.29,-0.16,
4277,-0.275,-0.14,
4278,-0.265,-0.14,
4279,-0.255,-0.115,
4280,-0.255,-0.065,
4281,-0.26,0.08,
4282,-0.23,0.43,
4283,-0.2,0.835,
4284,-0.14,0.92,
4285,-0.065,0.68,
4286,0.13,0.42,
4287,0.5,0.295,
4288,0.815,0.245,
4289,0.76,0.215,/
4290,0.445,0.145,
4291,0.2,0.075,
4292,0.115,-0.035,
4293,0.12,-0.18,
4294,0.15,-0.33,
4295,0.16,-0.5,
4296,0.17,-0.705,
4297,0.165,-0.95,
4298,0.16,-1.175,
4299,0.155,-1.38,
4300,0.16,-1.535,
4301,0.145,-1.695,
4302,0.135,-1.865,
4303,0.13,-2.06,
4304,0.09,-2.285,
4305,0.095,-2.495,
4306,0.075,-2.63,
4307,0.055,-2.73,
4308,0.015,-2.825,
4309,-0.03,-2.94,
4310,-0.075,-3.03,
4311,-0.15,-3.11,
4312,-0.2,-3.14,
4313,-0.275,-3.155,
4314,-0.33,-3.19,
4315,-0.41,-3.215,
4316,-0.5,-3.235,
4317,-0.595,-3.235,
4318,-0.64,-3.235,
4319,-0.65,-3.225,
4320,-0.61,-3.21,
4321,-0.575,-3.205,
4322,-0.55,-3.195,
4323,-0.535,-3.145,
4324,-0.525,-3.05,
4325,-0.51,-2.94,
4326,-0.495,-2.795,
4327,-0.49,-2.635,
4328,-0.465,-2.45,
4329,-0.45,-2.225,
4330,-0.42,-1.965,
4331,-0.37,-1.695,
4332,-0.32,-1.42,
4333,-0.31,-1.155,
4334,-0.315,-0.925,
4335,-0.335,-0.685,
4336,-0.345,-0.45,
4337,-0.34,-0.235,
4338,-0.335,-0.02,
4339,-0.34,0.155,
4340,-0.345,0.34,
4341,-0.35,0.5,
4342,-0.34,0.63,
4343,-0.325,0.715,
4344,-0.315,0.795,
4345,-0.305,0.835,
4346,-0.305,0.865,
4347,-0.32,0.905,
4348,-0.305,0.965,
4349,-0.29,1.02,
4350,-0.29,1.04,
4351,-0.295,1.065,
4352,-0.295,1.1,
4353,-0.305,1.115,
4354,-0.29,1.15,
4355,-0.275,1.2,
4356,-0.27,1.23,
4357,-0.27,1.25,
4358,-0.27,1.26,
4359,-0.28,1.31,
4360,-0.275,1.34,
4361,-0.265,1.385,
4362,-0.26,1.415,
4363,-0.255,1.455,
4364,-0.26,1.455,
4365,-0.275,1.49,
4366,-0.265,1.535,
4367,-0.265,1.575,
4368,-0.25,1.615,
4369,-0.25,1.65,
4370,-0.255,1.68,
4371,-0.26,1.72,
4372,-0.25,1.765,
4373,-0.235,1.81,
4374,-0.23,1.83,
4375,-0.235,1.87,
4376,-0.235,1.885,
4377,-0.24,1.915,
4378,-0.225,1.955,
4379,-0.215,1.98,
4380,-0.205,2.005,
4381,-0.195,2.02,
4382,-0.21,2.03,
4383,-0.215,2.045,
4384,-0.195,2.065,
4385,-0.18,2.09,
4386,-0.16,2.09,
4387,-0.155,2.09,
4388,-0.16,2.07,
4389,-0.16,2.07,
4390,-0.145,2.065,
4391,-0.125,2.045,
4392,-0.11,2.025,
4393,-0.11,2.0,
4394,-0.11,1.94,
4395,-0.13,1.9,
4396,-0.105,1.85,
4397,-0.095,1.795,
4398,-0.07,1.73,
4399,-0.075,1.66,
4400,-0.075,1.585,
4401,-0.07,1.51,
4402,-0.07,1.44,
4403,-0.045,1.38,
4404,-0.04,1.29,
4405,-0.05,1.2,
4406,-0.075,1.12,
4407,-0.09,1.04,
4408,-0.08,0.98,
4409,-0.07,0.925,
4410,-0.075,0.85,
4411,-0.08,0.78,
4412,-0.095,0.715,
4413,-0.115,0.655,
4414,-0.11,0.615,
4415,-0.11,0.575,
4416,-0.12,0.535,
4417,-0.15,0.485,
4418,-0.175,0.42,
4419,-0.19,0.39,
4420,-0.195,0.36,
4421,-0.18,0.345,
4422,-0.195,0.31,
4423,-0.2,0.275,
4424,-0.215,0.235,
4425,-0.23,0.21,
4426,-0.22,0.195,
4427,-0.235,0.185,
4428,-0.225,0.16,
4429,-0.235,0.14,
4430,-0.25,0.13,
4431,-0.255,0.11,
4432,-0.255,0.11,
4433,-0.255,0.105,
4434,-0.25,0.11,
4435,-0.255,0.085,
4436,-0.265,0.07,
4437,-0.28,0.065,
4438,-0.285,0.075,
4439,-0.265,0.08,
4440,-0.27,0.06,
4441,-0.285,0.065,
4442,-0.3,0.05,
4443,-0.305,0.05,
4444,-0.28,0.055,
4445,-0.28,0.065,
4446,-0.275,0.065,
4447,-0.29,0.055,
4448,-0.295,0.04,
4449,-0.315,0.03,
4450,-0.3,0.055,
4451,-0.29,0.075,
4452,-0.29,0.075,
4453,-0.29,0.075,
4454,-0.3,0.06,
4455,-0.31,0.05,
4456,-0.31,0.06,
4457,-0.3,0.075,
4458,-0.295,0.07,
4459,-0.32,0.07,
4460,-0.305,0.055,
4461,-0.325,0.045,
4462,-0.315,0.06,
4463,-0.3,0.075,
4464,-0.305,0.065,
4465,-0.31,0.06,
4466,-0.305,0.045,
4467,-0.325,0.05,
4468,-0.325,0.055,
4469,-0.315,0.055,
4470,-0.315,0.05,
4471,-0.315,0.035,
4472,-0.325,0.02,
4473,-0.34,0.02,
4474,-0.33,0.025,
4475,-0.32,0.03,
4476,-0.31,0.02,
4477,-0.325,0.01,
4478,-0.34,0.0,
4479,-0.345,0.0,
4480,-0.345,0.005,
4481,-0.335,0.02,
4482,-0.345,0.01,
4483,-0.345,-0.015,
4484,-0.355,-0.015,
4485,-0.365,-0.02,
4486,-0.37,-0.03,
4487,-0.345,-0.025,
4488,-0.36,-0.035,
4489,-0.35,-0.04,
4490,-0.36,-0.05,
4491,-0.375,-0.055,
4492,-0.375,-0.055,
4493,-0.365,-0.05,
4494,-0.355,-0.055,
4495,-0.36,-0.06,
4496,-0.37,-0.085,
4497,-0.395,-0.08,
4498,-0.39,-0.08,
4499,-0.38,-0.07,
4500,-0.375,-0.07,
4501,-0.37,-0.08,
4502,-0.365,-0.095,
4503,-0.385,-0.09,
4504,-0.38,-0.1,
4505,-0.375,-0.085,
4506,-0.365,-0.08,
4507,-0.36,-0.11,
4508,-0.375,-0.105,
4509,-0.395,-0.105,
4510,-0.385,-0.1,
4511,-0.375,-0.09,
4512,-0.375,-0.1,
4513,-0.37,-0.12,
4514,-0.37,-0.115,
4515,-0.38,-0.115,
4516,-0.38,-0.105,
4517,-0.375,-0.105,
4518,-0.37,-0.1,
4519,-0.38,-0.105,
4520,-0.395,-0.12,
4521,-0.41,-0.125,
4522,-0.395,-0.125,
4523,-0.38,-0.105,
4524,-0.38,-0.11,
4525,-0.365,-0.13,
4526,-0.38,-0.135,
4527,-0.38,-0.125,
4528,-0.395,-0.12,
4529,-0.385,-0.105,
4530,-0.375,-0.115,
4531,-0.38,-0.125,
4532,-0.38,-0.135,
4533,-0.385,-0.135,
4534,-0.4,-0.125,
4535,-0.375,-0.12,
4536,-0.38,-0.13,
4537,-0.37,-0.13,
4538,-0.385,-0.14,
4539,-0.39,-0.145,
4540,-0.4,-0.135,
4541,-0.385,-0.12,
4542,-0.37,-0.125,
4543,-0.375,-0.135,
4544,-0.39,-0.145,
4545,-0.39,-0.155,
4546,-0.385,-0.145,
4547,-0.375,-0.13,
4548,-0.375,-0.13,
4549,-0.39,-0.14,
4550,-0.39,-0.15,
4551,-0.39,-0.15,
4552,-0.38,-0.145,
4553,-0.36,-0.135,
4554,-0.355,-0.145,
4555,-0.355,-0.14,
4556,-0.355,-0.16,
4557,-0.38,-0.155,
4558,-0.375,-0.145,
4559,-0.365,-0.14,
4560,-0.35,-0.14,
4561,-0.365,-0.15,
4562,-0.37,-0.15,
4563,-0.365,-0.155,
4564,-0.365,-0.135,
4565,-0.35,-0.12,
4566,-0.335,-0.125,
4567,-0.34,-0.115,
4568,-0.35,-0.115,
4569,-0.345,-0.055,
4570,-0.33,0.09,
4571,-0.31,0.38,
4572,-0.29,0.815,
4573,-0.24,1.005,
4574,-0.175,0.785,
4575,-0.025,0.485,
4576,0.33,0.32,
4577,0.665,0.28,
4578,0.68,0.215,
4579,0.41,0.12,/
4580,0.155,0.015,
4581,0.035,-0.105,
4582,0.05,-0.255,
4583,0.075,-0.425,
4584,0.08,-0.645,
4585,0.085,-0.895,
4586,0.07,-1.15,
4587,0.07,-1.36,
4588,0.075,-1.52,
4589,0.07,-1.675,
4590,0.055,-1.845,
4591,0.035,-2.055,
4592,0.015,-2.305,
4593,0.01,-2.56,
4594,0.0,-2.71,
4595,-0.025,-2.8,
4596,-0.06,-2.895,
4597,-0.105,-3.005,
4598,-0.16,-3.1,
4599,-0.235,-3.135,
4600,-0.305,-3.16,
4601,-0.365,-3.175,
4602,-0.425,-3.185,
4603,-0.5,-3.21,
4604,-0.595,-3.225,
4605,-0.68,-3.235,
4606,-0.735,-3.225,
4607,-0.715,-3.21,
4608,-0.66,-3.205,
4609,-0.595,-3.18,
4610,-0.555,-3.16,
4611,-0.55,-3.09,
4612,-0.545,-2.975,
4613,-0.535,-2.82,
4614,-0.52,-2.655,
4615,-0.52,-2.425,
4616,-0.5,-2.195,
4617,-0.475,-1.915,
4618,-0.42,-1.61,
4619,-0.37,-1.305,
4620,-0.36,-1.0,
4621,-0.365,-0.76,
4622,-0.39,-0.525,
4623,-0.41,-0.285,
4624,-0.415,-0.065,
4625,-0.415,0.135,
4626,-0.4,0.305,
4627,-0.39,0.485,
4628,-0.395,0.6,
4629,-0.385,0.685,
4630,-0.39,0.77,
4631,-0.375,0.835,
4632,-0.35,0.88,
4633,-0.35,0.93,
4634,-0.355,0.96,
4635,-0.36,1.0,
4636,-0.36,1.05,
4637,-0.345,1.08,
4638,-0.345,1.125,
4639,-0.335,1.15,
4640,-0.33,1.17,
4641,-0.34,1.205,
4642,-0.335,1.24,
4643,-0.34,1.285,
4644,-0.315,1.3,
4645,-0.315,1.335,
4646,-0.32,1.35,
4647,-0.33,1.375,
4648,-0.325,1.435,
4649,-0.31,1.465,
4650,-0.31,1.505,
4651,-0.305,1.535,
4652,-0.315,1.55,
4653,-0.32,1.595,
4654,-0.315,1.635,
4655,-0.305,1.68,
4656,-0.3,1.73,
4657,-0.3,1.75,
4658,-0.3,1.78,
4659,-0.31,1.805,
4660,-0.305,1.855,
4661,-0.28,1.9,
4662,-0.265,1.925,
4663,-0.275,1.95,
4664,-0.28,1.96,
4665,-0.275,1.99,
4666,-0.275,2.015,
4667,-0.255,2.04,
4668,-0.25,2.06,
4669,-0.24,2.06,
4670,-0.235,2.06,
4671,-0.24,2.065,
4672,-0.23,2.065,
4673,-0.21,2.07,
4674,-0.205,2.05,
4675,-0.205,2.03,
4676,-0.205,2.005,
4677,-0.205,1.985,
4678,-0.195,1.95,
4679,-0.185,1.925,
4680,-0.18,1.89,
4681,-0.175,1.83,
4682,-0.18,1.765,
4683,-0.18,1.72,
4684,-0.175,1.66,
4685,-0.17,1.61,
4686,-0.16,1.545,
4687,-0.16,1.47,
4688,-0.155,1.385,
4689,-0.17,1.325,
4690,-0.165,1.265,
4691,-0.155,1.195,
4692,-0.15,1.125,
4693,-0.155,1.045,
4694,-0.165,0.96,
4695,-0.18,0.9,
4696,-0.17,0.83,
4697,-0.17,0.775,
4698,-0.16,0.715,
4699,-0.17,0.655,
4700,-0.185,0.595,
4701,-0.21,0.545,
4702,-0.205,0.495,
4703,-0.205,0.475,
4704,-0.195,0.425,
4705,-0.205,0.38,
4706,-0.22,0.325,
4707,-0.235,0.285,
4708,-0.24,0.275,
4709,-0.235,0.25,
4710,-0.225,0.225,
4711,-0.24,0.195,
4712,-0.26,0.155,
4713,-0.27,0.14,
4714,-0.27,0.13,
4715,-0.27,0.135,
4716,-0.27,0.11,
4717,-0.28,0.09,
4718,-0.28,0.085,
4719,-0.3,0.06,
4720,-0.305,0.075,
4721,-0.295,0.075,
4722,-0.29,0.065,
4723,-0.31,0.065,
4724,-0.31,0.04,
4725,-0.315,0.045,
4726,-0.33,0.045,
4727,-0.31,0.065,
4728,-0.315,0.065,
4729,-0.31,0.055,
4730,-0.315,0.055,
4731,-0.33,0.045,
4732,-0.325,0.06,
4733,-0.31,0.06,
4734,-0.305,0.05,
4735,-0.305,0.05,
4736,-0.32,0.04,
4737,-0.33,0.035,
4738,-0.33,0.055,
4739,-0.33,0.055,
4740,-0.33,0.055,
4741,-0.335,0.045,
4742,-0.34,0.04,
4743,-0.35,0.045,
4744,-0.34,0.05,
4745,-0.33,0.055,
4746,-0.325,0.055,
4747,-0.325,0.04,
4748,-0.33,0.035,
4749,-0.34,0.03,
4750,-0.345,0.03,
4751,-0.34,0.045,
4752,-0.34,0.05,
4753,-0.335,0.04,
4754,-0.355,0.025,
4755,-0.36,0.03,
4756,-0.365,0.03,
4757,-0.345,0.04,
4758,-0.34,0.035,
4759,-0.35,0.03,
4760,-0.355,0.01,
4761,-0.355,0.005,
4762,-0.365,0.025,
4763,-0.35,0.04,
4764,-0.345,0.045,
4765,-0.36,0.03,
4766,-0.355,0.02,
4767,-0.37,0.02,
4768,-0.375,0.03,
4769,-0.365,0.035,
4770,-0.365,0.035,
4771,-0.375,0.035,
4772,-0.38,0.015,
4773,-0.405,0.01,
4774,-0.405,0.015,
4775,-0.4,0.02,
4776,-0.38,0.015,
4777,-0.365,0.01,
4778,-0.375,0.0,
4779,-0.365,-0.015,
4780,-0.37,-0.015,
4781,-0.37,-0.005,
4782,-0.36,-0.025,
4783,-0.345,-0.045,
4784,-0.34,-0.08,
4785,-0.345,-0.1,
4786,-0.34,-0.095,
4787,-0.32,-0.09,
4788,-0.31,-0.095,
4789,-0.32,-0.12,
4790,-0.335,-0.125,
4791,-0.345,-0.135,
4792,-0.335,-0.13,
4793,-0.335,-0.145,
4794,-0.335,-0.14,
4795,-0.325,-0.155,
4796,-0.34,-0.165,
4797,-0.355,-0.18,
4798,-0.35,-0.175,
4799,-0.335,-0.145,
4800,-0.335,-0.14,
4801,-0.345,-0.155,
4802,-0.355,-0.155,
4803,-0.36,-0.145,
4804,-0.38,-0.145,
4805,-0.385,-0.13,
4806,-0.375,-0.145,
4807,-0.39,-0.14,
4808,-0.405,-0.16,
4809,-0.415,-0.155,
4810,-0.405,-0.135,
4811,-0.4,-0.145,
4812,-0.395,-0.145,
4813,-0.385,-0.15,
4814,-0.405,-0.165,
4815,-0.405,-0.16,
4816,-0.41,-0.155,
4817,-0.395,-0.155,
4818,-0.4,-0.15,
4819,-0.405,-0.155,
4820,-0.41,-0.17,
4821,-0.415,-0.17,
4822,-0.405,-0.165,
4823,-0.4,-0.145,
4824,-0.4,-0.16,
4825,-0.395,-0.16,
4826,-0.405,-0.17,
4827,-0.405,-0.165,
4828,-0.415,-0.16,
4829,-0.405,-0.155,
4830,-0.395,-0.155,
4831,-0.395,-0.16,
4832,-0.395,-0.165,
4833,-0.41,-0.17,
4834,-0.405,-0.165,
4835,-0.405,-0.155,
4836,-0.4,-0.155,
4837,-0.39,-0.17,
4838,-0.39,-0.17,
4839,-0.395,-0.175,
4840,-0.4,-0.165,
4841,-0.39,-0.155,
4842,-0.38,-0.15,
4843,-0.38,-0.16,
4844,-0.4,-0.17,
4845,-0.4,-0.175,
4846,-0.4,-0.165,
4847,-0.375,-0.15,
4848,-0.37,-0.16,
4849,-0.375,-0.145,
4850,-0.385,-0.155,
4851,-0.395,-0.16,
4852,-0.4,-0.15,
4853,-0.39,-0.145,
4854,-0.38,-0.12,
4855,-0.37,-0.12,
4856,-0.36,-0.09,
4857,-0.36,0.0,
4858,-0.34,0.245,
4859,-0.305,0.64,
4860,-0.26,0.855,
4861,-0.21,0.72,
4862,-0.1,0.47,
4863,0.19,0.295,
4864,0.53,0.25,
4865,0.63,0.225,
4866,0.425,0.18,/
4867,0.15,0.095,
4868,0.02,0.005,
4869,0.02,-0.1,
4870,0.055,-0.23,
4871,0.07,-0.39,
4872,0.08,-0.585,
4873,0.095,-0.815,
4874,0.095,-1.035,
4875,0.09,-1.265,
4876,0.1,-1.435,
4877,0.115,-1.61,
4878,0.105,-1.765,
4879,0.1,-1.925,
4880,0.08,-2.105,
4881,0.085,-2.295,
4882,0.115,-2.44,
4883,0.13,-2.565,
4884,0.115,-2.665,
4885,0.08,-2.74,
4886,0.05,-2.85,
4887,0.005,-2.95,
4888,-0.04,-3.025,
4889,-0.095,-3.045,
4890,-0.145,-3.08,
4891,-0.21,-3.135,
4892,-0.265,-3.155,
4893,-0.36,-3.195,
4894,-0.465,-3.19,
4895,-0.525,-3.18,
4896,-0.57,-3.19,
4897,-0.555,-3.195,
4898,-0.515,-3.18,
4899,-0.5,-3.15,
4900,-0.485,-3.105,
4901,-0.495,-3.035,
4902,-0.495,-2.93,
4903,-0.495,-2.82,
4904,-0.52,-2.72,
4905,-0.525,-2.575,
4906,-0.52,-2.425,
4907,-0.51,-2.255,
4908,-0.485,-2.03,
4909,-0.48,-1.79,
4910,-0.475,-1.565,
4911,-0.46,-1.325,
4912,-0.455,-1.07,
4913,-0.45,-0.825,
4914,-0.45,-0.62,
4915,-0.45,-0.415,
4916,-0.465,-0.225,
4917,-0.485,-0.05,
4918,-0.495,0.125,
4919,-0.485,0.29,
4920,-0.46,0.43,
4921,-0.485,0.575,
4922,-0.46,0.67,
4923,-0.46,0.75,
4924,-0.45,0.835,
4925,-0.44,0.91,
4926,-0.42,0.96,
4927,-0.415,0.99,
4928,-0.405,1.035,
4929,-0.415,1.075,
4930,-0.395,1.13,
4931,-0.39,1.165,
4932,-0.38,1.205,
4933,-0.385,1.245,
4934,-0.39,1.28,
4935,-0.395,1.315,
4936,-0.39,1.355,
4937,-0.375,1.415,
4938,-0.37,1.445,
4939,-0.355,1.48,
4940,-0.365,1.51,
4941,-0.38,1.555,
4942,-0.375,1.605,
4943,-0.38,1.66,
4944,-0.35,1.69,
4945,-0.35,1.73,
4946,-0.36,1.77,
4947,-0.37,1.815,
4948,-0.365,1.855,
4949,-0.345,1.915,
4950,-0.345,1.94,
4951,-0.35,1.965,
4952,-0.345,2.005,
4953,-0.36,2.045,
4954,-0.345,2.085,
4955,-0.325,2.13,
4956,-0.325,2.145,
4957,-0.32,2.17,
4958,-0.32,2.18,
4959,-0.325,2.19,
4960,-0.3,2.215,
4961,-0.295,2.24,
4962,-0.295,2.235,
4963,-0.295,2.235,
4964,-0.295,2.225,
4965,-0.3,2.215,
4966,-0.28,2.22,
4967,-0.245,2.22,
4968,-0.23,2.19,
4969,-0.225,2.155,
4970,-0.23,2.13,
4971,-0.225,2.085,
4972,-0.225,2.065,
4973,-0.225,2.015,
4974,-0.21,1.975,
4975,-0.2,1.925,
4976,-0.22,1.87,
4977,-0.23,1.805,
4978,-0.21,1.745,
4979,-0.205,1.69,
4980,-0.205,1.63,
4981,-0.195,1.555,
4982,-0.2,1.495,
4983,-0.215,1.405,
4984,-0.205,1.36,
4985,-0.19,1.295,
4986,-0.19,1.215,
4987,-0.195,1.145,
4988,-0.205,1.065,
4989,-0.2,1.005,
4990,-0.19,0.965,
4991,-0.19,0.895,
4992,-0.185,0.83,
4993,-0.205,0.78,
4994,-0.21,0.705,
4995,-0.225,0.66,
4996,-0.215,0.61,
4997,-0.225,0.56,
4998,-0.23,0.52,
4999,-0.25,0.465,
5000,-0.245,0.42,
5001,-0.25,0.375,
5002,-0.255,0.345,
5003,-0.26,0.32,
5004,-0.25,0.29,
5005,-0.25,0.26,
5006,-0.275,0.23,
5007,-0.275,0.2,
5008,-0.27,0.19,
5009,-0.27,0.185,
5010,-0.265,0.16,
5011,-0.27,0.14,
5012,-0.27,0.12,
5013,-0.28,0.11,
5014,-0.28,0.105,
5015,-0.3,0.1,
5016,-0.285,0.085,
5017,-0.295,0.065,
5018,-0.305,0.05,
5019,-0.31,0.045,
5020,-0.3,0.045,
5021,-0.285,0.05,
5022,-0.28,0.04,
5023,-0.295,0.04,
5024,-0.285,0.02,
5025,-0.31,0.015,
5026,-0.305,0.015,
5027,-0.31,0.02,
5028,-0.295,0.01,
5029,-0.285,0.01,
5030,-0.3,0.015,
5031,-0.315,0.0,
5032,-0.305,0.01,
5033,-0.295,0.025,
5034,-0.27,0.015,
5035,-0.285,0.005,
5036,-0.28,0.0,
5037,-0.29,0.005,
5038,-0.275,0.005,
5039,-0.28,0.005,
5040,-0.265,0.015,
5041,-0.27,0.01,
5042,-0.28,0.005,
5043,-0.29,0.0,
5044,-0.285,0.015,
5045,-0.29,0.035,
5046,-0.29,0.02,
5047,-0.31,0.03,
5048,-0.305,0.015,
5049,-0.305,0.015,
5050,-0.305,0.035,
5051,-0.305,0.035,
5052,-0.305,0.045,
5053,-0.305,0.03,
5054,-0.32,0.03,
5055,-0.305,0.025,
5056,-0.295,0.035,
5057,-0.28,0.05,
5058,-0.28,0.035,
5059,-0.295,0.025,
5060,-0.31,0.01,
5061,-0.325,0.01,
5062,-0.31,0.025,
5063,-0.31,0.025,
5064,-0.31,0.02,
5065,-0.33,0.02,
5066,-0.32,-0.005,
5067,-0.32,0.0,
5068,-0.32,0.005,
5069,-0.31,0.02,
5070,-0.295,0.0,
5071,-0.3,-0.005,
5072,-0.3,-0.015,
5073,-0.315,-0.02,
5074,-0.32,-0.015,
5075,-0.31,-0.01,
5076,-0.31,-0.015,
5077,-0.315,-0.035,
5078,-0.325,-0.04,
5079,-0.34,-0.045,
5080,-0.335,-0.04,
5081,-0.33,-0.05,
5082,-0.32,-0.04,
5083,-0.33,-0.05,
5084,-0.325,-0.065,
5085,-0.35,-0.075,
5086,-0.335,-0.08,
5087,-0.335,-0.07,
5088,-0.325,-0.075,
5089,-0.31,-0.085,
5090,-0.315,-0.1,
5091,-0.315,-0.095,
5092,-0.305,-0.095,
5093,-0.3,-0.08,
5094,-0.285,-0.09,
5095,-0.315,-0.095,
5096,-0.31,-0.11,
5097,-0.33,-0.115,
5098,-0.315,-0.11,
5099,-0.315,-0.11,
5100,-0.3,-0.115,
5101,-0.3,-0.125,
5102,-0.31,-0.14,
5103,-0.325,-0.135,
5104,-0.32,-0.14,
5105,-0.325,-0.12,
5106,-0.335,-0.135,
5107,-0.345,-0.14,
5108,-0.36,-0.135,
5109,-0.365,-0.145,
5110,-0.355,-0.14,
5111,-0.32,-0.13,
5112,-0.3,-0.13,
5113,-0.29,-0.135,
5114,-0.295,-0.14,
5115,-0.305,-0.155,
5116,-0.305,-0.14,
5117,-0.3,-0.145,
5118,-0.29,-0.135,
5119,-0.31,-0.15,
5120,-0.31,-0.155,
5121,-0.305,-0.155,
5122,-0.3,-0.15,
5123,-0.285,-0.125,
5124,-0.295,-0.115,
5125,-0.305,-0.12,
5126,-0.31,-0.12,
5127,-0.325,-0.105,
5128,-0.335,-0.1,
5129,-0.31,-0.09,
5130,-0.3,-0.1,
5131,-0.31,-0.1,
5132,-0.315,-0.105,
5133,-0.32,-0.12,
5134,-0.33,-0.115,
5135,-0.31,-0.1,
5136,-0.295,-0.105,
5137,-0.29,-0.115,
5138,-0.285,-0.115,
5139,-0.295,-0.13,
5140,-0.27,-0.125,
5141,-0.255,-0.11,
5142,-0.235,-0.13,
5143,-0.24,-0.155,
5144,-0.245,-0.165,
5145,-0.235,-0.18,
5146,-0.23,-0.17,
5147,-0.205,-0.175,
5148,-0.205,-0.18,
5149,-0.215,-0.19,
5150,-0.22,-0.195,
5151,-0.23,-0.2,
5152,-0.22,-0.185,
5153,-0.215,-0.175,
5154,-0.2,-0.155,
5155,-0.2,-0.105,
5156,-0.195,0.05,
5157,-0.185,0.405,
5158,-0.15,0.805,
5159,-0.085,0.91,
5160,-0.01,0.685,
5161,0.195,0.43,
5162,0.55,0.305,
5163,0.865,0.255,
5164,0.89,0.22,/
5165,0.61,0.165,
5166,0.33,0.105,
5167,0.185,0.02,
5168,0.165,-0.085,
5169,0.155,-0.215,
5170,0.18,-0.355,
5171,0.185,-0.51,
5172,0.19,-0.72,
5173,0.205,-0.94,
5174,0.19,-1.145,
5175,0.205,-1.32,
5176,0.215,-1.45,
5177,0.225,-1.58,
5178,0.23,-1.725,
5179,0.23,-1.915,
5180,0.245,-2.12,
5181,0.245,-2.305,
5182,0.25,-2.44,
5183,0.26,-2.54,
5184,0.24,-2.64,
5185,0.215,-2.715,
5186,0.18,-2.825,
5187,0.14,-2.905,
5188,0.11,-2.955,
5189,0.07,-2.995,
5190,0.015,-3.045,
5191,-0.045,-3.095,
5192,-0.135,-3.145,
5193,-0.25,-3.145,
5194,-0.36,-3.16,
5195,-0.44,-3.17,
5196,-0.475,-3.18,
5197,-0.47,-3.185,
5198,-0.45,-3.195,
5199,-0.445,-3.155,
5200,-0.435,-3.105,
5201,-0.445,-3.015,
5202,-0.46,-2.9,
5203,-0.49,-2.765,
5204,-0.52,-2.63,
5205,-0.515,-2.455,
5206,-0.505,-2.25,
5207,-0.47,-2.015,
5208,-0.425,-1.785,
5209,-0.4,-1.555,
5210,-0.37,-1.315,
5211,-0.37,-1.055,
5212,-0.365,-0.82,
5213,-0.38,-0.61,
5214,-0.375,-0.41,
5215,-0.385,-0.22,
5216,-0.39,-0.05,
5217,-0.39,0.12,
5218,-0.39,0.28,
5219,-0.37,0.425,
5220,-0.36,0.53,
5221,-0.36,0.63,
5222,-0.36,0.675,
5223,-0.355,0.73,
5224,-0.345,0.78,
5225,-0.335,0.84,
5226,-0.32,0.885,
5227,-0.315,0.925,
5228,-0.32,0.955,
5229,-0.33,0.985,
5230,-0.315,1.035,
5231,-0.305,1.08,
5232,-0.29,1.115,
5233,-0.285,1.14,
5234,-0.29,1.17,
5235,-0.305,1.2,
5236,-0.295,1.255,
5237,-0.28,1.29,
5238,-0.26,1.325,
5239,-0.26,1.365,
5240,-0.265,1.4,
5241,-0.275,1.43,
5242,-0.27,1.485,
5243,-0.25,1.53,
5244,-0.245,1.575,
5245,-0.245,1.595,
5246,-0.25,1.625,
5247,-0.265,1.665,
5248,-0.25,1.71,
5249,-0.235,1.745,
5250,-0.225,1.79,
5251,-0.225,1.815,
5252,-0.23,1.84,
5253,-0.24,1.87,
5254,-0.225,1.91,
5255,-0.22,1.95,
5256,-0.215,1.975,
5257,-0.215,1.98,
5258,-0.215,1.99,
5259,-0.22,2.0,
5260,-0.195,2.02,
5261,-0.205,2.045,
5262,-0.185,2.035,
5263,-0.175,2.02,
5264,-0.18,2.02,
5265,-0.175,1.995,
5266,-0.165,2.0,
5267,-0.155,1.995,
5268,-0.15,1.955,
5269,-0.14,1.915,
5270,-0.145,1.875,
5271,-0.14,1.825,
5272,-0.145,1.795,
5273,-0.125,1.745,
5274,-0.115,1.685,
5275,-0.125,1.635,
5276,-0.13,1.575,
5277,-0.135,1.505,
5278,-0.135,1.46,
5279,-0.115,1.41,
5280,-0.12,1.33,
5281,-0.13,1.255,
5282,-0.13,1.185,
5283,-0.15,1.115,
5284,-0.15,1.065,
5285,-0.135,1.025,
5286,-0.135,0.95,
5287,-0.15,0.885,
5288,-0.155,0.83,
5289,-0.16,0.77,
5290,-0.175,0.705,
5291,-0.16,0.67,
5292,-0.165,0.62,
5293,-0.175,0.56,
5294,-0.195,0.525,
5295,-0.205,0.455,
5296,-0.195,0.425,
5297,-0.195,0.405,
5298,-0.205,0.36,
5299,-0.215,0.305,
5300,-0.225,0.28,
5301,-0.255,0.25,
5302,-0.245,0.24,
5303,-0.24,0.21,
5304,-0.235,0.185,
5305,-0.245,0.16,
5306,-0.25,0.125,
5307,-0.265,0.12,
5308,-0.265,0.115,
5309,-0.26,0.1,
5310,-0.25,0.09,
5311,-0.255,0.06,
5312,-0.27,0.04,
5313,-0.285,0.03,
5314,-0.285,0.025,
5315,-0.285,0.025,
5316,-0.275,0.015,
5317,-0.285,0.015,
5318,-0.28,-0.005,
5319,-0.3,-0.015,
5320,-0.295,-0.01,
5321,-0.285,-0.01,
5322,-0.285,-0.01,
5323,-0.29,-0.025,
5324,-0.3,-0.03,
5325,-0.31,-0.025,
5326,-0.31,-0.015,
5327,-0.28,-0.02,
5328,-0.285,-0.025,
5329,-0.295,-0.03,
5330,-0.3,-0.04,
5331,-0.3,-0.03,
5332,-0.305,-0.025,
5333,-0.29,-0.01,
5334,-0.28,-0.02,
5335,-0.29,-0.03,
5336,-0.3,-0.045,
5337,-0.3,-0.025,
5338,-0.295,-0.015,
5339,-0.29,-0.005,
5340,-0.295,-0.01,
5341,-0.29,-0.01,
5342,-0.3,-0.01,
5343,-0.305,-0.005,
5344,-0.3,0.01,
5345,-0.285,0.01,
5346,-0.28,0.0,
5347,-0.29,-0.015,
5348,-0.3,-0.01,
5349,-0.305,0.0,
5350,-0.3,-0.005,
5351,-0.29,0.02,
5352,-0.285,0.01,
5353,-0.29,0.005,
5354,-0.305,-0.005,
5355,-0.315,0.0,
5356,-0.3,0.01,
5357,-0.29,0.02,
5358,-0.295,0.015,
5359,-0.3,0.01,
5360,-0.3,-0.005,
5361,-0.32,-0.02,
5362,-0.315,-0.005,
5363,-0.3,0.005,
5364,-0.29,-0.005,
5365,-0.295,-0.015,
5366,-0.315,-0.015,
5367,-0.32,-0.02,
5368,-0.31,-0.02,
5369,-0.31,-0.01,
5370,-0.3,-0.035,
5371,-0.31,-0.03,
5372,-0.325,-0.03,
5373,-0.335,-0.04,
5374,-0.325,-0.04,
5375,-0.325,-0.04,
5376,-0.325,-0.05,
5377,-0.32,-0.055,
5378,-0.325,-0.065,
5379,-0.345,-0.08,
5380,-0.34,-0.07,
5381,-0.335,-0.07,
5382,-0.325,-0.07,
5383,-0.33,-0.09,
5384,-0.34,-0.105,
5385,-0.355,-0.1,
5386,-0.345,-0.1,
5387,-0.35,-0.095,
5388,-0.345,-0.09,
5389,-0.35,-0.12,
5390,-0.36,-0.125,
5391,-0.365,-0.125,
5392,-0.36,-0.12,
5393,-0.36,-0.11,
5394,-0.35,-0.12,
5395,-0.355,-0.125,
5396,-0.37,-0.14,
5397,-0.375,-0.14,
5398,-0.365,-0.135,
5399,-0.365,-0.14,
5400,-0.365,-0.13,
5401,-0.36,-0.155,
5402,-0.375,-0.16,
5403,-0.38,-0.15,
5404,-0.38,-0.14,
5405,-0.37,-0.135,
5406,-0.355,-0.15,
5407,-0.365,-0.155,
5408,-0.38,-0.16,
5409,-0.375,-0.16,
5410,-0.37,-0.16,
5411,-0.37,-0.155,
5412,-0.355,-0.15,
5413,-0.37,-0.165,
5414,-0.375,-0.17,
5415,-0.385,-0.17,
5416,-0.365,-0.16,
5417,-0.37,-0.16,
5418,-0.37,-0.17,
5419,-0.355,-0.185,
5420,-0.385,-0.185,
5421,-0.395,-0.18,
5422,-0.375,-0.175,
5423,-0.375,-0.17,
5424,-0.37,-0.18,
5425,-0.36,-0.18,
5426,-0.38,-0.185,
5427,-0.38,-0.19,
5428,-0.385,-0.175,
5429,-0.375,-0.165,
5430,-0.375,-0.18,
5431,-0.37,-0.185,
5432,-0.38,-0.2,
5433,-0.38,-0.195,
5434,-0.375,-0.19,
5435,-0.38,-0.175,
5436,-0.365,-0.185,
5437,-0.37,-0.19,
5438,-0.375,-0.19,
5439,-0.385,-0.2,
5440,-0.37,-0.19,
5441,-0.375,-0.17,
5442,-0.365,-0.175,
5443,-0.37,-0.19,
5444,-0.385,-0.18,
5445,-0.38,-0.18,
5446,-0.38,-0.175,
5447,-0.365,-0.16,
5448,-0.355,-0.15,
5449,-0.355,-0.145,
5450,-0.355,-0.15,
5451,-0.375,-0.15,
5452,-0.37,-0.12,
5453,-0.36,-0.095,
5454,-0.36,-0.09,
5455,-0.355,-0.095,
5456,-0.35,-0.06,
5457,-0.365,0.02,
5458,-0.345,0.275,
5459,-0.28,0.66,
5460,-0.22,0.895,
5461,-0.135,0.8,
5462,0.03,0.54,
5463,0.365,0.38,
5464,0.755,0.32,
5465,0.895,0.28,
5466,0.665,0.22,/
5467,0.315,0.135,
5468,0.11,0.04,
5469,0.06,-0.08,
5470,0.085,-0.235,
5471,0.13,-0.39,
5472,0.135,-0.595,
5473,0.125,-0.845,
5474,0.12,-1.09,
5475,0.12,-1.295,
5476,0.15,-1.46,
5477,0.175,-1.6,
5478,0.16,-1.74,
5479,0.14,-1.89,
5480,0.095,-2.055,
5481,0.085,-2.225,
5482,0.095,-2.405,
5483,0.085,-2.565,
5484,0.06,-2.695,
5485,0.005,-2.79,
5486,-0.045,-2.885,
5487,-0.09,-2.985,
5488,-0.135,-3.08,
5489,-0.19,-3.115,
5490,-0.235,-3.145,
5491,-0.3,-3.18,
5492,-0.355,-3.21,
5493,-0.415,-3.23,
5494,-0.475,-3.235,
5495,-0.555,-3.23,
5496,-0.615,-3.23,
5497,-0.63,-3.24,
5498,-0.61,-3.235,
5499,-0.57,-3.215,
5500,-0.51,-3.165,
5501,-0.45,-3.11,
5502,-0.425,-3.035,
5503,-0.42,-2.925,
5504,-0.435,-2.81,
5505,-0.46,-2.675,
5506,-0.465,-2.525,
5507,-0.45,-2.33,
5508,-0.445,-2.125,
5509,-0.435,-1.91,
5510,-0.425,-1.675,
5511,-0.405,-1.44,
5512,-0.39,-1.185,
5513,-0.395,-0.96,
5514,-0.405,-0.77,
5515,-0.435,-0.57,
5516,-0.45,-0.395,
5517,-0.465,-0.21,
5518,-0.45,-0.04,
5519,-0.455,0.135,
5520,-0.455,0.28,
5521,-0.47,0.415,
5522,-0.465,0.505,
5523,-0.46,0.59,
5524,-0.445,0.68,
5525,-0.435,0.73,
5526,-0.435,0.785,
5527,-0.43,0.81,
5528,-0.435,0.845,
5529,-0.435,0.89,
5530,-0.425,0.93,
5531,-0.41,0.99,
5532,-0.41,1.03,
5533,-0.405,1.045,
5534,-0.415,1.085,
5535,-0.415,1.105,
5536,-0.4,1.155,
5537,-0.39,1.205,
5538,-0.39,1.24,
5539,-0.385,1.265,
5540,-0.39,1.285,
5541,-0.39,1.32,
5542,-0.385,1.38,
5543,-0.375,1.41,
5544,-0.37,1.455,
5545,-0.38,1.485,
5546,-0.38,1.51,
5547,-0.375,1.55,
5548,-0.37,1.59,
5549,-0.36,1.645,
5550,-0.35,1.665,
5551,-0.345,1.675,
5552,-0.35,1.715,
5553,-0.36,1.74,
5554,-0.35,1.79,
5555,-0.345,1.82,
5556,-0.33,1.855,
5557,-0.335,1.88,
5558,-0.34,1.89,
5559,-0.345,1.915,
5560,-0.33,1.945,
5561,-0.315,1.98,
5562,-0.31,1.995,
5563,-0.305,1.99,
5564,-0.31,2.0,
5565,-0.315,1.995,
5566,-0.3,2.015,
5567,-0.28,2.02,
5568,-0.275,2.01,
5569,-0.275,1.98,
5570,-0.265,1.965,
5571,-0.275,1.945,
5572,-0.265,1.935,
5573,-0.25,1.92,
5574,-0.24,1.87,
5575,-0.24,1.815,
5576,-0.25,1.765,
5577,-0.25,1.725,
5578,-0.245,1.69,
5579,-0.23,1.64,
5580,-0.225,1.585,
5581,-0.23,1.515,
5582,-0.23,1.45,
5583,-0.235,1.39,
5584,-0.225,1.335,
5585,-0.22,1.29,
5586,-0.21,1.205,
5587,-0.21,1.14,
5588,-0.22,1.075,
5589,-0.235,0.99,
5590,-0.23,0.955,
5591,-0.215,0.91,
5592,-0.225,0.845,
5593,-0.225,0.78,
5594,-0.24,0.715,
5595,-0.255,0.66,
5596,-0.25,0.615,
5597,-0.235,0.585,
5598,-0.245,0.52,
5599,-0.245,0.48,
5600,-0.265,0.42,
5601,-0.28,0.37,
5602,-0.275,0.345,
5603,-0.275,0.33,
5604,-0.265,0.285,
5605,-0.285,0.245,
5606,-0.29,0.215,
5607,-0.295,0.19,
5608,-0.295,0.185,
5609,-0.295,0.165,
5610,-0.295,0.13,
5611,-0.3,0.105,
5612,-0.305,0.09,
5613,-0.315,0.055,
5614,-0.31,0.05,
5615,-0.31,0.055,
5616,-0.305,0.04,
5617,-0.315,0.02,
5618,-0.32,-0.005,
5619,-0.33,-0.015,
5620,-0.325,-0.005,
5621,-0.32,0.0,
5622,-0.32,-0.01,
5623,-0.325,-0.015,
5624,-0.315,-0.02,
5625,-0.33,-0.035,
5626,-0.325,-0.025,
5627,-0.32,-0.005,
5628,-0.31,-0.015,
5629,-0.31,-0.02,
5630,-0.32,-0.035,
5631,-0.33,-0.02,
5632,-0.32,-0.01,
5633,-0.31,-0.01,
5634,-0.315,-0.005,
5635,-0.31,-0.015,
5636,-0.325,-0.02,
5637,-0.325,-0.02,
5638,-0.32,0.0,
5639,-0.32,0.01,
5640,-0.31,0.0,
5641,-0.32,0.015,
5642,-0.32,-0.005,
5643,-0.33,0.0,
5644,-0.31,0.015,
5645,-0.315,0.03,
5646,-0.3,0.025,
5647,-0.315,0.015,
5648,-0.32,-0.005,
5649,-0.325,-0.01,
5650,-0.32,0.01,
5651,-0.315,0.025,
5652,-0.315,0.015,
5653,-0.32,0.005,
5654,-0.335,0.0,
5655,-0.335,-0.02,
5656,-0.345,-0.005,
5657,-0.325,0.015,
5658,-0.335,-0.005,
5659,-0.335,-0.005,
5660,-0.335,-0.02,
5661,-0.34,-0.02,
5662,-0.34,-0.015,
5663,-0.33,-0.01,
5664,-0.32,-0.005,
5665,-0.33,-0.03,
5666,-0.335,-0.045,
5667,-0.35,-0.045,
5668,-0.36,-0.03,
5669,-0.35,-0.03,
5670,-0.34,-0.05,
5671,-0.34,-0.06,
5672,-0.35,-0.075,
5673,-0.355,-0.095,
5674,-0.355,-0.07,
5675,-0.345,-0.07,
5676,-0.35,-0.07,
5677,-0.355,-0.09,
5678,-0.35,-0.09,
5679,-0.37,-0.105,
5680,-0.37,-0.1,
5681,-0.35,-0.1,
5682,-0.35,-0.105,
5683,-0.355,-0.12,
5684,-0.365,-0.12,
5685,-0.365,-0.13,
5686,-0.375,-0.115,
5687,-0.37,-0.115,
5688,-0.36,-0.125,
5689,-0.37,-0.135,
5690,-0.38,-0.14,
5691,-0.39,-0.155,
5692,-0.38,-0.15,
5693,-0.375,-0.145,
5694,-0.375,-0.155,
5695,-0.375,-0.155,
5696,-0.375,-0.155,
5697,-0.395,-0.165,
5698,-0.38,-0.16,
5699,-0.37,-0.15,
5700,-0.375,-0.17,
5701,-0.37,-0.17,
5702,-0.38,-0.185,
5703,-0.39,-0.19,
5704,-0.385,-0.17,
5705,-0.375,-0.18,
5706,-0.385,-0.185,
5707,-0.38,-0.175,
5708,-0.38,-0.195,
5709,-0.39,-0.195,
5710,-0.39,-0.2,
5711,-0.38,-0.185,
5712,-0.38,-0.18,
5713,-0.385,-0.19,
5714,-0.39,-0.21,
5715,-0.4,-0.2,
5716,-0.39,-0.19,
5717,-0.38,-0.185,
5718,-0.38,-0.195,
5719,-0.375,-0.205,
5720,-0.39,-0.215,
5721,-0.4,-0.205,
5722,-0.395,-0.2,
5723,-0.385,-0.19,
5724,-0.375,-0.205,
5725,-0.38,-0.21,
5726,-0.395,-0.205,
5727,-0.405,-0.22,
5728,-0.4,-0.215,
5729,-0.395,-0.19,
5730,-0.37,-0.2,
5731,-0.395,-0.205,
5732,-0.39,-0.21,
5733,-0.415,-0.22,
5734,-0.39,-0.205,
5735,-0.39,-0.205,
5736,-0.385,-0.21,
5737,-0.385,-0.205,
5738,-0.395,-0.22,
5739,-0.4,-0.225,
5740,-0.395,-0.22,
5741,-0.385,-0.205,
5742,-0.385,-0.215,
5743,-0.38,-0.22,
5744,-0.39,-0.23,
5745,-0.4,-0.225,
5746,-0.39,-0.22,
5747,-0.385,-0.195,
5748,-0.375,-0.22,
5749,-0.38,-0.22,
5750,-0.385,-0.22,
5751,-0.39,-0.22,
5752,-0.38,-0.205,
5753,-0.375,-0.21,
5754,-0.365,-0.205,
5755,-0.365,-0.2,
5756,-0.36,-0.205,
5757,-0.37,-0.195,
5758,-0.365,-0.145,
5759,-0.33,-0.075,
5760,-0.34,0.105,
5761,-0.305,0.47,
5762,-0.27,0.765,
5763,-0.225,0.73,
5764,-0.11,0.5,
5765,0.155,0.34,
5766,0.525,0.265,
5767,0.73,0.21,
5768,0.63,0.165,/
5769,0.325,0.095,
5770,0.115,0.035,
5771,0.04,-0.055,
5772,0.05,-0.2,
5773,0.055,-0.355,
5774,0.05,-0.51,
5775,0.045,-0.69,
5776,0.04,-0.9,
5777,0.05,-1.105,
5778,0.06,-1.315,
5779,0.07,-1.47,
5780,0.085,-1.63,
5781,0.06,-1.785,
5782,0.055,-1.94,
5783,0.055,-2.125,
5784,0.045,-2.365,
5785,0.045,-2.565,
5786,0.025,-2.72,
5787,-0.01,-2.825,
5788,-0.03,-2.91,
5789,-0.045,-2.99,
5790,-0.09,-3.085,
5791,-0.13,-3.15,
5792,-0.195,-3.18,
5793,-0.26,-3.21,
5794,-0.31,-3.21,
5795,-0.37,-3.215,
5796,-0.445,-3.245,
5797,-0.54,-3.25,
5798,-0.63,-3.265,
5799,-0.69,-3.255,
5800,-0.68,-3.245,
5801,-0.635,-3.225,
5802,-0.59,-3.22,
5803,-0.555,-3.205,
5804,-0.53,-3.17,
5805,-0.515,-3.09,
5806,-0.505,-3.0,
5807,-0.495,-2.87,
5808,-0.485,-2.73,
5809,-0.475,-2.585,
5810,-0.48,-2.4,
5811,-0.47,-2.195,
5812,-0.45,-1.98,
5813,-0.425,-1.75,
5814,-0.375,-1.51,
5815,-0.365,-1.3,
5816,-0.37,-1.095,
5817,-0.395,-0.89,
5818,-0.415,-0.69,
5819,-0.405,-0.51,
5820,-0.415,-0.32,
5821,-0.43,-0.145,
5822,-0.445,0.015,
5823,-0.47,0.165,
5824,-0.465,0.33,
5825,-0.44,0.46,
5826,-0.44,0.545,
5827,-0.445,0.625,
5828,-0.44,0.675,
5829,-0.445,0.72,
5830,-0.435,0.77,
5831,-0.43,0.815,
5832,-0.415,0.85,
5833,-0.43,0.885,
5834,-0.425,0.905,
5835,-0.435,0.94,
5836,-0.425,0.975,
5837,-0.42,1.025,
5838,-0.405,1.055,
5839,-0.415,1.06,
5840,-0.41,1.085,
5841,-0.415,1.12,
5842,-0.395,1.16,
5843,-0.4,1.195,
5844,-0.395,1.215,
5845,-0.4,1.24,
5846,-0.415,1.27,
5847,-0.42,1.295,
5848,-0.395,1.335,
5849,-0.4,1.38,
5850,-0.395,1.41,
5851,-0.39,1.445,
5852,-0.41,1.47,
5853,-0.4,1.505,
5854,-0.395,1.54,
5855,-0.395,1.585,
5856,-0.39,1.615,
5857,-0.395,1.64,
5858,-0.375,1.665,
5859,-0.375,1.705,
5860,-0.36,1.74,
5861,-0.35,1.785,
5862,-0.34,1.81,
5863,-0.345,1.83,
5864,-0.34,1.85,
5865,-0.345,1.87,
5866,-0.34,1.9,
5867,-0.315,1.93,
5868,-0.31,1.94,
5869,-0.3,1.955,
5870,-0.31,1.96,
5871,-0.31,1.975,
5872,-0.3,1.99,
5873,-0.28,2.005,
5874,-0.27,1.995,
5875,-0.27,1.99,
5876,-0.27,1.975,
5877,-0.27,1.96,
5878,-0.26,1.97,
5879,-0.25,1.96,
5880,-0.24,1.935,
5881,-0.25,1.905,
5882,-0.25,1.88,
5883,-0.255,1.845,
5884,-0.245,1.815,
5885,-0.225,1.785,
5886,-0.23,1.725,
5887,-0.215,1.685,
5888,-0.225,1.63,
5889,-0.22,1.575,
5890,-0.205,1.535,
5891,-0.2,1.49,
5892,-0.185,1.425,
5893,-0.19,1.355,
5894,-0.2,1.295,
5895,-0.22,1.23,
5896,-0.21,1.165,
5897,-0.195,1.13,
5898,-0.2,1.05,
5899,-0.2,0.975,
5900,-0.205,0.915,
5901,-0.21,0.85,
5902,-0.21,0.8,
5903,-0.205,0.755,
5904,-0.195,0.695,
5905,-0.205,0.625,
5906,-0.23,0.58,
5907,-0.24,0.53,
5908,-0.225,0.48,
5909,-0.235,0.45,
5910,-0.24,0.41,
5911,-0.255,0.36,
5912,-0.25,0.32,
5913,-0.27,0.28,
5914,-0.265,0.265,
5915,-0.26,0.24,
5916,-0.265,0.205,
5917,-0.265,0.175,
5918,-0.285,0.145,
5919,-0.28,0.125,
5920,-0.28,0.12,
5921,-0.26,0.115,
5922,-0.255,0.085,
5923,-0.265,0.065,
5924,-0.27,0.045,
5925,-0.27,0.035,
5926,-0.275,0.03,
5927,-0.275,0.035,
5928,-0.275,0.025,
5929,-0.285,0.02,
5930,-0.295,-0.005,
5931,-0.31,-0.015,
5932,-0.295,-0.01,
5933,-0.29,-0.005,
5934,-0.295,-0.01,
5935,-0.285,-0.005,
5936,-0.28,-0.03,
5937,-0.295,-0.025,
5938,-0.295,-0.01,
5939,-0.285,0.0,
5940,-0.295,-0.015,
5941,-0.3,-0.02,
5942,-0.3,-0.035,
5943,-0.31,-0.02,
5944,-0.305,-0.01,
5945,-0.295,-0.01,
5946,-0.295,-0.01,
5947,-0.295,-0.005,
5948,-0.3,-0.01,
5949,-0.315,-0.015,
5950,-0.305,0.0,
5951,-0.29,0.01,
5952,-0.295,0.0,
5953,-0.29,-0.005,
5954,-0.3,-0.015,
5955,-0.305,-0.01,
5956,-0.31,0.0,
5957,-0.295,0.01,
5958,-0.285,0.005,
5959,-0.29,-0.005,
5960,-0.29,-0.015,
5961,-0.315,-0.015,
5962,-0.305,0.0,
5963,-0.305,0.01,
5964,-0.305,0.0,
5965,-0.305,-0.01,
5966,-0.295,-0.015,
5967,-0.3,-0.015,
5968,-0.285,-0.02,
5969,-0.28,0.0,
5970,-0.285,-0.01,
5971,-0.295,-0.025,
5972,-0.32,-0.03,
5973,-0.335,-0.045,
5974,-0.315,-0.035,
5975,-0.315,-0.025,
5976,-0.315,-0.04,
5977,-0.325,-0.035,
5978,-0.32,-0.06,
5979,-0.325,-0.065,
5980,-0.31,-0.065,
5981,-0.3,-0.055,
5982,-0.305,-0.07,
5983,-0.315,-0.085,
5984,-0.33,-0.085,
5985,-0.345,-0.085,
5986,-0.335,-0.085,
5987,-0.325,-0.07,
5988,-0.32,-0.085,
5989,-0.32,-0.1,
5990,-0.34,-0.11,
5991,-0.345,-0.11,
5992,-0.345,-0.105,
5993,-0.325,-0.105,
5994,-0.335,-0.12,
5995,-0.345,-0.12,
5996,-0.35,-0.135,
5997,-0.36,-0.14,
5998,-0.34,-0.125,
5999,-0.335,-0.13,
6000,-0.33,-0.125,
6001,-0.335,-0.145,
6002,-0.345,-0.155,
6003,-0.37,-0.15,
6004,-0.355,-0.16,
6005,-0.34,-0.14,
6006,-0.335,-0.15,
6007,-0.35,-0.15,
6008,-0.355,-0.17,
6009,-0.35,-0.17,
6010,-0.35,-0.16,
6011,-0.34,-0.16,
6012,-0.34,-0.16,
6013,-0.345,-0.17,
6014,-0.345,-0.18,
6015,-0.35,-0.185,
6016,-0.34,-0.18,
6017,-0.325,-0.17,
6018,-0.32,-0.165,
6019,-0.32,-0.18,
6020,-0.325,-0.185,
6021,-0.345,-0.195,
6022,-0.33,-0.18,
6023,-0.335,-0.16,
6024,-0.33,-0.18,
6025,-0.335,-0.185,
6026,-0.355,-0.185,
6027,-0.37,-0.185,
6028,-0.345,-0.19,
6029,-0.35,-0.175,
6030,-0.335,-0.19,
6031,-0.35,-0.19,
6032,-0.35,-0.2,
6033,-0.375,-0.195,
6034,-0.355,-0.185,
6035,-0.36,-0.175,
6036,-0.35,-0.18,
6037,-0.345,-0.19,
6038,-0.34,-0.195,
6039,-0.335,-0.2,
6040,-0.33,-0.19,
6041,-0.31,-0.185,
6042,-0.315,-0.185,
6043,-0.315,-0.195,
6044,-0.325,-0.205,
6045,-0.33,-0.19,
6046,-0.32,-0.18,
6047,-0.32,-0.175,
6048,-0.33,-0.18,
6049,-0.325,-0.19,
6050,-0.335,-0.205,
6051,-0.32,-0.215,
6052,-0.32,-0.195,
6053,-0.32,-0.185,
6054,-0.305,-0.19,
6055,-0.32,-0.205,
6056,-0.325,-0.215,
6057,-0.34,-0.21,
6058,-0.33,-0.205,
6059,-0.32,-0.19,
6060,-0.315,-0.205,
6061,-0.32,-0.21,
6062,-0.33,-0.205,
6063,-0.325,-0.21,
6064,-0.315,-0.195,
6065,-0.305,-0.2,
6066,-0.31,-0.195,
6067,-0.305,-0.205,
6068,-0.305,-0.21,
6069,-0.3,-0.21,
6070,-0.285,-0.185,
6071,-0.285,-0.175,
6072,-0.285,-0.18,
6073,-0.275,-0.16,
6074,-0.28,-0.145,
6075,-0.28,-0.075,
6076,-0.26,0.135,
6077,-0.225,0.52,
6078,-0.185,0.87,
6079,-0.145,0.86,
6080,-0.065,0.58,
6081,0.155,0.35,
6082,0.535,0.255,
6083,0.795,0.215,
6084,0.705,0.135,/
6085,0.395,0.065,
6086,0.17,-0.03,
6087,0.105,-0.15,
6088,0.125,-0.275,
6089,0.15,-0.41,
6090,0.155,-0.6,
6091,0.15,-0.815,
6092,0.125,-1.05,
6093,0.12,-1.26,
6094,0.13,-1.415,
6095,0.13,-1.56,
6096,0.13,-1.705,
6097,0.105,-1.84,
6098,0.085,-2.01,
6099,0.075,-2.215,
6100,0.085,-2.395,
6101,0.09,-2.54,
6102,0.06,-2.665,
6103,0.04,-2.755,
6104,0.015,-2.86,
6105,-0.035,-2.935,
6106,-0.05,-3.02,
6107,-0.075,-3.075,
6108,-0.13,-3.125,
6109,-0.195,-3.15,
6110,-0.255,-3.19,
6111,-0.315,-3.205,
6112,-0.38,-3.21,
6113,-0.445,-3.21,
6114,-0.53,-3.215,
6115,-0.575,-3.225,
6116,-0.6,-3.22,
6117,-0.58,-3.215,
6118,-0.555,-3.2,
6119,-0.515,-3.165,
6120,-0.49,-3.13,
6121,-0.495,-3.075,
6122,-0.505,-2.98,
6123,-0.51,-2.845,
6124,-0.51,-2.685,
6125,-0.475,-2.5,
6126,-0.43,-2.285,
6127,-0.39,-2.05,
6128,-0.36,-1.815,
6129,-0.325,-1.545,
6130,-0.315,-1.275,
6131,-0.305,-1.03,
6132,-0.31,-0.815,
6133,-0.33,-0.615,
6134,-0.34,-0.43,
6135,-0.355,-0.235,
6136,-0.33,-0.06,
6137,-0.32,0.115,
6138,-0.34,0.295,
6139,-0.34,0.415,
6140,-0.345,0.51,
6141,-0.34,0.595,
6142,-0.325,0.67,
6143,-0.315,0.73,
6144,-0.285,0.77,
6145,-0.3,0.795,
6146,-0.3,0.82,
6147,-0.3,0.87,
6148,-0.3,0.905,
6149,-0.29,0.95,
6150,-0.295,0.98,
6151,-0.3,1.0,
6152,-0.295,1.015,
6153,-0.315,1.055,
6154,-0.305,1.085,
6155,-0.295,1.13,
6156,-0.285,1.16,
6157,-0.295,1.17,
6158,-0.295,1.2,
6159,-0.285,1.225,
6160,-0.28,1.27,
6161,-0.275,1.3,
6162,-0.27,1.335,
6163,-0.275,1.355,
6164,-0.275,1.395,
6165,-0.28,1.415,
6166,-0.27,1.455,
6167,-0.255,1.5,
6168,-0.24,1.525,
6169,-0.235,1.55,
6170,-0.23,1.575,
6171,-0.225,1.625,
6172,-0.22,1.66,
6173,-0.215,1.695,
6174,-0.215,1.72,
6175,-0.22,1.755,
6176,-0.21,1.76,
6177,-0.22,1.79,
6178,-0.19,1.84,
6179,-0.17,1.86,
6180,-0.18,1.88,
6181,-0.165,1.885,
6182,-0.155,1.895,
6183,-0.13,1.915,
6184,-0.13,1.93,
6185,-0.115,1.955,
6186,-0.12,1.955,
6187,-0.125,1.945,
6188,-0.125,1.945,
6189,-0.115,1.93,
6190,-0.1,1.925,
6191,-0.075,1.92,
6192,-0.065,1.9,
6193,-0.065,1.875,
6194,-0.055,1.82,
6195,-0.04,1.8,
6196,-0.025,1.79,
6197,-0.005,1.74,
6198,-0.005,1.695,
6199,-0.005,1.635,
6200,-0.02,1.565,
6201,-0.02,1.515,
6202,-0.015,1.45,
6203,0.0,1.395,
6204,0.005,1.32,
6205,-0.005,1.25,
6206,0.0,1.15,
6207,-0.005,1.095,
6208,0.005,1.02,
6209,0.01,0.96,
6210,0.0,0.885,
6211,-0.005,0.815,
6212,-0.01,0.745,
6213,-0.03,0.695,
6214,-0.03,0.645,
6215,-0.025,0.61,
6216,-0.025,0.54,
6217,-0.03,0.48,
6218,-0.045,0.43,
6219,-0.065,0.385,
6220,-0.075,0.36,
6221,-0.075,0.33,
6222,-0.085,0.295,
6223,-0.085,0.255,
6224,-0.095,0.21,
6225,-0.11,0.195,
6226,-0.1,0.17,
6227,-0.095,0.165,
6228,-0.105,0.14,
6229,-0.11,0.125,
6230,-0.115,0.1,
6231,-0.145,0.095,
6232,-0.145,0.075,
6233,-0.135,0.085,
6234,-0.14,0.07,
6235,-0.15,0.045,
6236,-0.16,0.04,
6237,-0.165,0.04,
6238,-0.16,0.04,
6239,-0.16,0.05,
6240,-0.145,0.045,
6241,-0.16,0.04,
6242,-0.165,0.02,
6243,-0.165,0.03,
6244,-0.18,0.035,
6245,-0.17,0.05,
6246,-0.175,0.035,
6247,-0.175,0.03,
6248,-0.18,0.025,
6249,-0.185,0.025,
6250,-0.175,0.03,
6251,-0.17,0.05,
6252,-0.17,0.04,
6253,-0.175,0.035,
6254,-0.185,0.025,
6255,-0.185,0.03,
6256,-0.185,0.04,
6257,-0.18,0.04,
6258,-0.17,0.04,
6259,-0.185,0.03,
6260,-0.18,0.015,
6261,-0.19,0.015,
6262,-0.185,0.025,
6263,-0.17,0.03,
6264,-0.175,0.035,
6265,-0.17,0.02,
6266,-0.18,0.015,
6267,-0.175,0.005,
6268,-0.175,0.01,
6269,-0.17,0.025,
6270,-0.175,0.02,
6271,-0.195,0.0,
6272,-0.185,-0.01,
6273,-0.21,-0.015,
6274,-0.205,-0.01,
6275,-0.195,0.0,
6276,-0.195,-0.005,
6277,-0.21,-0.025,
6278,-0.21,-0.035,
6279,-0.22,-0.035,
6280,-0.215,-0.03,
6281,-0.215,-0.02,
6282,-0.21,-0.055,
6283,-0.225,-0.06,
6284,-0.23,-0.065,
6285,-0.23,-0.055,
6286,-0.225,-0.065,
6287,-0.215,-0.06,
6288,-0.21,-0.06,
6289,-0.22,-0.08,
6290,-0.23,-0.085,
6291,-0.23,-0.095,
6292,-0.235,-0.085,
6293,-0.235,-0.09,
6294,-0.225,-0.095,
6295,-0.235,-0.11,
6296,-0.24,-0.12,
6297,-0.245,-0.11,
6298,-0.25,-0.105,
6299,-0.25,-0.11,
6300,-0.23,-0.12,
6301,-0.24,-0.125,
6302,-0.235,-0.14,
6303,-0.255,-0.135,
6304,-0.25,-0.12,
6305,-0.245,-0.12,
6306,-0.24,-0.125,
6307,-0.24,-0.145,
6308,-0.25,-0.155,
6309,-0.245,-0.145,
6310,-0.25,-0.145,
6311,-0.235,-0.14,
6312,-0.24,-0.14,
6313,-0.245,-0.155,
6314,-0.255,-0.155,
6315,-0.26,-0.15,
6316,-0.245,-0.15,
6317,-0.24,-0.145,
6318,-0.235,-0.15,
6319,-0.255,-0.16,
6320,-0.26,-0.165,
6321,-0.26,-0.165,
6322,-0.265,-0.16,
6323,-0.255,-0.16,
6324,-0.255,-0.16,
6325,-0.265,-0.175,
6326,-0.26,-0.19,
6327,-0.27,-0.185,
6328,-0.26,-0.16,
6329,-0.265,-0.165,
6330,-0.26,-0.17,
6331,-0.26,-0.175,
6332,-0.265,-0.175,
6333,-0.27,-0.185,
6334,-0.27,-0.17,
6335,-0.26,-0.175,
6336,-0.255,-0.17,
6337,-0.26,-0.175,
6338,-0.27,-0.19,
6339,-0.275,-0.18,
6340,-0.285,-0.175,
6341,-0.275,-0.17,
6342,-0.26,-0.17,
6343,-0.265,-0.18,
6344,-0.275,-0.195,
6345,-0.285,-0.195,
6346,-0.275,-0.175,
6347,-0.265,-0.175,
6348,-0.265,-0.17,
6349,-0.265,-0.175,
6350,-0.27,-0.185,
6351,-0.285,-0.19,
6352,-0.275,-0.18,
6353,-0.265,-0.16,
6354,-0.265,-0.165,
6355,-0.26,-0.19,
6356,-0.265,-0.18,
6357,-0.275,-0.19,
6358,-0.275,-0.18,
6359,-0.26,-0.18,
6360,-0.26,-0.175,
6361,-0.26,-0.175,
6362,-0.265,-0.185,
6363,-0.275,-0.175,
6364,-0.28,-0.175,
6365,-0.25,-0.17,
6366,-0.245,-0.17,
6367,-0.24,-0.175,
6368,-0.255,-0.17,
6369,-0.26,-0.165,
6370,-0.25,-0.135,
6371,-0.245,-0.095,
6372,-0.215,0.0,
6373,-0.205,0.23,
6374,-0.19,0.64,
6375,-0.165,0.93,
6376,-0.095,0.845,
6377,0.055,0.535,
6378,0.395,0.335,
6379,0.78,0.255,
6380,0.865,0.225,/
6381,0.6,0.165,
6382,0.285,0.11,
6383,0.145,0.025,
6384,0.145,-0.075,
6385,0.165,-0.22,
6386,0.175,-0.41,
6387,0.16,-0.61,
6388,0.165,-0.825,
6389,0.18,-1.04,
6390,0.195,-1.255,
6391,0.2,-1.43,
6392,0.175,-1.59,
6393,0.16,-1.73,
6394,0.155,-1.895,
6395,0.145,-2.07,
6396,0.14,-2.285,
6397,0.135,-2.46,
6398,0.115,-2.585,
6399,0.075,-2.69,
6400,0.05,-2.75,
6401,0.005,-2.84,
6402,-0.035,-2.94,
6403,-0.09,-3.01,
6404,-0.15,-3.05,
6405,-0.23,-3.085,
6406,-0.26,-3.115,
6407,-0.295,-3.13,
6408,-0.37,-3.145,
6409,-0.465,-3.155,
6410,-0.54,-3.17,
6411,-0.575,-3.175,
6412,-0.56,-3.165,
6413,-0.53,-3.145,
6414,-0.485,-3.135,
6415,-0.475,-3.12,
6416,-0.47,-3.08,
6417,-0.47,-3.0,
6418,-0.465,-2.885,
6419,-0.44,-2.75,
6420,-0.435,-2.58,
6421,-0.405,-2.41,
6422,-0.385,-2.185,
6423,-0.365,-1.92,
6424,-0.32,-1.665,
6425,-0.285,-1.4,
6426,-0.275,-1.145,
6427,-0.295,-0.91,
6428,-0.32,-0.695,
6429,-0.35,-0.475,
6430,-0.345,-0.275,
6431,-0.335,-0.09,
6432,-0.355,0.08,
6433,-0.365,0.245,
6434,-0.36,0.38,
6435,-0.375,0.505,
6436,-0.36,0.595,
6437,-0.335,0.675,
6438,-0.33,0.73,
6439,-0.335,0.77,
6440,-0.345,0.795,
6441,-0.35,0.825,
6442,-0.34,0.885,
6443,-0.335,0.92,
6444,-0.34,0.955,
6445,-0.335,0.97,
6446,-0.355,0.985,
6447,-0.365,1.02,
6448,-0.355,1.06,
6449,-0.345,1.085,
6450,-0.35,1.125,
6451,-0.355,1.145,
6452,-0.355,1.17,
6453,-0.37,1.205,
6454,-0.355,1.24,
6455,-0.36,1.28,
6456,-0.345,1.315,
6457,-0.345,1.33,
6458,-0.355,1.355,
6459,-0.36,1.4,
6460,-0.36,1.45,
6461,-0.335,1.49,
6462,-0.325,1.515,
6463,-0.34,1.55,
6464,-0.335,1.57,
6465,-0.345,1.605,
6466,-0.33,1.665,
6467,-0.325,1.71,
6468,-0.315,1.74,
6469,-0.315,1.765,
6470,-0.305,1.795,
6471,-0.31,1.82,
6472,-0.295,1.86,
6473,-0.29,1.89,
6474,-0.275,1.92,
6475,-0.27,1.93,
6476,-0.265,1.925,
6477,-0.26,1.955,
6478,-0.25,1.97,
6479,-0.235,1.98,
6480,-0.225,1.98,
6481,-0.21,1.975,
6482,-0.205,1.95,
6483,-0.215,1.95,
6484,-0.195,1.945,
6485,-0.175,1.925,
6486,-0.17,1.88,
6487,-0.17,1.845,
6488,-0.165,1.785,
6489,-0.165,1.755,
6490,-0.135,1.71,
6491,-0.12,1.655,
6492,-0.115,1.59,
6493,-0.11,1.515,
6494,-0.115,1.445,
6495,-0.125,1.37,
6496,-0.11,1.305,
6497,-0.1,1.25,
6498,-0.09,1.16,
6499,-0.095,1.07,
6500,-0.1,1.01,
6501,-0.11,0.925,
6502,-0.105,0.865,
6503,-0.11,0.815,
6504,-0.12,0.745,
6505,-0.12,0.685,
6506,-0.12,0.615,
6507,-0.12,0.56,
6508,-0.125,0.52,
6509,-0.125,0.48,
6510,-0.13,0.425,
6511,-0.15,0.385,
6512,-0.155,0.325,
6513,-0.165,0.295,
6514,-0.165,0.285,
6515,-0.17,0.26,
6516,-0.175,0.235,
6517,-0.18,0.21,
6518,-0.19,0.165,
6519,-0.21,0.145,
6520,-0.2,0.145,
6521,-0.205,0.135,
6522,-0.205,0.13,
6523,-0.2,0.11,
6524,-0.225,0.1,
6525,-0.235,0.08,
6526,-0.235,0.095,
6527,-0.23,0.095,
6528,-0.23,0.085,
6529,-0.225,0.08,
6530,-0.23,0.065,
6531,-0.25,0.075,
6532,-0.245,0.075,
6533,-0.23,0.075,
6534,-0.24,0.065,
6535,-0.235,0.07,
6536,-0.245,0.06,
6537,-0.245,0.075,
6538,-0.245,0.08,
6539,-0.225,0.085,
6540,-0.245,0.075,
6541,-0.24,0.07,
6542,-0.24,0.06,
6543,-0.255,0.065,
6544,-0.26,0.085,
6545,-0.235,0.09,
6546,-0.245,0.09,
6547,-0.25,0.085,
6548,-0.245,0.08,
6549,-0.26,0.08,
6550,-0.26,0.075,
6551,-0.245,0.075,
6552,-0.255,0.075,
6553,-0.26,0.08,
6554,-0.26,0.055,
6555,-0.265,0.06,
6556,-0.26,0.06,
6557,-0.26,0.065,
6558,-0.26,0.055,
6559,-0.255,0.045,
6560,-0.265,0.03,
6561,-0.28,0.04,
6562,-0.27,0.03,
6563,-0.26,0.035,
6564,-0.265,0.025,
6565,-0.265,0.015,
6566,-0.275,0.005,
6567,-0.28,-0.01,
6568,-0.28,0.0,
6569,-0.275,0.005,
6570,-0.275,0.005,
6571,-0.28,-0.025,
6572,-0.285,-0.03,
6573,-0.29,-0.035,
6574,-0.29,-0.03,
6575,-0.28,-0.035,
6576,-0.28,-0.04,
6577,-0.28,-0.05,
6578,-0.3,-0.065,
6579,-0.31,-0.07,
6580,-0.295,-0.06,
6581,-0.295,-0.065,
6582,-0.29,-0.07,
6583,-0.295,-0.08,
6584,-0.305,-0.095,
6585,-0.315,-0.085,
6586,-0.31,-0.075,
6587,-0.285,-0.085,
6588,-0.29,-0.085,
6589,-0.3,-0.11,
6590,-0.305,-0.115,
6591,-0.32,-0.11,
6592,-0.31,-0.1,
