,V5,V2,symbol
0,-0.15,0.2,
1,-0.15,0.2,
2,-0.15,0.2,
3,-0.15,0.2,
4,-0.15,0.2,
5,-0.15,0.2,
6,-0.15,0.2,
7,-0.15,0.2,
8,-0.145,0.2,
9,-0.135,0.215,
10,-0.11,0.235,
11,-0.08,0.24,
12,-0.04,0.24,
13,0.0,0.245,
14,0.125,0.265,
15,0.485,0.335,
16,0.925,0.46,
17,0.985,0.775,
18,0.625,1.03,
19,0.25,0.935,
20,0.095,0.665,
21,0.1,0.485,
22,0.12,0.445,
23,0.11,0.425,
24,0.08,0.395,
25,0.05,0.355,
26,0.04,0.335,
27,0.035,0.33,
28,0.045,0.335,
29,0.06,0.3,
30,0.06,0.305,
31,0.045,0.26,
32,0.015,0.235,
33,0.01,0.21,
34,0.0,0.195,
35,0.0,0.165,
36,-0.02,0.165,+
37,-0.035,0.135,
38,-0.065,0.115,
39,-0.075,0.11,
40,-0.11,0.11,
41,-0.145,0.105,
42,-0.18,0.085,
43,-0.225,0.065,
44,-0.27,0.035,
45,-0.31,0.04,
46,-0.38,0.03,
47,-0.455,0.02,
48,-0.51,-0.005,
49,-0.565,-0.02,
50,-0.62,-0.04,
51,-0.665,-0.03,
52,-0.705,-0.035,
53,-0.75,-0.045,
54,-0.79,-0.07,
55,-0.83,-0.105,
56,-0.86,-0.15,
57,-0.88,-0.18,
58,-0.885,-0.22,
59,-0.9,-0.255,
60,-0.9,-0.3,
61,-0.895,-0.33,
62,-0.885,-0.345,
63,-0.87,-0.37,
64,-0.855,-0.385,
65,-0.845,-0.405,
66,-0.825,-0.435,
67,-0.82,-0.475,
68,-0.8,-0.48,
69,-0.77,-0.5,
70,-0.72,-0.51,
71,-0.655,-0.535,
72,-0.61,-0.565,
73,-0.58,-0.58,/
74,-0.55,-0.565,
75,-0.49,-0.53,
76,-0.445,-0.485,
77,-0.38,-0.445,
78,-0.345,-0.4,
79,-0.31,-0.36,
80,-0.3,-0.305,
81,-0.27,-0.245,
82,-0.235,-0.18,
83,-0.225,-0.125,
84,-0.215,-0.085,
85,-0.22,-0.055,
86,-0.225,-0.015,
87,-0.22,0.02,
88,-0.21,0.055,
89,-0.2,0.085,
90,-0.18,0.095,
91,-0.19,0.095,
92,-0.205,0.095,
93,-0.205,0.11,
94,-0.21,0.145,
95,-0.205,0.155,
96,-0.2,0.175,
97,-0.2,0.185,
98,-0.19,0.215,
99,-0.175,0.245,
100,-0.165,0.275,
101,-0.13,0.295,
102,-0.145,0.31,
103,-0.125,0.315,
104,-0.13,0.32,
105,-0.115,0.335,
106,-0.095,0.35,
107,-0.085,0.345,
108,-0.08,0.34,
109,-0.08,0.335,
110,-0.085,0.33,
111,-0.075,0.345,
112,-0.065,0.365,
113,-0.05,0.36,
114,-0.045,0.365,
115,-0.05,0.35,
116,-0.05,0.35,
117,-0.045,0.36,
118,-0.035,0.37,
119,-0.015,0.385,
120,-0.02,0.38,
121,-0.035,0.375,
122,-0.025,0.365,
123,-0.03,0.37,
124,-0.01,0.39,
125,-0.01,0.39,
126,0.005,0.395,
127,-0.005,0.395,
128,-0.005,0.385,
129,-0.005,0.4,
130,0.01,0.415,
131,0.02,0.415,
132,0.025,0.42,
133,0.02,0.41,
134,0.015,0.41,
135,0.02,0.43,
136,0.035,0.435,
137,0.05,0.44,
138,0.04,0.44,
139,0.045,0.44,
140,0.04,0.43,
141,0.035,0.445,
142,0.055,0.465,
143,0.065,0.47,
144,0.06,0.465,
145,0.055,0.465,
146,0.055,0.465,
147,0.065,0.47,
148,0.08,0.49,
149,0.07,0.495,
150,0.09,0.5,
151,0.08,0.485,
152,0.07,0.49,
153,0.075,0.505,
154,0.085,0.52,
155,0.1,0.52,
156,0.095,0.52,
157,0.09,0.52,
158,0.08,0.515,
159,0.08,0.53,
160,0.095,0.535,
161,0.095,0.55,
162,0.09,0.545,
163,0.09,0.535,
164,0.09,0.535,
165,0.09,0.54,
166,0.075,0.545,
167,0.085,0.56,
168,0.105,0.535,
169,0.08,0.54,
170,0.065,0.52,
171,0.065,0.525,
172,0.07,0.525,
173,0.075,0.535,
174,0.065,0.52,
175,0.055,0.51,
176,0.035,0.5,
177,0.035,0.505,
178,0.035,0.515,
179,0.035,0.495,
180,0.025,0.485,
181,0.01,0.465,
182,0.0,0.455,
183,-0.02,0.465,
184,-0.01,0.465,
185,-0.015,0.47,
186,-0.02,0.45,
187,-0.05,0.44,
188,-0.06,0.43,
189,-0.06,0.425,
190,-0.065,0.425,
191,-0.065,0.42,
192,-0.08,0.4,
193,-0.095,0.38,
194,-0.1,0.37,
195,-0.095,0.375,
196,-0.1,0.38,
197,-0.09,0.375,
198,-0.1,0.365,
199,-0.11,0.345,
200,-0.135,0.34,
201,-0.135,0.33,
202,-0.125,0.335,
203,-0.12,0.33,
204,-0.115,0.33,
205,-0.135,0.31,
206,-0.15,0.3,
207,-0.145,0.295,
208,-0.145,0.3,
209,-0.135,0.305,
210,-0.135,0.295,
211,-0.145,0.29,
212,-0.155,0.28,
213,-0.15,0.285,
214,-0.14,0.295,
215,-0.14,0.29,
216,-0.145,0.28,
217,-0.15,0.28,
218,-0.15,0.27,
219,-0.17,0.29,
220,-0.155,0.275,
221,-0.145,0.285,
222,-0.135,0.265,
223,-0.15,0.275,
224,-0.16,0.265,
225,-0.155,0.275,
226,-0.16,0.29,
227,-0.135,0.275,
228,-0.145,0.265,
229,-0.15,0.26,
230,-0.165,0.26,
231,-0.155,0.26,
232,-0.14,0.275,
233,-0.135,0.27,
234,-0.155,0.255,
235,-0.15,0.26,
236,-0.165,0.255,
237,-0.165,0.25,
238,-0.16,0.265,
239,-0.15,0.27,
240,-0.15,0.265,
241,-0.15,0.245,
242,-0.15,0.25,
243,-0.175,0.255,
244,-0.165,0.265,
245,-0.155,0.265,
246,-0.16,0.265,
247,-0.17,0.265,
248,-0.175,0.255,
249,-0.185,0.255,
250,-0.16,0.275,
251,-0.16,0.265,
252,-0.165,0.26,
253,-0.18,0.25,
254,-0.19,0.25,
255,-0.195,0.255,
256,-0.18,0.265,
257,-0.18,0.26,
258,-0.185,0.25,
259,-0.195,0.245,
260,-0.21,0.23,
261,-0.205,0.245,
262,-0.2,0.26,
263,-0.2,0.245,
264,-0.205,0.24,
265,-0.22,0.225,
266,-0.24,0.23,
267,-0.23,0.235,
268,-0.22,0.24,
269,-0.215,0.24,
270,-0.225,0.24,
271,-0.225,0.23,
272,-0.245,0.22,
273,-0.235,0.23,
274,-0.23,0.23,
275,-0.215,0.225,
276,-0.215,0.235,
277,-0.235,0.205,
278,-0.245,0.21,
279,-0.235,0.22,
280,-0.23,0.225,
281,-0.225,0.225,
282,-0.235,0.23,
283,-0.25,0.21,
284,-0.26,0.205,
285,-0.25,0.215,
286,-0.245,0.215,
287,-0.23,0.235,
288,-0.245,0.21,
289,-0.25,0.205,
290,-0.25,0.195,
291,-0.255,0.215,
292,-0.25,0.22,
293,-0.245,0.22,
294,-0.26,0.2,
295,-0.25,0.2,
296,-0.28,0.205,
297,-0.26,0.21,
298,-0.255,0.215,
299,-0.255,0.22,
300,-0.255,0.22,
301,-0.25,0.215,
302,-0.27,0.195,
303,-0.26,0.215,
304,-0.255,0.225,
305,-0.24,0.225,
306,-0.235,0.22,
307,-0.23,0.215,
308,-0.21,0.215,
309,-0.205,0.23,
310,-0.135,0.245,
311,-0.04,0.275,
312,0.205,0.315,
313,0.63,0.415,
314,0.845,0.695,
315,0.63,1.0,
316,0.26,0.98,/
317,0.06,0.71,
318,0.045,0.495,
319,0.05,0.42,
320,0.03,0.415,
321,0.005,0.41,
322,-0.01,0.38,
323,-0.04,0.37,
324,-0.035,0.365,
325,-0.04,0.34,
326,-0.05,0.32,
327,-0.045,0.32,
328,-0.06,0.31,
329,-0.055,0.28,
330,-0.07,0.255,
331,-0.09,0.21,
332,-0.115,0.2,
333,-0.12,0.185,
334,-0.13,0.19,
335,-0.135,0.16,
336,-0.17,0.145,
337,-0.22,0.12,
338,-0.265,0.105,
339,-0.3,0.09,
340,-0.33,0.08,
341,-0.35,0.045,
342,-0.4,0.03,
343,-0.465,0.0,
344,-0.565,-0.015,
345,-0.63,-0.025,
346,-0.67,-0.045,
347,-0.71,-0.04,
348,-0.75,-0.055,
349,-0.81,-0.085,
350,-0.87,-0.11,
351,-0.905,-0.13,
352,-0.92,-0.15,
353,-0.925,-0.195,
354,-0.93,-0.26,
355,-0.935,-0.295,
356,-0.945,-0.335,
357,-0.935,-0.34,
358,-0.915,-0.355,
359,-0.905,-0.395,
360,-0.895,-0.44,
361,-0.905,-0.47,
362,-0.91,-0.51,
363,-0.88,-0.525,
364,-0.865,-0.545,
365,-0.84,-0.58,
366,-0.8,-0.625,
367,-0.75,-0.65,
368,-0.705,-0.67,
369,-0.66,-0.635,
370,-0.61,-0.6,
371,-0.565,-0.57,
372,-0.52,-0.535,
373,-0.48,-0.505,
374,-0.455,-0.445,
375,-0.405,-0.38,
376,-0.385,-0.33,
377,-0.35,-0.27,
378,-0.33,-0.225,
379,-0.325,-0.18,
380,-0.325,-0.15,
381,-0.32,-0.1,
382,-0.295,-0.065,
383,-0.285,-0.04,
384,-0.275,-0.005,
385,-0.265,-0.01,
386,-0.26,0.005,
387,-0.255,0.03,
388,-0.26,0.055,
389,-0.27,0.08,
390,-0.26,0.085,
391,-0.265,0.09,
392,-0.265,0.12,
393,-0.265,0.145,
394,-0.245,0.18,
395,-0.23,0.21,
396,-0.2,0.22,
397,-0.2,0.23,
398,-0.2,0.25,
399,-0.185,0.28,
400,-0.175,0.305,
401,-0.155,0.305,
402,-0.16,0.305,
403,-0.145,0.315,
404,-0.15,0.3,
405,-0.145,0.31,
406,-0.135,0.32,
407,-0.13,0.325,
408,-0.125,0.335,
409,-0.125,0.325,
410,-0.135,0.32,
411,-0.125,0.325,
412,-0.12,0.345,
413,-0.105,0.345,
414,-0.105,0.345,
415,-0.11,0.335,
416,-0.115,0.335,
417,-0.11,0.355,
418,-0.095,0.375,
419,-0.09,0.37,
420,-0.09,0.375,
421,-0.09,0.365,
422,-0.095,0.37,
423,-0.1,0.37,
424,-0.085,0.38,
425,-0.065,0.39,
426,-0.07,0.385,
427,-0.095,0.38,
428,-0.08,0.385,
429,-0.085,0.395,
430,-0.08,0.41,
431,-0.06,0.405,
432,-0.05,0.405,
433,-0.07,0.4,
434,-0.07,0.405,
435,-0.07,0.42,
436,-0.06,0.43,
437,-0.045,0.44,
438,-0.055,0.435,
439,-0.055,0.435,
440,-0.055,0.435,
441,-0.05,0.46,
442,-0.045,0.465,
443,-0.025,0.47,
444,-0.03,0.475,
445,-0.03,0.465,
446,-0.05,0.475,
447,-0.04,0.485,
448,-0.03,0.5,
449,-0.005,0.505,
450,0.0,0.505,
451,-0.005,0.5,
452,-0.02,0.5,
453,-0.015,0.515,
454,0.0,0.525,
455,0.01,0.525,
456,0.005,0.525,
457,0.01,0.525,
458,0.0,0.52,
459,-0.005,0.535,
460,0.015,0.54,
461,0.015,0.55,
462,0.015,0.545,
463,0.005,0.54,
464,0.0,0.535,
465,-0.005,0.54,
466,-0.005,0.54,
467,0.005,0.54,
468,0.0,0.53,
469,-0.015,0.52,
470,-0.03,0.51,
471,-0.035,0.515,
472,-0.035,0.52,
473,-0.035,0.505,
474,-0.04,0.5,
475,-0.06,0.48,
476,-0.08,0.47,
477,-0.08,0.47,
478,-0.08,0.47,
479,-0.075,0.46,
480,-0.09,0.455,
481,-0.1,0.435,
482,-0.12,0.425,
483,-0.12,0.415,
484,-0.115,0.415,
485,-0.115,0.41,
486,-0.125,0.39,
487,-0.145,0.375,
488,-0.16,0.355,
489,-0.16,0.365,
490,-0.15,0.37,
491,-0.16,0.355,
492,-0.155,0.355,
493,-0.17,0.335,
494,-0.175,0.315,
495,-0.175,0.315,
496,-0.18,0.335,
497,-0.175,0.33,
498,-0.175,0.315,
499,-0.185,0.295,
500,-0.2,0.29,
501,-0.21,0.3,
502,-0.19,0.305,
503,-0.19,0.305,
504,-0.19,0.295,
505,-0.195,0.28,
506,-0.215,0.26,
507,-0.215,0.28,
508,-0.2,0.275,
509,-0.195,0.275,
510,-0.205,0.28,
511,-0.22,0.25,
512,-0.235,0.24,
513,-0.22,0.265,
514,-0.215,0.27,
515,-0.205,0.27,
516,-0.21,0.25,
517,-0.225,0.24,
518,-0.235,0.225,
519,-0.24,0.26,
520,-0.23,0.26,
521,-0.225,0.27,
522,-0.23,0.26,
523,-0.245,0.24,
524,-0.235,0.24,
525,-0.245,0.245,
526,-0.235,0.245,
527,-0.235,0.255,
528,-0.23,0.25,
529,-0.24,0.235,
530,-0.26,0.24,
531,-0.26,0.245,
532,-0.26,0.25,
533,-0.25,0.25,
534,-0.265,0.255,
535,-0.27,0.235,
536,-0.28,0.24,
537,-0.265,0.235,
538,-0.26,0.25,
539,-0.255,0.245,
540,-0.265,0.24,
541,-0.275,0.23,
542,-0.285,0.22,
543,-0.285,0.23,
544,-0.275,0.24,
545,-0.265,0.23,
546,-0.27,0.23,
547,-0.275,0.23,
548,-0.29,0.21,
549,-0.285,0.23,
550,-0.29,0.23,
551,-0.275,0.235,
552,-0.27,0.225,
553,-0.285,0.2,
554,-0.31,0.2,
555,-0.305,0.21,
556,-0.31,0.23,
557,-0.295,0.21,
558,-0.295,0.22,
559,-0.295,0.205,
560,-0.31,0.195,
561,-0.305,0.195,
562,-0.3,0.205,
563,-0.295,0.205,
564,-0.3,0.19,
565,-0.315,0.19,
566,-0.32,0.19,
567,-0.31,0.185,
568,-0.305,0.2,
569,-0.305,0.19,
570,-0.315,0.195,
571,-0.32,0.185,
572,-0.335,0.175,
573,-0.325,0.185,
574,-0.315,0.195,
575,-0.315,0.195,
576,-0.305,0.195,
577,-0.315,0.185,
578,-0.32,0.175,
579,-0.32,0.18,
580,-0.31,0.195,
581,-0.31,0.19,
582,-0.325,0.19,
583,-0.315,0.175,
584,-0.32,0.165,
585,-0.32,0.185,
586,-0.33,0.185,
587,-0.31,0.18,
588,-0.305,0.18,
589,-0.32,0.17,
590,-0.325,0.175,
591,-0.32,0.17,
592,-0.31,0.175,
593,-0.305,0.18,
594,-0.315,0.175,
595,-0.325,0.16,
596,-0.33,0.155,
597,-0.32,0.175,
598,-0.31,0.18,
599,-0.305,0.175,
600,-0.295,0.175,
601,-0.295,0.17,
602,-0.305,0.17,
603,-0.3,0.175,
604,-0.275,0.18,
605,-0.27,0.185,
606,-0.27,0.185,
607,-0.26,0.185,
608,-0.24,0.195,
609,-0.165,0.2,
610,-0.005,0.24,
611,0.32,0.28,
612,0.77,0.415,
613,0.905,0.705,
614,0.565,0.965,
615,0.16,0.905,/
616,-0.015,0.645,
617,-0.005,0.445,
618,0.015,0.39,
619,-0.025,0.365,
620,-0.075,0.345,
621,-0.085,0.33,
622,-0.085,0.315,
623,-0.08,0.305,
624,-0.085,0.29,
625,-0.08,0.255,
626,-0.095,0.235,
627,-0.105,0.21,
628,-0.11,0.18,
629,-0.13,0.16,
630,-0.145,0.12,
631,-0.185,0.09,
632,-0.195,0.075,
633,-0.21,0.065,
634,-0.235,0.06,
635,-0.265,0.03,
636,-0.305,0.01,
637,-0.36,-0.015,
638,-0.41,-0.04,
639,-0.46,-0.05,
640,-0.51,-0.065,
641,-0.595,-0.095,
642,-0.695,-0.11,
643,-0.765,-0.125,
644,-0.83,-0.145,
645,-0.865,-0.155,
646,-0.92,-0.15,
647,-0.965,-0.17,
648,-0.995,-0.195,
649,-1.015,-0.235,
650,-1.045,-0.29,
651,-1.05,-0.325,
652,-1.035,-0.365,
653,-1.025,-0.395,
654,-1.045,-0.4,
655,-1.045,-0.45,
656,-1.04,-0.48,
657,-1.02,-0.515,
658,-1.005,-0.545,
659,-0.97,-0.58,
660,-0.93,-0.595,
661,-0.91,-0.64,
662,-0.87,-0.67,
663,-0.805,-0.68,
664,-0.735,-0.67,
665,-0.685,-0.64,
666,-0.63,-0.605,
667,-0.585,-0.555,
668,-0.545,-0.505,
669,-0.495,-0.43,
670,-0.46,-0.36,
671,-0.425,-0.295,
672,-0.4,-0.235,
673,-0.385,-0.185,
674,-0.385,-0.135,
675,-0.375,-0.085,
676,-0.345,-0.045,
677,-0.335,0.0,
678,-0.315,0.015,
679,-0.31,0.03,
680,-0.325,0.045,
681,-0.31,0.075,
682,-0.295,0.09,
683,-0.285,0.11,
684,-0.29,0.105,
685,-0.285,0.12,
686,-0.28,0.155,
687,-0.27,0.19,
688,-0.225,0.22,
689,-0.185,0.235,
690,-0.18,0.26,
691,-0.175,0.27,
692,-0.175,0.285,
693,-0.17,0.3,
694,-0.135,0.315,
695,-0.11,0.305,
696,-0.09,0.32,
697,-0.08,0.305,
698,-0.085,0.31,
699,-0.06,0.325,
700,-0.065,0.355,
701,-0.07,0.35,
702,-0.08,0.345,
703,-0.095,0.33,
704,-0.105,0.32,
705,-0.1,0.335,
706,-0.105,0.35,
707,-0.09,0.355,
708,-0.09,0.355,
709,-0.095,0.345,
710,-0.1,0.34,
711,-0.1,0.345,
712,-0.08,0.37,
713,-0.07,0.37,
714,-0.075,0.375,
715,-0.09,0.375,
716,-0.1,0.365,
717,-0.095,0.37,
718,-0.085,0.385,
719,-0.06,0.395,
720,-0.05,0.395,
721,-0.06,0.395,
722,-0.055,0.395,
723,-0.04,0.4,
724,-0.03,0.425,
725,-0.02,0.425,
726,-0.015,0.43,
727,-0.04,0.43,
728,-0.05,0.425,
729,-0.045,0.44,
730,-0.03,0.46,
731,-0.005,0.475,
732,-0.005,0.47,
733,-0.025,0.455,
734,-0.03,0.47,
735,-0.005,0.485,
736,0.0,0.5,
737,0.0,0.505,
738,0.015,0.5,
739,0.01,0.495,
740,-0.005,0.515,
741,0.02,0.515,
742,0.03,0.545,
743,0.03,0.55,
744,0.06,0.535,
745,0.065,0.53,
746,0.03,0.53,
747,0.045,0.545,
748,0.055,0.55,
749,0.05,0.555,
750,0.05,0.55,
751,0.045,0.53,
752,0.025,0.53,
753,0.03,0.54,
754,0.035,0.54,
755,0.035,0.545,
756,0.03,0.54,
757,0.01,0.52,
758,0.0,0.505,
759,-0.015,0.505,
760,0.005,0.525,
761,-0.005,0.505,
762,-0.02,0.48,
763,-0.03,0.47,
764,-0.055,0.46,
765,-0.05,0.46,
766,-0.065,0.46,
767,-0.07,0.435,
768,-0.095,0.44,
769,-0.11,0.41,
770,-0.125,0.4,
771,-0.12,0.395,
772,-0.13,0.4,
773,-0.11,0.395,
774,-0.115,0.37,
775,-0.125,0.35,
776,-0.155,0.35,
777,-0.16,0.34,
778,-0.17,0.34,
779,-0.175,0.33,
780,-0.18,0.325,
781,-0.19,0.3,
782,-0.2,0.295,
783,-0.205,0.295,
784,-0.195,0.295,
785,-0.19,0.285,
786,-0.19,0.265,
787,-0.2,0.26,
788,-0.2,0.265,
789,-0.205,0.255,
790,-0.205,0.26,
791,-0.19,0.255,
792,-0.2,0.245,
793,-0.195,0.225,
794,-0.21,0.215,
795,-0.225,0.22,
796,-0.225,0.235,
797,-0.22,0.22,
798,-0.225,0.21,
799,-0.265,0.2,
800,-0.27,0.19,
801,-0.255,0.2,
802,-0.24,0.215,
803,-0.235,0.22,
804,-0.245,0.205,
805,-0.25,0.195,
806,-0.265,0.195,
807,-0.26,0.195,
808,-0.275,0.2,
809,-0.265,0.205,
810,-0.255,0.19,
811,-0.255,0.18,
812,-0.275,0.175,
813,-0.255,0.195,
814,-0.255,0.2,
815,-0.26,0.195,
816,-0.26,0.195,
817,-0.27,0.19,
818,-0.27,0.185,
819,-0.27,0.185,
820,-0.26,0.2,
821,-0.265,0.195,
822,-0.275,0.195,
823,-0.28,0.18,
824,-0.3,0.175,
825,-0.29,0.18,
826,-0.29,0.19,
827,-0.285,0.19,
828,-0.285,0.185,
829,-0.3,0.185,
830,-0.32,0.17,
831,-0.295,0.175,
832,-0.29,0.195,
833,-0.29,0.19,
834,-0.3,0.175,
835,-0.315,0.165,
836,-0.32,0.16,
837,-0.315,0.165,
838,-0.31,0.175,
839,-0.305,0.175,
840,-0.305,0.17,
841,-0.32,0.16,
842,-0.32,0.145,
843,-0.32,0.145,
844,-0.305,0.16,
845,-0.3,0.165,
846,-0.305,0.165,
847,-0.315,0.145,
848,-0.32,0.135,
849,-0.325,0.155,
850,-0.335,0.16,
851,-0.33,0.145,
852,-0.33,0.145,
853,-0.32,0.13,
854,-0.33,0.13,
855,-0.33,0.14,
856,-0.315,0.14,
857,-0.325,0.135,
858,-0.325,0.135,
859,-0.33,0.115,
860,-0.335,0.115,
861,-0.325,0.13,
862,-0.315,0.135,
863,-0.31,0.135,
864,-0.315,0.135,
865,-0.325,0.12,
866,-0.345,0.12,
867,-0.35,0.12,
868,-0.34,0.135,
869,-0.33,0.125,
870,-0.325,0.135,
871,-0.325,0.11,
872,-0.33,0.105,
873,-0.34,0.12,
874,-0.335,0.135,
875,-0.325,0.13,
876,-0.325,0.13,
877,-0.325,0.12,
878,-0.335,0.115,
879,-0.34,0.125,
880,-0.33,0.125,
881,-0.32,0.12,
882,-0.31,0.12,
883,-0.32,0.11,
884,-0.335,0.115,
885,-0.33,0.115,
886,-0.32,0.115,
887,-0.315,0.125,
888,-0.29,0.13,
889,-0.31,0.12,
890,-0.315,0.12,
891,-0.3,0.125,
892,-0.28,0.135,
893,-0.27,0.135,
894,-0.255,0.125,
895,-0.225,0.13,
896,-0.165,0.15,
897,0.02,0.17,
898,0.445,0.23,
899,0.8,0.47,
900,0.66,0.815,
901,0.245,0.835,/
902,-0.02,0.56,
903,-0.055,0.355,
904,-0.015,0.32,
905,0.0,0.32,
906,-0.03,0.295,
907,-0.05,0.26,
908,-0.08,0.235,
909,-0.08,0.24,
910,-0.07,0.24,
911,-0.05,0.22,
912,-0.065,0.185,
913,-0.07,0.155,
914,-0.095,0.105,
915,-0.095,0.08,
916,-0.105,0.075,
917,-0.105,0.055,
918,-0.1,0.03,
919,-0.14,0.005,
920,-0.175,-0.015,
921,-0.21,-0.025,
922,-0.245,-0.03,
923,-0.28,-0.06,
924,-0.325,-0.09,
925,-0.385,-0.12,
926,-0.475,-0.135,
927,-0.565,-0.145,
928,-0.65,-0.145,
929,-0.7,-0.16,
930,-0.75,-0.17,
931,-0.825,-0.2,
932,-0.895,-0.21,
933,-0.945,-0.23,
934,-0.97,-0.25,
935,-0.99,-0.305,
936,-0.995,-0.35,
937,-1.01,-0.405,
938,-1.035,-0.43,
939,-1.03,-0.44,
940,-1.04,-0.455,
941,-1.005,-0.485,
942,-1.01,-0.53,
943,-0.99,-0.56,
944,-0.985,-0.59,
945,-0.95,-0.615,
946,-0.895,-0.635,
947,-0.83,-0.67,
948,-0.755,-0.68,
949,-0.725,-0.67,
950,-0.685,-0.64,
951,-0.635,-0.59,
952,-0.56,-0.54,
953,-0.515,-0.48,
954,-0.455,-0.43,
955,-0.44,-0.375,
956,-0.415,-0.315,
957,-0.39,-0.245,
958,-0.365,-0.185,
959,-0.345,-0.15,
960,-0.34,-0.11,
961,-0.325,-0.08,
962,-0.33,-0.065,
963,-0.3,-0.03,
964,-0.305,0.005,
965,-0.295,0.02,
966,-0.29,0.03,
967,-0.305,0.03,
968,-0.315,0.035,
969,-0.31,0.075,
970,-0.3,0.1,
971,-0.29,0.12,
972,-0.27,0.13,
973,-0.255,0.15,
974,-0.25,0.175,
975,-0.22,0.195,
976,-0.215,0.23,
977,-0.2,0.24,
978,-0.19,0.245,
979,-0.175,0.235,
980,-0.195,0.235,
981,-0.17,0.24,
982,-0.165,0.255,
983,-0.16,0.27,
984,-0.15,0.26,
985,-0.165,0.245,
986,-0.165,0.255,
987,-0.15,0.255,
988,-0.145,0.285,
989,-0.135,0.28,
990,-0.14,0.275,
991,-0.135,0.27,
992,-0.15,0.275,
993,-0.135,0.285,
994,-0.11,0.3,
995,-0.11,0.295,
996,-0.105,0.3,
997,-0.11,0.28,
998,-0.125,0.285,
999,-0.105,0.32,
1000,-0.1,0.32,
1001,-0.095,0.32,
1002,-0.1,0.32,
1003,-0.11,0.315,
1004,-0.105,0.325,
1005,-0.1,0.335,
1006,-0.085,0.345,
1007,-0.07,0.345,
1008,-0.08,0.34,
1009,-0.085,0.35,
1010,-0.08,0.365,
1011,-0.07,0.39,
1012,-0.05,0.39,
1013,-0.045,0.4,
1014,-0.06,0.395,
1015,-0.06,0.395,
1016,-0.07,0.415,
1017,-0.05,0.435,
1018,-0.035,0.435,
1019,-0.035,0.445,
1020,-0.04,0.435,
1021,-0.055,0.44,
1022,-0.035,0.46,
1023,-0.03,0.475,
1024,-0.015,0.475,
1025,-0.005,0.47,
1026,-0.005,0.46,
1027,-0.005,0.455,
1028,0.005,0.465,
1029,0.015,0.48,
1030,0.025,0.475,
1031,0.04,0.485,
1032,0.025,0.47,
1033,0.025,0.47,
1034,0.04,0.48,
1035,0.05,0.485,
1036,0.065,0.485,
1037,0.07,0.485,
1038,0.07,0.48,
1039,0.065,0.475,
1040,0.07,0.485,
1041,0.085,0.485,
1042,0.1,0.49,
1043,0.11,0.485,
1044,0.1,0.47,
1045,0.08,0.48,
1046,0.085,0.475,
1047,0.075,0.48,
1048,0.06,0.47,
1049,0.035,0.445,
1050,0.015,0.43,
1051,0.0,0.425,
1052,-0.01,0.415,
1053,-0.005,0.425,
1054,-0.02,0.41,
1055,-0.03,0.395,
1056,-0.05,0.375,
1057,-0.08,0.37,
1058,-0.085,0.355,
1059,-0.08,0.35,
1060,-0.065,0.355,
1061,-0.08,0.33,
1062,-0.095,0.315,
1063,-0.105,0.305,
1064,-0.115,0.305,
1065,-0.11,0.315,
1066,-0.11,0.29,
1067,-0.12,0.285,
1068,-0.125,0.275,
1069,-0.145,0.25,
1070,-0.14,0.255,
1071,-0.135,0.26,
1072,-0.135,0.255,
1073,-0.14,0.235,
1074,-0.155,0.24,
1075,-0.17,0.21,
1076,-0.165,0.22,
1077,-0.15,0.225,
1078,-0.15,0.22,
1079,-0.17,0.205,
1080,-0.175,0.195,
1081,-0.175,0.185,
1082,-0.175,0.19,
1083,-0.17,0.205,
1084,-0.17,0.185,
1085,-0.165,0.185,
1086,-0.165,0.17,
1087,-0.19,0.16,
1088,-0.19,0.175,
1089,-0.19,0.185,
1090,-0.175,0.18,
1091,-0.175,0.16,
1092,-0.19,0.155,
1093,-0.2,0.155,
1094,-0.19,0.155,
1095,-0.19,0.165,
1096,-0.195,0.175,
1097,-0.195,0.175,
1098,-0.205,0.155,
1099,-0.21,0.145,
1100,-0.195,0.155,
1101,-0.2,0.17,
1102,-0.18,0.155,
1103,-0.185,0.155,
1104,-0.19,0.145,
1105,-0.2,0.15,
1106,-0.2,0.155,
1107,-0.2,0.155,
1108,-0.185,0.15,
1109,-0.21,0.14,
1110,-0.21,0.135,
1111,-0.215,0.13,
1112,-0.21,0.14,
1113,-0.21,0.145,
1114,-0.21,0.15,
1115,-0.215,0.14,
1116,-0.21,0.125,
1117,-0.24,0.135,
1118,-0.23,0.145,
1119,-0.215,0.155,
1120,-0.215,0.16,
1121,-0.22,0.145,
1122,-0.23,0.14,
1123,-0.24,0.125,
1124,-0.24,0.14,
1125,-0.24,0.14,
1126,-0.225,0.14,
1127,-0.225,0.135,
1128,-0.24,0.125,
1129,-0.245,0.115,
1130,-0.245,0.135,
1131,-0.245,0.14,
1132,-0.24,0.12,
1133,-0.24,0.12,
1134,-0.255,0.115,
1135,-0.255,0.12,
1136,-0.255,0.125,
1137,-0.25,0.12,
1138,-0.24,0.11,
1139,-0.24,0.11,
1140,-0.25,0.1,
1141,-0.255,0.095,
1142,-0.26,0.105,
1143,-0.245,0.115,
1144,-0.245,0.12,
1145,-0.255,0.11,
1146,-0.265,0.095,
1147,-0.265,0.09,
1148,-0.265,0.105,
1149,-0.26,0.115,
1150,-0.255,0.115,
1151,-0.25,0.11,
1152,-0.26,0.1,
1153,-0.285,0.095,
1154,-0.27,0.11,
1155,-0.265,0.105,
1156,-0.27,0.11,
1157,-0.26,0.105,
1158,-0.27,0.095,
1159,-0.275,0.09,
1160,-0.275,0.095,
1161,-0.26,0.1,
1162,-0.26,0.1,
1163,-0.265,0.1,
1164,-0.27,0.085,
1165,-0.275,0.09,
1166,-0.27,0.085,
1167,-0.275,0.105,
1168,-0.26,0.11,
1169,-0.26,0.1,
1170,-0.275,0.09,
1171,-0.28,0.095,
1172,-0.28,0.1,
1173,-0.265,0.1,
1174,-0.255,0.115,
1175,-0.25,0.1,
1176,-0.26,0.095,
1177,-0.26,0.095,
1178,-0.255,0.095,
1179,-0.24,0.12,
1180,-0.215,0.115,
1181,-0.195,0.11,
1182,-0.15,0.115,
1183,-0.04,0.125,
1184,0.31,0.155,
1185,0.79,0.285,
1186,0.88,0.63,
1187,0.48,0.825,
1188,0.095,0.625,/
1189,-0.025,0.385,
1190,0.005,0.29,
1191,0.025,0.29,
1192,0.025,0.29,
1193,0.0,0.255,
1194,-0.035,0.23,
1195,-0.05,0.22,
1196,-0.045,0.21,
1197,-0.045,0.205,
1198,-0.04,0.17,
1199,-0.05,0.135,
1200,-0.085,0.095,
1201,-0.095,0.075,
1202,-0.11,0.06,
1203,-0.12,0.045,
1204,-0.13,0.035,
1205,-0.16,0.01,
1206,-0.215,-0.025,
1207,-0.27,-0.03,
1208,-0.315,-0.055,
1209,-0.345,-0.065,
1210,-0.4,-0.09,
1211,-0.475,-0.12,
1212,-0.57,-0.14,
1213,-0.66,-0.145,
1214,-0.72,-0.145,
1215,-0.765,-0.155,
1216,-0.82,-0.165,
1217,-0.885,-0.195,
1218,-0.945,-0.25,
1219,-0.975,-0.31,
1220,-0.985,-0.36,
1221,-1.005,-0.39,
1222,-0.99,-0.44,
1223,-1.0,-0.47,
1224,-1.005,-0.515,
1225,-1.015,-0.565,
1226,-1.005,-0.595,
1227,-0.99,-0.64,
1228,-0.96,-0.68,
1229,-0.93,-0.705,
1230,-0.895,-0.755,
1231,-0.84,-0.765,
1232,-0.775,-0.755,
1233,-0.705,-0.725,
1234,-0.65,-0.69,
1235,-0.59,-0.66,
1236,-0.55,-0.615,
1237,-0.51,-0.56,
1238,-0.475,-0.49,
1239,-0.43,-0.425,
1240,-0.395,-0.365,
1241,-0.375,-0.315,
1242,-0.37,-0.275,
1243,-0.375,-0.23,
1244,-0.365,-0.185,
1245,-0.345,-0.15,
1246,-0.32,-0.125,
1247,-0.3,-0.1,
1248,-0.295,-0.085,
1249,-0.3,-0.08,
1250,-0.305,-0.045,
1251,-0.295,-0.02,
1252,-0.28,-0.005,
1253,-0.275,0.01,
1254,-0.28,0.025,
1255,-0.28,0.045,
1256,-0.275,0.085,
1257,-0.245,0.12,
1258,-0.215,0.145,
1259,-0.205,0.16,
1260,-0.21,0.175,
1261,-0.225,0.175,
1262,-0.21,0.19,
1263,-0.19,0.215,
1264,-0.165,0.205,
1265,-0.16,0.2,
1266,-0.165,0.2,
1267,-0.17,0.22,
1268,-0.155,0.22,
1269,-0.16,0.22,
1270,-0.145,0.225,
1271,-0.145,0.225,
1272,-0.16,0.225,
1273,-0.155,0.22,
1274,-0.145,0.225,
1275,-0.125,0.245,
1276,-0.125,0.245,
1277,-0.12,0.25,
1278,-0.12,0.245,
1279,-0.13,0.245,
1280,-0.115,0.265,
1281,-0.105,0.265,
1282,-0.105,0.265,
1283,-0.1,0.26,
1284,-0.105,0.255,
1285,-0.11,0.265,
1286,-0.11,0.28,
1287,-0.085,0.29,
1288,-0.075,0.285,
1289,-0.09,0.285,
1290,-0.07,0.285,
1291,-0.09,0.28,
1292,-0.07,0.3,
1293,-0.065,0.315,
1294,-0.05,0.33,
1295,-0.06,0.32,
1296,-0.055,0.325,
1297,-0.055,0.335,
1298,-0.05,0.335,
1299,-0.03,0.36,
1300,-0.03,0.355,
1301,-0.015,0.36,
1302,-0.01,0.36,
1303,-0.02,0.365,
1304,-0.015,0.38,
1305,-0.005,0.4,
1306,0.005,0.395,
1307,0.005,0.395,
1308,0.005,0.4,
1309,0.005,0.405,
1310,0.01,0.415,
1311,0.025,0.435,
1312,0.045,0.44,
1313,0.04,0.435,
1314,0.035,0.425,
1315,0.045,0.44,
1316,0.035,0.45,
1317,0.05,0.465,
1318,0.045,0.455,
1319,0.06,0.455,
1320,0.055,0.45,
1321,0.03,0.445,
1322,0.04,0.46,
1323,0.045,0.47,
1324,0.06,0.45,
1325,0.055,0.455,
1326,0.03,0.44,
1327,0.025,0.435,
1328,0.025,0.435,
1329,0.03,0.445,
1330,0.025,0.43,
1331,0.005,0.42,
1332,0.0,0.41,
1333,-0.02,0.405,
1334,-0.015,0.415,
1335,-0.01,0.415,
1336,-0.02,0.405,
1337,-0.025,0.385,
1338,-0.05,0.355,
1339,-0.055,0.36,
1340,-0.06,0.355,
1341,-0.065,0.36,
1342,-0.07,0.35,
1343,-0.075,0.325,
1344,-0.085,0.305,
1345,-0.11,0.29,
1346,-0.11,0.3,
1347,-0.105,0.3,
1348,-0.105,0.285,
1349,-0.12,0.275,
1350,-0.135,0.245,
1351,-0.145,0.24,
1352,-0.145,0.245,
1353,-0.145,0.25,
1354,-0.13,0.235,
1355,-0.15,0.22,
1356,-0.15,0.2,
1357,-0.16,0.2,
1358,-0.17,0.205,
1359,-0.16,0.22,
1360,-0.15,0.21,
1361,-0.165,0.2,
1362,-0.165,0.195,
1363,-0.185,0.185,
1364,-0.19,0.19,
1365,-0.18,0.205,
1366,-0.185,0.215,
1367,-0.185,0.195,
1368,-0.195,0.19,
1369,-0.21,0.18,
1370,-0.215,0.205,
1371,-0.2,0.195,
1372,-0.205,0.19,
1373,-0.195,0.175,
1374,-0.21,0.17,
1375,-0.215,0.16,
1376,-0.21,0.165,
1377,-0.2,0.16,
1378,-0.19,0.155,
1379,-0.18,0.14,
1380,-0.175,0.145,
1381,-0.185,0.13,
1382,-0.2,0.13,
1383,-0.195,0.14,
1384,-0.18,0.145,
1385,-0.185,0.13,
1386,-0.185,0.13,
1387,-0.195,0.13,
1388,-0.185,0.145,
1389,-0.175,0.155,
1390,-0.165,0.145,
1391,-0.145,0.14,
1392,-0.155,0.13,
1393,-0.16,0.125,
1394,-0.15,0.14,
1395,-0.155,0.15,
1396,-0.155,0.155,
1397,-0.155,0.14,
1398,-0.19,0.125,
1399,-0.21,0.105,
1400,-0.215,0.12,
1401,-0.215,0.125,
1402,-0.21,0.115,
1403,-0.215,0.105,
1404,-0.235,0.1,
1405,-0.25,0.09,
1406,-0.255,0.09,
1407,-0.245,0.095,
1408,-0.255,0.09,
1409,-0.25,0.09,
1410,-0.26,0.075,
1411,-0.28,0.075,
1412,-0.27,0.075,
1413,-0.275,0.08,
1414,-0.27,0.075,
1415,-0.27,0.07,
1416,-0.28,0.05,
1417,-0.305,0.055,
1418,-0.285,0.065,
1419,-0.29,0.065,
1420,-0.265,0.075,
1421,-0.28,0.05,
1422,-0.295,0.05,
1423,-0.305,0.045,
1424,-0.3,0.06,
1425,-0.28,0.06,
1426,-0.29,0.055,
1427,-0.28,0.055,
1428,-0.29,0.045,
1429,-0.3,0.04,
1430,-0.295,0.045,
1431,-0.29,0.05,
1432,-0.28,0.045,
1433,-0.285,0.045,
1434,-0.295,0.04,
1435,-0.295,0.04,
1436,-0.29,0.05,
1437,-0.29,0.05,
1438,-0.28,0.055,
1439,-0.275,0.055,
1440,-0.29,0.035,
1441,-0.285,0.04,
1442,-0.29,0.045,
1443,-0.275,0.065,
1444,-0.285,0.055,
1445,-0.285,0.05,
1446,-0.285,0.045,
1447,-0.295,0.035,
1448,-0.295,0.035,
1449,-0.285,0.05,
1450,-0.27,0.055,
1451,-0.265,0.055,
1452,-0.275,0.035,
1453,-0.28,0.045,
1454,-0.285,0.05,
1455,-0.265,0.06,
1456,-0.25,0.06,
1457,-0.25,0.055,
1458,-0.235,0.05,
1459,-0.245,0.045,
1460,-0.22,0.07,
1461,-0.18,0.09,
1462,-0.11,0.11,
1463,0.095,0.125,
1464,0.555,0.185,
1465,0.955,0.49,
1466,0.87,0.85,
1467,0.525,0.85,
1468,0.365,0.585,
1469,0.43,0.435,
1470,0.53,0.405,
1471,0.62,0.415,
1472,0.72,0.4,
1473,0.875,0.4,
1474,1.06,0.38,
1475,1.24,0.38,
1476,1.375,0.365,
1477,1.425,0.325,f
1478,1.385,0.255,
1479,1.21,0.145,
1480,0.975,-0.005,
1481,0.71,-0.14,
1482,0.48,-0.27,
1483,0.265,-0.35,
1484,0.05,-0.375,
1485,-0.145,-0.35,
1486,-0.305,-0.325,
1487,-0.395,-0.285,
1488,-0.435,-0.23,
1489,-0.45,-0.18,
1490,-0.455,-0.13,
1491,-0.44,-0.06,
1492,-0.435,-0.02,
1493,-0.42,-0.01,
1494,-0.425,0.0,
1495,-0.435,0.005,
1496,-0.42,0.015,
1497,-0.42,0.025,
1498,-0.405,0.015,
1499,-0.41,0.015,
1500,-0.43,0.0,
1501,-0.43,0.005,
1502,-0.43,0.005,
1503,-0.425,0.005,
1504,-0.425,0.005,
1505,-0.43,-0.005,
1506,-0.45,-0.005,
1507,-0.465,0.0,
1508,-0.46,0.0,
1509,-0.45,0.01,
1510,-0.44,0.005,
1511,-0.445,-0.01,
1512,-0.455,-0.02,
1513,-0.48,-0.01,
1514,-0.465,-0.01,
1515,-0.46,-0.005,
1516,-0.46,-0.005,
1517,-0.46,-0.025,
1518,-0.48,-0.03,
1519,-0.5,-0.035,
1520,-0.5,-0.03,
1521,-0.49,-0.015,
1522,-0.505,-0.02,
1523,-0.495,-0.025,
1524,-0.5,-0.045,
1525,-0.525,-0.04,
1526,-0.505,-0.04,
1527,-0.51,-0.03,
1528,-0.51,-0.04,
1529,-0.53,-0.04,
1530,-0.535,-0.055,
1531,-0.55,-0.065,
1532,-0.545,-0.06,
1533,-0.535,-0.05,
1534,-0.545,-0.055,
1535,-0.54,-0.065,
1536,-0.55,-0.07,
1537,-0.57,-0.075,
1538,-0.565,-0.075,
1539,-0.55,-0.055,
1540,-0.545,-0.06,
1541,-0.555,-0.08,
1542,-0.58,-0.08,
1543,-0.58,-0.08,
1544,-0.59,-0.08,
1545,-0.575,-0.07,
1546,-0.575,-0.07,
1547,-0.57,-0.085,
1548,-0.585,-0.1,
1549,-0.6,-0.09,
1550,-0.58,-0.09,
1551,-0.585,-0.08,
1552,-0.58,-0.085,
1553,-0.59,-0.095,
1554,-0.59,-0.1,
1555,-0.6,-0.1,
1556,-0.585,-0.1,
1557,-0.57,-0.08,
1558,-0.565,-0.08,
1559,-0.565,-0.09,
1560,-0.57,-0.1,
1561,-0.585,-0.09,
1562,-0.565,-0.08,
1563,-0.56,-0.065,
1564,-0.545,-0.07,
1565,-0.54,-0.075,
1566,-0.555,-0.08,
1567,-0.545,-0.07,
1568,-0.535,-0.06,
1569,-0.51,-0.05,
1570,-0.495,-0.045,
1571,-0.495,-0.05,
1572,-0.49,-0.035,
1573,-0.49,-0.045,
1574,-0.465,-0.03,
1575,-0.455,-0.005,
1576,-0.44,0.0,
1577,-0.445,-0.01,
1578,-0.435,-0.005,
1579,-0.425,0.01,
1580,-0.395,0.03,
1581,-0.39,0.035,
1582,-0.375,0.045,
1583,-0.36,0.045,
1584,-0.345,0.045,
1585,-0.345,0.05,
1586,-0.33,0.075,
1587,-0.31,0.085,
1588,-0.3,0.085,
1589,-0.29,0.08,
1590,-0.295,0.075,
1591,-0.3,0.09,
1592,-0.28,0.09,
1593,-0.27,0.11,
1594,-0.265,0.11,
1595,-0.265,0.115,
1596,-0.265,0.105,
1597,-0.26,0.11,
1598,-0.265,0.11,
1599,-0.26,0.12,
1600,-0.255,0.115,
1601,-0.255,0.115,
1602,-0.25,0.115,
1603,-0.26,0.09,
1604,-0.255,0.11,
1605,-0.26,0.11,
1606,-0.25,0.12,
1607,-0.255,0.115,
1608,-0.255,0.1,
1609,-0.265,0.095,
1610,-0.255,0.105,
1611,-0.245,0.11,
1612,-0.25,0.105,
1613,-0.255,0.09,
1614,-0.27,0.085,
1615,-0.27,0.085,
1616,-0.27,0.09,
1617,-0.265,0.1,
1618,-0.26,0.105,
1619,-0.26,0.09,
1620,-0.275,0.085,
1621,-0.285,0.08,
1622,-0.295,0.085,
1623,-0.285,0.09,
1624,-0.265,0.09,
1625,-0.27,0.09,
1626,-0.275,0.075,
1627,-0.3,0.08,
1628,-0.28,0.08,
1629,-0.28,0.085,
1630,-0.275,0.08,
1631,-0.285,0.08,
1632,-0.3,0.065,
1633,-0.3,0.07,
1634,-0.305,0.09,
1635,-0.305,0.09,
1636,-0.295,0.08,
1637,-0.285,0.075,
1638,-0.305,0.075,
1639,-0.31,0.085,
1640,-0.31,0.085,
1641,-0.305,0.09,
1642,-0.295,0.105,
1643,-0.295,0.085,
1644,-0.31,0.07,
1645,-0.32,0.08,
1646,-0.315,0.095,
1647,-0.305,0.1,
1648,-0.3,0.095,
1649,-0.3,0.09,
1650,-0.305,0.09,
1651,-0.32,0.075,
1652,-0.31,0.085,
1653,-0.31,0.105,
1654,-0.29,0.1,
1655,-0.285,0.085,
1656,-0.305,0.085,
1657,-0.305,0.085,
1658,-0.31,0.085,
1659,-0.3,0.105,
1660,-0.295,0.1,
1661,-0.29,0.09,
1662,-0.305,0.075,
1663,-0.305,0.07,
1664,-0.3,0.09,
1665,-0.285,0.095,
1666,-0.29,0.09,
1667,-0.29,0.08,
1668,-0.295,0.07,
1669,-0.31,0.075,
1670,-0.3,0.075,
1671,-0.3,0.085,
1672,-0.28,0.085,
1673,-0.27,0.08,
1674,-0.29,0.075,
1675,-0.29,0.075,
1676,-0.295,0.085,
1677,-0.285,0.09,
1678,-0.27,0.085,
1679,-0.29,0.075,
1680,-0.3,0.065,
1681,-0.29,0.06,
1682,-0.29,0.07,
1683,-0.28,0.085,
1684,-0.275,0.075,
1685,-0.275,0.075,
1686,-0.28,0.07,
1687,-0.29,0.065,
1688,-0.285,0.075,
1689,-0.275,0.08,
1690,-0.27,0.09,
1691,-0.275,0.085,
1692,-0.285,0.075,
1693,-0.295,0.08,
1694,-0.29,0.095,
1695,-0.295,0.11,
1696,-0.29,0.105,
1697,-0.28,0.095,
1698,-0.29,0.085,
1699,-0.31,0.085,
1700,-0.3,0.1,
1701,-0.29,0.105,
1702,-0.28,0.105,
1703,-0.28,0.095,
1704,-0.29,0.085,
1705,-0.295,0.075,
1706,-0.28,0.08,
1707,-0.265,0.09,
1708,-0.26,0.075,
1709,-0.255,0.07,
1710,-0.25,0.07,
1711,-0.27,0.07,
1712,-0.265,0.065,
1713,-0.25,0.07,
1714,-0.25,0.08,
1715,-0.245,0.06,
1716,-0.245,0.055,
1717,-0.255,0.07,
1718,-0.25,0.075,
1719,-0.225,0.085,
1720,-0.21,0.065,
1721,-0.2,0.065,
1722,-0.205,0.06,
1723,-0.22,0.05,
1724,-0.21,0.065,
1725,-0.2,0.085,
1726,-0.2,0.08,
1727,-0.215,0.08,
1728,-0.245,0.06,
1729,-0.245,0.06,
1730,-0.25,0.075,
1731,-0.25,0.07,
1732,-0.245,0.06,
1733,-0.23,0.05,
1734,-0.25,0.05,
1735,-0.26,0.05,
1736,-0.265,0.05,
1737,-0.27,0.06,
1738,-0.25,0.05,
1739,-0.25,0.055,
1740,-0.245,0.035,
1741,-0.245,0.045,
1742,-0.22,0.05,
1743,-0.19,0.075,
1744,-0.145,0.075,
1745,-0.05,0.075,
1746,0.17,0.085,
1747,0.57,0.155,
1748,0.91,0.39,
1749,0.77,0.725,f
1750,0.365,0.785,
1751,0.095,0.55,
1752,0.025,0.32,
1753,0.045,0.245,
1754,0.045,0.24,
1755,0.02,0.235,
1756,0.015,0.215,
1757,0.0,0.17,
1758,-0.01,0.17,
1759,-0.04,0.155,
1760,-0.03,0.145,
1761,-0.01,0.15,
1762,-0.005,0.13,
1763,-0.025,0.095,
1764,-0.03,0.055,
1765,-0.05,0.025,
1766,-0.055,0.02,
1767,-0.065,0.025,
1768,-0.06,0.01,
1769,-0.075,-0.005,
1770,-0.09,-0.015,
1771,-0.13,-0.03,
1772,-0.145,-0.03,
1773,-0.175,-0.045,
1774,-0.22,-0.06,
1775,-0.26,-0.08,
1776,-0.295,-0.105,
1777,-0.36,-0.115,
1778,-0.43,-0.12,
1779,-0.51,-0.11,
1780,-0.565,-0.125,
1781,-0.6,-0.14,
1782,-0.615,-0.165,
1783,-0.655,-0.165,
1784,-0.675,-0.175,
1785,-0.71,-0.175,
1786,-0.72,-0.2,
1787,-0.735,-0.205,
1788,-0.735,-0.225,
1789,-0.75,-0.23,
1790,-0.71,-0.22,
1791,-0.66,-0.215,
1792,-0.595,-0.205,
1793,-0.535,-0.185,
1794,-0.455,-0.17,
1795,-0.415,-0.185,
1796,-0.35,-0.175,
1797,-0.32,-0.17,
1798,-0.305,-0.2,
1799,-0.335,-0.235,
1800,-0.36,-0.3,
1801,-0.405,-0.36,
1802,-0.435,-0.385,
1803,-0.45,-0.395,
1804,-0.46,-0.385,
1805,-0.485,-0.375,
1806,-0.49,-0.34,
1807,-0.495,-0.305,
1808,-0.47,-0.245,
1809,-0.42,-0.195,
1810,-0.395,-0.145,
1811,-0.36,-0.105,
1812,-0.34,-0.065,
1813,-0.335,-0.01,
1814,-0.31,0.03,
1815,-0.315,0.055,
1816,-0.3,0.065,
1817,-0.29,0.075,
1818,-0.29,0.075,
1819,-0.295,0.075,
1820,-0.265,0.085,
1821,-0.265,0.095,
1822,-0.24,0.095,
1823,-0.22,0.085,
1824,-0.22,0.08,
1825,-0.22,0.07,
1826,-0.225,0.085,
1827,-0.205,0.095,
1828,-0.205,0.09,
1829,-0.2,0.085,
1830,-0.195,0.09,
1831,-0.2,0.075,
1832,-0.195,0.095,
1833,-0.185,0.105,
1834,-0.18,0.105,
1835,-0.175,0.09,
1836,-0.18,0.085,
1837,-0.185,0.09,
1838,-0.175,0.095,
1839,-0.165,0.11,
1840,-0.165,0.105,
1841,-0.165,0.085,
1842,-0.175,0.085,
1843,-0.18,0.08,
1844,-0.175,0.1,
1845,-0.16,0.105,
1846,-0.155,0.11,
1847,-0.16,0.095,
1848,-0.15,0.09,
1849,-0.165,0.09,
1850,-0.145,0.11,
1851,-0.13,0.12,
1852,-0.12,0.105,
1853,-0.125,0.11,
1854,-0.135,0.1,
1855,-0.145,0.095,
1856,-0.135,0.105,
1857,-0.12,0.135,
1858,-0.1,0.12,
1859,-0.11,0.12,
1860,-0.11,0.125,
1861,-0.115,0.11,
1862,-0.105,0.135,
1863,-0.09,0.14,
1864,-0.08,0.16,
1865,-0.09,0.135,
1866,-0.095,0.135,
1867,-0.1,0.14,
1868,-0.09,0.145,
1869,-0.085,0.165,
1870,-0.08,0.155,
1871,-0.075,0.15,
1872,-0.08,0.135,
1873,-0.075,0.145,
1874,-0.08,0.155,
1875,-0.07,0.175,
1876,-0.05,0.165,
1877,-0.05,0.165,
1878,-0.06,0.16,
1879,-0.065,0.17,
1880,-0.05,0.175,
1881,-0.045,0.195,
1882,-0.015,0.195,
1883,-0.02,0.18,
1884,-0.03,0.175,
1885,-0.03,0.18,
1886,-0.025,0.2,
1887,0.0,0.215,
1888,0.0,0.205,
1889,0.0,0.205,
1890,-0.01,0.195,
1891,-0.015,0.195,
1892,-0.015,0.215,
1893,-0.01,0.23,
1894,0.01,0.225,
1895,0.01,0.21,
1896,0.01,0.21,
1897,0.005,0.215,
1898,0.005,0.225,
1899,0.01,0.22,
1900,0.005,0.23,
1901,0.015,0.23,
1902,-0.005,0.215,
1903,-0.01,0.21,
1904,-0.01,0.225,
1905,-0.005,0.22,
1906,-0.015,0.22,
1907,-0.015,0.22,
1908,-0.025,0.2,
1909,-0.045,0.205,
1910,-0.04,0.215,
1911,-0.04,0.225,
1912,-0.05,0.215,
1913,-0.055,0.2,
1914,-0.06,0.19,
1915,-0.09,0.2,
1916,-0.095,0.205,
1917,-0.085,0.215,
1918,-0.08,0.2,
1919,-0.085,0.185,
1920,-0.1,0.185,
1921,-0.115,0.175,
1922,-0.11,0.185,
1923,-0.115,0.19,
1924,-0.11,0.18,
1925,-0.115,0.17,
1926,-0.13,0.155,
1927,-0.135,0.155,
1928,-0.145,0.16,
1929,-0.14,0.165,
1930,-0.145,0.17,
1931,-0.15,0.155,
1932,-0.17,0.14,
1933,-0.185,0.13,
1934,-0.185,0.135,
1935,-0.18,0.135,
1936,-0.18,0.135,
1937,-0.185,0.13,
1938,-0.185,0.12,
1939,-0.205,0.12,
1940,-0.2,0.13,
1941,-0.2,0.135,
1942,-0.19,0.125,
1943,-0.19,0.115,
1944,-0.205,0.11,
1945,-0.23,0.105,
1946,-0.22,0.125,
1947,-0.2,0.13,
1948,-0.21,0.115,
1949,-0.215,0.115,
1950,-0.225,0.1,
1951,-0.24,0.105,
1952,-0.225,0.11,
1953,-0.22,0.12,
1954,-0.215,0.12,
1955,-0.225,0.095,
1956,-0.22,0.1,
1957,-0.235,0.1,
1958,-0.22,0.095,
1959,-0.205,0.11,
1960,-0.2,0.105,
1961,-0.225,0.09,
1962,-0.235,0.09,
1963,-0.245,0.08,
1964,-0.25,0.09,
1965,-0.235,0.105,
1966,-0.22,0.095,
1967,-0.21,0.095,
1968,-0.22,0.09,
1969,-0.23,0.08,
1970,-0.245,0.095,
1971,-0.24,0.11,
1972,-0.24,0.105,
1973,-0.245,0.09,
1974,-0.25,0.08,
1975,-0.26,0.075,
1976,-0.255,0.095,
1977,-0.255,0.095,
1978,-0.245,0.08,
1979,-0.245,0.085,
1980,-0.25,0.085,
1981,-0.25,0.08,
1982,-0.24,0.09,
1983,-0.23,0.105,
1984,-0.22,0.09,
1985,-0.23,0.085,
1986,-0.24,0.08,
1987,-0.255,0.08,
1988,-0.255,0.09,
1989,-0.24,0.105,
1990,-0.24,0.1,
1991,-0.235,0.095,
1992,-0.25,0.08,
1993,-0.265,0.095,
1994,-0.255,0.085,
1995,-0.26,0.09,
1996,-0.245,0.085,
1997,-0.25,0.08,
1998,-0.26,0.07,
1999,-0.27,0.085,
2000,-0.26,0.085,
2001,-0.25,0.085,
2002,-0.25,0.095,
2003,-0.26,0.085,
2004,-0.26,0.07,
2005,-0.255,0.075,
2006,-0.25,0.075,
2007,-0.25,0.085,
2008,-0.24,0.095,
2009,-0.245,0.085,
2010,-0.255,0.065,
2011,-0.26,0.06,
2012,-0.26,0.07,
2013,-0.255,0.08,
2014,-0.26,0.07,
2015,-0.26,0.065,
2016,-0.275,0.055,
2017,-0.275,0.06,
2018,-0.27,0.075,
2019,-0.255,0.07,
2020,-0.265,0.065,
2021,-0.26,0.065,
2022,-0.275,0.055,
2023,-0.305,0.06,
2024,-0.29,0.06,
2025,-0.285,0.055,
2026,-0.275,0.055,
2027,-0.275,0.05,
2028,-0.28,0.04,
2029,-0.29,0.05,
2030,-0.285,0.045,
2031,-0.28,0.06,
2032,-0.275,0.05,
2033,-0.265,0.035,
2034,-0.285,0.035,
2035,-0.3,0.035,
2036,-0.28,0.045,
2037,-0.28,0.06,
2038,-0.275,0.045,
2039,-0.275,0.04,
2040,-0.285,0.035,
2041,-0.29,0.04,
2042,-0.285,0.045,
2043,-0.27,0.055,
2044,-0.26,0.055,
2045,-0.275,0.045,
2046,-0.28,0.05,
2047,-0.295,0.04,
2048,-0.295,0.055,
2049,-0.285,0.06,
2050,-0.275,0.055,
2051,-0.285,0.045,
2052,-0.265,0.065,
2053,-0.27,0.07,
2054,-0.245,0.08,
2055,-0.22,0.105,
2056,-0.18,0.11,
2057,-0.105,0.115,
2058,0.07,0.12,
2059,0.48,0.18,
2060,0.885,0.44,
2061,0.77,0.79,
2062,0.35,0.835,/
2063,0.05,0.57,
2064,-0.025,0.335,
2065,0.0,0.26,
2066,0.015,0.255,
2067,0.0,0.235,
2068,-0.025,0.21,
2069,-0.03,0.175,
2070,-0.04,0.16,
2071,-0.06,0.14,
2072,-0.055,0.145,
2073,-0.045,0.11,
2074,-0.06,0.09,
2075,-0.075,0.035,
2076,-0.08,-0.005,
2077,-0.08,-0.03,
2078,-0.07,-0.03,
2079,-0.06,-0.045,
2080,-0.05,-0.075,
2081,-0.09,-0.105,
2082,-0.14,-0.14,
2083,-0.21,-0.135,
2084,-0.265,-0.16,
2085,-0.32,-0.165,
2086,-0.385,-0.2,
2087,-0.485,-0.235,
2088,-0.6,-0.245,
2089,-0.695,-0.27,
2090,-0.755,-0.26,
2091,-0.785,-0.26,
2092,-0.85,-0.28,
2093,-0.915,-0.31,
2094,-0.99,-0.34,
2095,-1.05,-0.38,
2096,-1.075,-0.405,
2097,-1.065,-0.435,
2098,-1.07,-0.485,
2099,-1.075,-0.51,
2100,-1.105,-0.535,
2101,-1.1,-0.55,
2102,-1.07,-0.58,
2103,-1.045,-0.595,
2104,-1.02,-0.625,
2105,-1.0,-0.65,
2106,-0.99,-0.675,
2107,-0.97,-0.7,
2108,-0.93,-0.715,
2109,-0.87,-0.735,
2110,-0.815,-0.765,
2111,-0.77,-0.765,
2112,-0.75,-0.75,
2113,-0.715,-0.72,
2114,-0.66,-0.675,
2115,-0.605,-0.65,
2116,-0.545,-0.585,
2117,-0.495,-0.555,
2118,-0.475,-0.515,
2119,-0.46,-0.46,
2120,-0.425,-0.385,
2121,-0.405,-0.31,
2122,-0.38,-0.27,
2123,-0.375,-0.225,
2124,-0.375,-0.2,
2125,-0.355,-0.175,
2126,-0.335,-0.13,
2127,-0.31,-0.095,
2128,-0.305,-0.08,
2129,-0.29,-0.07,
2130,-0.315,-0.065,
2131,-0.335,-0.045,
2132,-0.335,-0.03,
2133,-0.325,-0.005,
2134,-0.325,0.01,
2135,-0.325,0.025,
2136,-0.315,0.03,
2137,-0.295,0.055,
2138,-0.265,0.085,
2139,-0.25,0.115,
2140,-0.225,0.12,
2141,-0.23,0.13,
2142,-0.23,0.13,
2143,-0.225,0.14,
2144,-0.21,0.16,
2145,-0.185,0.17,
2146,-0.17,0.16,
2147,-0.175,0.155,
2148,-0.175,0.15,
2149,-0.165,0.15,
2150,-0.155,0.165,
2151,-0.14,0.18,
2152,-0.145,0.17,
2153,-0.14,0.18,
2154,-0.14,0.175,
2155,-0.145,0.18,
2156,-0.13,0.19,
2157,-0.11,0.2,
2158,-0.095,0.19,
2159,-0.11,0.2,
2160,-0.105,0.19,
2161,-0.115,0.19,
2162,-0.105,0.21,
2163,-0.095,0.215,
2164,-0.085,0.22,
2165,-0.09,0.215,
2166,-0.08,0.21,
2167,-0.09,0.215,
2168,-0.085,0.225,
2169,-0.075,0.24,
2170,-0.065,0.24,
2171,-0.06,0.235,
2172,-0.08,0.24,
2173,-0.075,0.245,
2174,-0.075,0.245,
2175,-0.065,0.27,
2176,-0.06,0.265,
2177,-0.06,0.255,
2178,-0.05,0.265,
2179,-0.07,0.265,
2180,-0.07,0.275,
2181,-0.055,0.295,
2182,-0.05,0.285,
2183,-0.05,0.285,
2184,-0.04,0.28,
2185,-0.045,0.285,
2186,-0.035,0.295,
2187,-0.02,0.31,
2188,-0.02,0.31,
2189,-0.025,0.315,
2190,-0.02,0.305,
2191,-0.025,0.305,
2192,-0.015,0.305,
2193,-0.015,0.335,
2194,-0.01,0.335,
2195,-0.005,0.33,
2196,-0.01,0.33,
2197,-0.02,0.325,
2198,-0.025,0.345,
2199,-0.005,0.365,
2200,0.0,0.355,
2201,0.01,0.355,
2202,-0.005,0.35,
2203,-0.015,0.355,
2204,0.0,0.365,
2205,0.0,0.36,
2206,0.005,0.365,
2207,-0.005,0.355,
2208,0.0,0.35,
2209,-0.01,0.34,
2210,-0.01,0.345,
2211,0.0,0.36,
2212,-0.005,0.355,
2213,-0.01,0.34,
2214,-0.025,0.335,
2215,-0.025,0.33,
2216,-0.015,0.35,
2217,-0.02,0.335,
2218,-0.015,0.325,
2219,-0.035,0.305,
2220,-0.05,0.3,
2221,-0.055,0.3,
2222,-0.065,0.31,
2223,-0.07,0.31,
2224,-0.075,0.29,
2225,-0.075,0.285,
2226,-0.09,0.275,
2227,-0.125,0.26,
2228,-0.105,0.265,
2229,-0.115,0.255,
2230,-0.125,0.255,
2231,-0.125,0.23,
2232,-0.135,0.22,
2233,-0.155,0.205,
2234,-0.155,0.215,
2235,-0.15,0.215,
2236,-0.15,0.195,
2237,-0.17,0.185,
2238,-0.17,0.175,
2239,-0.18,0.16,
2240,-0.18,0.175,
2241,-0.18,0.17,
2242,-0.165,0.17,
2243,-0.18,0.165,
2244,-0.2,0.135,
2245,-0.205,0.14,
2246,-0.195,0.14,
2247,-0.185,0.155,
2248,-0.18,0.135,
2249,-0.2,0.12,
2250,-0.21,0.11,
2251,-0.21,0.105,
2252,-0.215,0.125,
2253,-0.205,0.12,
2254,-0.195,0.11,
2255,-0.21,0.1,
2256,-0.21,0.095,
2257,-0.22,0.105,
2258,-0.22,0.095,
2259,-0.21,0.11,
2260,-0.205,0.09,
2261,-0.215,0.095,
2262,-0.205,0.085,
2263,-0.225,0.085,
2264,-0.215,0.09,
2265,-0.205,0.105,
2266,-0.2,0.095,
2267,-0.205,0.08,
2268,-0.21,0.085,
2269,-0.215,0.075,
2270,-0.22,0.085,
2271,-0.2,0.09,
2272,-0.2,0.095,
2273,-0.21,0.07,
2274,-0.215,0.07,
2275,-0.225,0.075,
2276,-0.22,0.075,
2277,-0.205,0.065,
2278,-0.21,0.08,
2279,-0.205,0.075,
2280,-0.215,0.055,
2281,-0.225,0.07,
2282,-0.22,0.075,
2283,-0.22,0.085,
2284,-0.22,0.085,
2285,-0.23,0.075,
2286,-0.23,0.065,
2287,-0.245,0.065,
2288,-0.23,0.08,
2289,-0.225,0.09,
2290,-0.22,0.075,
2291,-0.225,0.08,
2292,-0.23,0.07,
2293,-0.255,0.05,
2294,-0.245,0.065,
2295,-0.24,0.075,
2296,-0.24,0.07,
2297,-0.24,0.065,
2298,-0.25,0.045,
2299,-0.26,0.055,
2300,-0.26,0.065,
2301,-0.255,0.08,
2302,-0.25,0.06,
2303,-0.255,0.055,
2304,-0.255,0.055,
2305,-0.27,0.05,
2306,-0.275,0.065,
2307,-0.265,0.08,
2308,-0.255,0.06,
2309,-0.255,0.05,
2310,-0.28,0.05,
2311,-0.305,0.04,
2312,-0.28,0.06,
2313,-0.27,0.055,
2314,-0.28,0.05,
2315,-0.28,0.045,
2316,-0.285,0.045,
2317,-0.29,0.04,
2318,-0.285,0.045,
2319,-0.275,0.05,
2320,-0.28,0.055,
2321,-0.28,0.045,
2322,-0.285,0.035,
2323,-0.295,0.03,
2324,-0.3,0.045,
2325,-0.28,0.045,
2326,-0.29,0.05,
2327,-0.29,0.035,
2328,-0.29,0.025,
2329,-0.315,0.03,
2330,-0.3,0.03,
2331,-0.29,0.035,
2332,-0.29,0.03,
2333,-0.29,0.04,
2334,-0.3,0.025,
2335,-0.315,0.025,
2336,-0.3,0.035,
2337,-0.29,0.04,
2338,-0.295,0.03,
2339,-0.28,0.035,
2340,-0.29,0.025,
2341,-0.305,0.02,
2342,-0.305,0.04,
2343,-0.3,0.05,
2344,-0.285,0.045,
2345,-0.29,0.04,
2346,-0.295,0.035,
2347,-0.31,0.02,
2348,-0.295,0.035,
2349,-0.285,0.055,
2350,-0.285,0.04,
2351,-0.275,0.045,
2352,-0.28,0.035,
2353,-0.28,0.04,
2354,-0.24,0.05,
2355,-0.19,0.075,
2356,-0.1,0.085,
2357,0.185,0.115,
2358,0.65,0.295,
2359,0.825,0.66,
2360,0.51,0.85,
2361,0.135,0.64,/
2362,-0.02,0.355,
2363,-0.015,0.23,
2364,0.015,0.215,
2365,-0.015,0.205,
2366,-0.035,0.195,
2367,-0.04,0.19,
2368,-0.04,0.165,
2369,-0.04,0.155,
2370,-0.04,0.13,
2371,-0.055,0.09,
2372,-0.055,0.06,
2373,-0.065,0.035,
2374,-0.055,0.01,
2375,-0.075,-0.005,
2376,-0.095,-0.035,
2377,-0.13,-0.04,
2378,-0.165,-0.05,
2379,-0.195,-0.045,
2380,-0.235,-0.075,
2381,-0.28,-0.105,
2382,-0.33,-0.13,
2383,-0.4,-0.155,
2384,-0.475,-0.16,
2385,-0.57,-0.145,
2386,-0.63,-0.16,
2387,-0.685,-0.18,
2388,-0.735,-0.2,
2389,-0.815,-0.215,
2390,-0.875,-0.215,
2391,-0.925,-0.235,
2392,-0.96,-0.28,
2393,-0.98,-0.325,
2394,-1.02,-0.385,
2395,-1.035,-0.425,
2396,-1.04,-0.425,
2397,-1.05,-0.455,
2398,-1.04,-0.485,
2399,-1.035,-0.535,
2400,-1.04,-0.58,
2401,-1.04,-0.62,
2402,-1.015,-0.645,
2403,-0.975,-0.66,
2404,-0.93,-0.7,
2405,-0.89,-0.735,
2406,-0.835,-0.77,
2407,-0.78,-0.77,
2408,-0.72,-0.735,
2409,-0.65,-0.7,
2410,-0.595,-0.665,
2411,-0.54,-0.63,
2412,-0.505,-0.585,
2413,-0.455,-0.53,
2414,-0.42,-0.45,
2415,-0.38,-0.38,
2416,-0.345,-0.33,
2417,-0.335,-0.275,
2418,-0.325,-0.26,
2419,-0.315,-0.23,
2420,-0.29,-0.19,
2421,-0.255,-0.145,
2422,-0.24,-0.115,
2423,-0.225,-0.105,
2424,-0.235,-0.1,
2425,-0.235,-0.08,
2426,-0.245,-0.055,
2427,-0.24,-0.03,
2428,-0.255,-0.035,
2429,-0.27,-0.035,
2430,-0.27,-0.015,
2431,-0.275,0.005,
2432,-0.26,0.025,
2433,-0.245,0.06,
2434,-0.23,0.08,
2435,-0.22,0.1,
2436,-0.215,0.09,
2437,-0.22,0.12,
2438,-0.2,0.14,
2439,-0.195,0.15,
2440,-0.185,0.16,
2441,-0.18,0.14,
2442,-0.18,0.13,
2443,-0.18,0.145,
2444,-0.175,0.15,
2445,-0.165,0.155,
2446,-0.16,0.155,
2447,-0.155,0.155,
2448,-0.15,0.15,
2449,-0.16,0.155,
2450,-0.155,0.165,
2451,-0.145,0.175,
2452,-0.13,0.175,
2453,-0.14,0.17,
2454,-0.14,0.175,
2455,-0.15,0.195,
2456,-0.145,0.18,
2457,-0.13,0.205,
2458,-0.125,0.205,
2459,-0.125,0.185,
2460,-0.125,0.195,
2461,-0.135,0.205,
2462,-0.13,0.21,
2463,-0.11,0.225,
2464,-0.1,0.22,
2465,-0.115,0.215,
2466,-0.12,0.22,
2467,-0.12,0.225,
2468,-0.11,0.225,
2469,-0.085,0.245,
2470,-0.095,0.245,
2471,-0.095,0.24,
2472,-0.09,0.245,
2473,-0.095,0.25,
2474,-0.075,0.265,
2475,-0.075,0.285,
2476,-0.07,0.29,
2477,-0.055,0.275,
2478,-0.075,0.27,
2479,-0.075,0.285,
2480,-0.06,0.295,
2481,-0.055,0.315,
2482,-0.055,0.31,
2483,-0.05,0.3,
2484,-0.06,0.3,
2485,-0.065,0.315,
2486,-0.055,0.32,
2487,-0.04,0.335,
2488,-0.035,0.335,
2489,-0.04,0.345,
2490,-0.035,0.335,
2491,-0.03,0.335,
2492,-0.02,0.345,
2493,-0.005,0.365,
2494,-0.015,0.37,
2495,0.0,0.36,
2496,-0.005,0.35,
2497,-0.01,0.37,
2498,0.005,0.36,
2499,-0.005,0.385,
2500,0.0,0.39,
2501,0.015,0.375,
2502,0.005,0.37,
2503,0.0,0.37,
2504,-0.005,0.37,
2505,0.005,0.39,
2506,0.01,0.38,
2507,0.0,0.37,
2508,-0.015,0.365,
2509,-0.02,0.36,
2510,-0.025,0.36,
2511,-0.015,0.37,
2512,-0.035,0.365,
2513,-0.04,0.35,
2514,-0.055,0.34,
2515,-0.07,0.325,
2516,-0.06,0.33,
2517,-0.07,0.33,
2518,-0.075,0.325,
2519,-0.08,0.29,
2520,-0.095,0.28,
2521,-0.105,0.29,
2522,-0.105,0.29,
2523,-0.11,0.28,
2524,-0.115,0.27,
2525,-0.13,0.255,
2526,-0.145,0.235,
2527,-0.16,0.23,
2528,-0.165,0.24,
2529,-0.15,0.235,
2530,-0.145,0.23,
2531,-0.175,0.21,
2532,-0.18,0.2,
2533,-0.205,0.185,
2534,-0.2,0.2,
2535,-0.2,0.185,
2536,-0.195,0.185,
2537,-0.195,0.17,
2538,-0.215,0.155,
2539,-0.225,0.16,
2540,-0.225,0.155,
2541,-0.215,0.155,
2542,-0.22,0.15,
2543,-0.225,0.135,
2544,-0.24,0.12,
2545,-0.25,0.125,
2546,-0.245,0.115,
2547,-0.235,0.14,
2548,-0.24,0.125,
2549,-0.25,0.12,
2550,-0.255,0.105,
2551,-0.26,0.1,
2552,-0.27,0.105,
2553,-0.26,0.12,
2554,-0.25,0.11,
2555,-0.255,0.095,
2556,-0.265,0.095,
2557,-0.27,0.085,
2558,-0.27,0.095,
2559,-0.265,0.1,
2560,-0.26,0.09,
2561,-0.27,0.085,
2562,-0.275,0.075,
2563,-0.29,0.075,
2564,-0.29,0.09,
2565,-0.275,0.095,
2566,-0.285,0.095,
2567,-0.295,0.09,
2568,-0.29,0.075,
2569,-0.29,0.08,
2570,-0.305,0.085,
2571,-0.285,0.1,
2572,-0.28,0.085,
2573,-0.3,0.08,
2574,-0.31,0.07,
2575,-0.315,0.06,
2576,-0.31,0.085,
2577,-0.31,0.09,
2578,-0.31,0.08,
2579,-0.32,0.08,
2580,-0.32,0.07,
2581,-0.32,0.055,
2582,-0.325,0.06,
2583,-0.31,0.085,
2584,-0.31,0.08,
2585,-0.32,0.065,
2586,-0.33,0.05,
2587,-0.335,0.055,
2588,-0.345,0.055,
2589,-0.34,0.07,
2590,-0.34,0.055,
2591,-0.325,0.055,
2592,-0.35,0.05,
2593,-0.35,0.045,
2594,-0.34,0.055,
2595,-0.33,0.05,
2596,-0.34,0.05,
2597,-0.345,0.045,
2598,-0.36,0.03,
2599,-0.37,0.02,
2600,-0.36,0.04,
2601,-0.35,0.04,
2602,-0.35,0.035,
2603,-0.36,0.03,
2604,-0.37,0.02,
2605,-0.39,0.025,
2606,-0.375,0.03,
2607,-0.355,0.035,
2608,-0.365,0.025,
2609,-0.365,0.025,
2610,-0.375,0.005,
2611,-0.385,0.0,
2612,-0.385,0.02,
2613,-0.38,0.025,
2614,-0.365,0.03,
2615,-0.375,0.02,
2616,-0.385,-0.005,
2617,-0.39,-0.005,
2618,-0.38,0.01,
2619,-0.37,0.02,
2620,-0.365,0.015,
2621,-0.38,0.01,
2622,-0.385,0.0,
2623,-0.395,0.005,
2624,-0.385,0.005,
2625,-0.38,0.025,
2626,-0.38,0.025,
2627,-0.37,0.005,
2628,-0.39,0.0,
2629,-0.39,0.005,
2630,-0.385,0.01,
2631,-0.37,0.02,
2632,-0.37,0.02,
2633,-0.37,0.015,
2634,-0.37,-0.005,
2635,-0.38,0.005,
2636,-0.36,0.01,
2637,-0.365,0.015,
2638,-0.36,0.01,
2639,-0.36,0.005,
2640,-0.365,0.01,
2641,-0.35,0.01,
2642,-0.34,0.02,
2643,-0.31,0.025,
2644,-0.28,0.025,
2645,-0.245,0.035,
2646,-0.155,0.04,
2647,0.06,0.075,
2648,0.505,0.175,
2649,0.88,0.46,
2650,0.75,0.785,
2651,0.315,0.795,/
2652,0.01,0.515,
2653,-0.07,0.29,
2654,-0.05,0.22,
2655,-0.035,0.225,
2656,-0.065,0.2,
2657,-0.095,0.165,
2658,-0.12,0.15,
2659,-0.125,0.125,
2660,-0.12,0.125,
2661,-0.125,0.12,
2662,-0.115,0.095,
2663,-0.125,0.05,
2664,-0.145,0.025,
2665,-0.16,0.0,
2666,-0.17,-0.015,
2667,-0.16,-0.035,
2668,-0.17,-0.04,
2669,-0.2,-0.07,
2670,-0.225,-0.085,
2671,-0.27,-0.1,
2672,-0.31,-0.105,
2673,-0.335,-0.12,
2674,-0.37,-0.13,
2675,-0.405,-0.15,
2676,-0.445,-0.185,
2677,-0.515,-0.205,
2678,-0.58,-0.21,
2679,-0.665,-0.21,
2680,-0.715,-0.215,
2681,-0.78,-0.24,
2682,-0.83,-0.255,
2683,-0.9,-0.27,
2684,-0.945,-0.27,
2685,-0.99,-0.305,
2686,-1.02,-0.345,
2687,-1.045,-0.41,
2688,-1.065,-0.46,
2689,-1.085,-0.5,
2690,-1.085,-0.52,
2691,-1.07,-0.53,
2692,-1.075,-0.57,
2693,-1.075,-0.61,
2694,-1.08,-0.66,
2695,-1.085,-0.685,
2696,-1.065,-0.705,
2697,-1.045,-0.735,
2698,-1.01,-0.78,
2699,-0.985,-0.8,
2700,-0.94,-0.83,
2701,-0.9,-0.845,
2702,-0.815,-0.845,
2703,-0.77,-0.82,
2704,-0.72,-0.79,
2705,-0.68,-0.75,
2706,-0.635,-0.72,
2707,-0.595,-0.67,
2708,-0.535,-0.6,
2709,-0.5,-0.545,
2710,-0.465,-0.485,
2711,-0.455,-0.445,
2712,-0.44,-0.41,
2713,-0.44,-0.345,
2714,-0.415,-0.3,
2715,-0.41,-0.255,
2716,-0.395,-0.235,
2717,-0.395,-0.22,
2718,-0.385,-0.205,
2719,-0.375,-0.185,
2720,-0.365,-0.16,
2721,-0.34,-0.14,
2722,-0.34,-0.12,
2723,-0.35,-0.12,
2724,-0.36,-0.115,
2725,-0.36,-0.085,
2726,-0.35,-0.055,
2727,-0.33,-0.04,
2728,-0.325,-0.005,
2729,-0.32,0.01,
2730,-0.325,0.025,
2731,-0.31,0.04,
2732,-0.295,0.075,
2733,-0.28,0.105,
2734,-0.275,0.135,
2735,-0.285,0.13,
2736,-0.265,0.12,
2737,-0.265,0.135,
2738,-0.255,0.155,
2739,-0.24,0.165,
2740,-0.23,0.17,
2741,-0.25,0.165,
2742,-0.25,0.155,
2743,-0.245,0.16,
2744,-0.24,0.17,
2745,-0.23,0.17,
2746,-0.22,0.18,
2747,-0.22,0.165,
2748,-0.22,0.155,
2749,-0.225,0.16,
2750,-0.205,0.17,
2751,-0.185,0.175,
2752,-0.175,0.18,
2753,-0.17,0.16,
2754,-0.18,0.16,
2755,-0.18,0.165,
2756,-0.17,0.17,
2757,-0.145,0.185,
2758,-0.15,0.185,
2759,-0.145,0.2,
2760,-0.155,0.195,
2761,-0.16,0.2,
2762,-0.125,0.205,
2763,-0.11,0.21,
2764,-0.095,0.21,
2765,-0.085,0.205,
2766,-0.08,0.19,
2767,-0.08,0.21,
2768,-0.07,0.235,
2769,-0.07,0.255,
2770,-0.07,0.255,
2771,-0.065,0.25,
2772,-0.09,0.24,
2773,-0.1,0.245,
2774,-0.085,0.255,
2775,-0.095,0.27,
2776,-0.08,0.26,
2777,-0.09,0.26,
2778,-0.1,0.255,
2779,-0.11,0.26,
2780,-0.1,0.275,
2781,-0.095,0.295,
2782,-0.095,0.29,
2783,-0.085,0.285,
2784,-0.095,0.29,
2785,-0.095,0.29,
2786,-0.085,0.31,
2787,-0.075,0.31,
2788,-0.07,0.32,
2789,-0.08,0.31,
2790,-0.07,0.315,
2791,-0.08,0.33,
2792,-0.06,0.345,
2793,-0.045,0.35,
2794,-0.035,0.35,
2795,-0.05,0.345,
2796,-0.06,0.345,
2797,-0.055,0.345,
2798,-0.05,0.36,
2799,-0.045,0.36,
2800,-0.045,0.35,
2801,-0.055,0.35,
2802,-0.065,0.34,
2803,-0.075,0.345,
2804,-0.06,0.33,
2805,-0.065,0.355,
2806,-0.065,0.335,
2807,-0.08,0.325,
2808,-0.09,0.325,
2809,-0.12,0.315,
2810,-0.105,0.315,
2811,-0.1,0.325,
2812,-0.115,0.31,
2813,-0.125,0.295,
2814,-0.14,0.28,
2815,-0.165,0.265,
2816,-0.16,0.255,
2817,-0.145,0.265,
2818,-0.155,0.24,
2819,-0.16,0.235,
2820,-0.185,0.215,
2821,-0.205,0.21,
2822,-0.2,0.2,
2823,-0.205,0.205,
2824,-0.21,0.19,
2825,-0.205,0.18,
2826,-0.23,0.16,
2827,-0.235,0.155,
2828,-0.24,0.15,
2829,-0.225,0.145,
2830,-0.23,0.145,
2831,-0.25,0.13,
2832,-0.255,0.115,
2833,-0.265,0.115,
2834,-0.26,0.11,
2835,-0.255,0.11,
2836,-0.255,0.105,
2837,-0.265,0.09,
2838,-0.275,0.085,
2839,-0.275,0.075,
2840,-0.28,0.075,
2841,-0.27,0.09,
2842,-0.27,0.075,
2843,-0.275,0.07,
2844,-0.285,0.06,
2845,-0.295,0.055,
2846,-0.285,0.07,
2847,-0.285,0.075,
2848,-0.295,0.07,
2849,-0.295,0.06,
2850,-0.295,0.055,
2851,-0.305,0.06,
2852,-0.295,0.06,
2853,-0.285,0.06,
2854,-0.295,0.055,
2855,-0.3,0.04,
2856,-0.31,0.035,
2857,-0.32,0.05,
2858,-0.305,0.06,
2859,-0.315,0.055,
2860,-0.31,0.06,
2861,-0.32,0.035,
2862,-0.335,0.025,
2863,-0.335,0.03,
2864,-0.33,0.05,
2865,-0.315,0.07,
2866,-0.33,0.05,
2867,-0.32,0.05,
2868,-0.325,0.03,
2869,-0.35,0.03,
2870,-0.325,0.045,
2871,-0.325,0.045,
2872,-0.32,0.04,
2873,-0.34,0.04,
2874,-0.345,0.03,
2875,-0.355,0.03,
2876,-0.345,0.04,
2877,-0.34,0.055,
2878,-0.345,0.035,
2879,-0.355,0.035,
2880,-0.36,0.025,
2881,-0.365,0.02,
2882,-0.36,0.035,
2883,-0.355,0.03,
2884,-0.355,0.035,
2885,-0.345,0.02,
2886,-0.36,0.005,
2887,-0.375,0.015,
2888,-0.365,0.02,
2889,-0.36,0.02,
2890,-0.355,0.03,
2891,-0.355,0.005,
2892,-0.37,0.01,
2893,-0.385,0.0,
2894,-0.365,0.01,
2895,-0.365,0.015,
2896,-0.36,0.015,
2897,-0.385,-0.005,
2898,-0.385,-0.005,
2899,-0.385,-0.02,
2900,-0.38,0.0,
2901,-0.37,0.005,
2902,-0.365,0.01,
2903,-0.365,-0.005,
2904,-0.38,-0.015,
2905,-0.385,-0.01,
2906,-0.385,-0.015,
2907,-0.38,0.005,
2908,-0.385,-0.005,
2909,-0.385,-0.015,
2910,-0.385,-0.035,
2911,-0.39,-0.015,
2912,-0.385,-0.005,
2913,-0.37,-0.015,
2914,-0.375,-0.015,
2915,-0.37,-0.035,
2916,-0.38,-0.035,
2917,-0.39,-0.015,
2918,-0.38,-0.02,
2919,-0.365,-0.005,
2920,-0.36,-0.005,
2921,-0.355,-0.01,
2922,-0.375,-0.03,
2923,-0.375,-0.015,
2924,-0.37,-0.005,
2925,-0.37,0.005,
2926,-0.355,-0.005,
2927,-0.355,-0.02,
2928,-0.36,-0.025,
2929,-0.355,-0.015,
2930,-0.36,-0.015,
2931,-0.34,-0.005,
2932,-0.33,-0.01,
2933,-0.325,-0.01,
2934,-0.32,-0.015,
2935,-0.295,-0.01,
2936,-0.25,0.02,
2937,-0.155,0.055,
2938,0.11,0.13,
2939,0.55,0.295,
2940,0.765,0.62,
2941,0.485,0.81,
2942,0.115,0.655,/
2943,-0.06,0.385,
2944,-0.065,0.24,
2945,-0.06,0.195,
2946,-0.07,0.18,
2947,-0.1,0.145,
2948,-0.125,0.13,
2949,-0.125,0.12,
2950,-0.13,0.115,
2951,-0.135,0.09,
2952,-0.145,0.06,
2953,-0.145,0.055,
2954,-0.16,0.02,
2955,-0.165,0.0,
2956,-0.175,-0.045,
2957,-0.205,-0.07,
2958,-0.22,-0.095,
2959,-0.24,-0.1,
2960,-0.26,-0.105,
2961,-0.28,-0.11,
2962,-0.33,-0.125,
2963,-0.36,-0.15,
2964,-0.4,-0.185,
2965,-0.445,-0.205,
2966,-0.475,-0.205,
2967,-0.525,-0.225,
2968,-0.59,-0.235,
2969,-0.68,-0.26,
2970,-0.745,-0.27,
2971,-0.805,-0.295,
2972,-0.85,-0.28,
2973,-0.905,-0.285,
2974,-0.95,-0.305,
2975,-1.005,-0.335,
2976,-1.06,-0.4,
2977,-1.055,-0.435,
2978,-1.07,-0.485,
2979,-1.07,-0.52,
2980,-1.07,-0.55,
2981,-1.075,-0.59,
2982,-1.08,-0.62,
2983,-1.08,-0.655,
2984,-1.07,-0.68,
2985,-1.05,-0.72,
2986,-1.04,-0.75,
2987,-1.015,-0.795,
2988,-0.985,-0.82,
2989,-0.945,-0.845,
2990,-0.895,-0.85,
2991,-0.83,-0.865,
2992,-0.77,-0.85,
2993,-0.73,-0.835,
2994,-0.685,-0.79,
2995,-0.645,-0.755,
2996,-0.59,-0.7,
2997,-0.535,-0.64,
2998,-0.505,-0.585,
2999,-0.48,-0.53,
3000,-0.46,-0.495,
3001,-0.435,-0.445,
3002,-0.415,-0.365,
3003,-0.41,-0.325,
3004,-0.395,-0.3,
3005,-0.395,-0.28,
3006,-0.39,-0.25,
3007,-0.39,-0.23,
3008,-0.365,-0.19,
3009,-0.345,-0.16,
3010,-0.335,-0.165,
3011,-0.34,-0.155,
3012,-0.35,-0.14,
3013,-0.36,-0.12,
3014,-0.345,-0.095,
3015,-0.33,-0.065,
3016,-0.32,-0.04,
3017,-0.33,-0.045,
3018,-0.315,-0.02,
3019,-0.305,0.005,
3020,-0.275,0.05,
3021,-0.27,0.065,
3022,-0.26,0.085,
3023,-0.255,0.09,
3024,-0.255,0.08,
3025,-0.255,0.09,
3026,-0.24,0.095,
3027,-0.215,0.115,
3028,-0.21,0.11,
3029,-0.21,0.115,
3030,-0.22,0.09,
3031,-0.225,0.11,
3032,-0.21,0.12,
3033,-0.195,0.125,
3034,-0.19,0.125,
3035,-0.185,0.12,
3036,-0.185,0.11,
3037,-0.2,0.125,
3038,-0.18,0.145,
3039,-0.175,0.16,
3040,-0.165,0.15,
3041,-0.165,0.145,
3042,-0.18,0.14,
3043,-0.175,0.145,
3044,-0.16,0.155,
3045,-0.15,0.18,
3046,-0.155,0.17,
3047,-0.165,0.175,
3048,-0.15,0.17,
3049,-0.155,0.175,
3050,-0.13,0.19,
3051,-0.125,0.2,
3052,-0.115,0.205,
3053,-0.115,0.195,
3054,-0.12,0.205,
3055,-0.135,0.2,
3056,-0.11,0.225,
3057,-0.1,0.23,
3058,-0.095,0.23,
3059,-0.11,0.23,
3060,-0.105,0.23,
3061,-0.105,0.24,
3062,-0.09,0.255,
3063,-0.095,0.275,
3064,-0.085,0.275,
3065,-0.085,0.27,
3066,-0.08,0.27,
3067,-0.08,0.29,
3068,-0.055,0.295,
3069,-0.045,0.325,
3070,-0.04,0.32,
3071,-0.06,0.325,
3072,-0.055,0.32,
3073,-0.05,0.335,
3074,-0.04,0.355,
3075,-0.03,0.375,
3076,-0.02,0.375,
3077,-0.02,0.375,
3078,-0.03,0.375,
3079,-0.04,0.39,
3080,-0.02,0.39,
3081,-0.01,0.395,
3082,0.0,0.395,
3083,-0.005,0.385,
3084,0.01,0.375,
3085,0.005,0.37,
3086,0.01,0.375,
3087,0.005,0.37,
3088,0.01,0.375,
3089,0.0,0.36,
3090,-0.005,0.345,
3091,-0.015,0.325,
3092,0.005,0.34,
3093,0.0,0.34,
3094,0.005,0.335,
3095,-0.005,0.325,
3096,-0.02,0.3,
3097,-0.03,0.295,
3098,-0.02,0.3,
3099,-0.015,0.29,
3100,-0.015,0.29,
3101,-0.025,0.27,
3102,-0.05,0.26,
3103,-0.075,0.23,
3104,-0.08,0.235,
3105,-0.11,0.235,
3106,-0.12,0.215,
3107,-0.125,0.195,
3108,-0.15,0.16,
3109,-0.17,0.17,
3110,-0.16,0.165,
3111,-0.17,0.16,
3112,-0.18,0.15,
3113,-0.19,0.115,
3114,-0.205,0.105,
3115,-0.205,0.1,
3116,-0.21,0.11,
3117,-0.205,0.115,
3118,-0.205,0.1,
3119,-0.225,0.09,
3120,-0.225,0.07,
3121,-0.23,0.065,
3122,-0.245,0.085,
3123,-0.24,0.07,
3124,-0.24,0.06,
3125,-0.23,0.065,
3126,-0.245,0.055,
3127,-0.24,0.05,
3128,-0.25,0.05,
3129,-0.235,0.055,
3130,-0.245,0.055,
3131,-0.25,0.04,
3132,-0.26,0.035,
3133,-0.26,0.035,
3134,-0.26,0.045,
3135,-0.255,0.055,
3136,-0.26,0.045,
3137,-0.255,0.03,
3138,-0.27,0.025,
3139,-0.26,0.025,
3140,-0.27,0.03,
3141,-0.255,0.035,
3142,-0.275,0.05,
3143,-0.28,0.025,
3144,-0.285,0.015,
3145,-0.28,0.02,
3146,-0.28,0.025,
3147,-0.27,0.04,
3148,-0.275,0.04,
3149,-0.28,0.03,
3150,-0.285,0.01,
3151,-0.295,0.02,
3152,-0.285,0.025,
3153,-0.28,0.03,
3154,-0.28,0.035,
3155,-0.285,0.02,
3156,-0.295,0.01,
3157,-0.3,0.015,
3158,-0.3,0.01,
3159,-0.3,0.025,
3160,-0.3,0.025,
3161,-0.305,0.005,
3162,-0.33,0.0,
3163,-0.325,0.0,
3164,-0.315,0.005,
3165,-0.3,0.01,
3166,-0.3,0.01,
3167,-0.31,0.0,
3168,-0.32,-0.01,
3169,-0.325,-0.01,
3170,-0.32,0.0,
3171,-0.32,0.005,
3172,-0.32,0.005,
3173,-0.32,-0.015,
3174,-0.33,-0.01,
3175,-0.35,-0.005,
3176,-0.325,-0.005,
3177,-0.32,-0.005,
3178,-0.335,-0.01,
3179,-0.33,-0.02,
3180,-0.345,-0.03,
3181,-0.355,-0.03,
3182,-0.355,-0.025,
3183,-0.345,-0.02,
3184,-0.345,-0.015,
3185,-0.345,-0.03,
3186,-0.35,-0.035,
3187,-0.35,-0.04,
3188,-0.34,-0.02,
3189,-0.325,-0.025,
3190,-0.325,-0.02,
3191,-0.325,-0.035,
3192,-0.35,-0.04,
3193,-0.36,-0.04,
3194,-0.36,-0.03,
3195,-0.345,-0.03,
3196,-0.345,-0.035,
3197,-0.34,-0.035,
3198,-0.355,-0.045,
3199,-0.36,-0.05,
3200,-0.36,-0.035,
3201,-0.345,-0.03,
3202,-0.34,-0.035,
3203,-0.35,-0.045,
3204,-0.345,-0.055,
3205,-0.355,-0.045,
3206,-0.35,-0.045,
3207,-0.35,-0.03,
3208,-0.335,-0.04,
3209,-0.35,-0.055,
3210,-0.355,-0.055,
3211,-0.365,-0.05,
3212,-0.35,-0.05,
3213,-0.34,-0.025,
3214,-0.345,-0.035,
3215,-0.35,-0.05,
3216,-0.345,-0.065,
3217,-0.35,-0.055,
3218,-0.34,-0.055,
3219,-0.335,-0.04,
3220,-0.335,-0.04,
3221,-0.335,-0.05,
3222,-0.33,-0.065,
3223,-0.34,-0.055,
3224,-0.315,-0.035,
3225,-0.265,-0.02,
3226,-0.235,-0.03,
3227,-0.125,-0.01,
3228,0.14,0.025,
3229,0.595,0.18,
3230,0.875,0.515,
3231,0.655,0.775,
3232,0.225,0.665,/
3233,-0.02,0.375,
3234,-0.065,0.185,
3235,-0.025,0.16,
3236,-0.03,0.16,
3237,-0.05,0.13,
3238,-0.085,0.105,
3239,-0.105,0.09,
3240,-0.12,0.065,
3241,-0.135,0.06,
3242,-0.125,0.04,
3243,-0.13,0.025,
3244,-0.14,-0.02,
3245,-0.155,-0.06,
3246,-0.195,-0.11,
3247,-0.205,-0.12,
3248,-0.195,-0.135,
3249,-0.21,-0.14,
3250,-0.22,-0.16,
3251,-0.245,-0.185,
3252,-0.295,-0.205,
3253,-0.335,-0.225,
3254,-0.365,-0.24,
3255,-0.4,-0.255,
3256,-0.45,-0.29,
3257,-0.505,-0.315,
3258,-0.595,-0.345,
3259,-0.695,-0.345,
3260,-0.77,-0.35,
3261,-0.825,-0.355,
3262,-0.845,-0.36,
3263,-0.915,-0.375,
3264,-0.965,-0.4,
3265,-1.025,-0.425,
3266,-1.06,-0.44,
3267,-1.065,-0.48,
3268,-1.07,-0.535,
3269,-1.08,-0.6,
3270,-1.095,-0.63,
3271,-1.095,-0.65,
3272,-1.08,-0.65,
3273,-1.075,-0.68,
3274,-1.07,-0.715,
3275,-1.06,-0.77,
3276,-1.045,-0.805,
3277,-1.035,-0.82,
3278,-1.0,-0.83,
3279,-0.965,-0.86,
3280,-0.92,-0.88,
3281,-0.88,-0.91,
3282,-0.82,-0.915,
3283,-0.77,-0.885,
3284,-0.7,-0.84,
3285,-0.625,-0.79,
3286,-0.575,-0.735,
3287,-0.525,-0.705,
3288,-0.49,-0.66,
3289,-0.465,-0.595,
3290,-0.43,-0.51,
3291,-0.4,-0.46,
3292,-0.38,-0.4,
3293,-0.39,-0.37,
3294,-0.39,-0.34,
3295,-0.395,-0.295,
3296,-0.38,-0.25,
3297,-0.355,-0.225,
3298,-0.335,-0.2,
3299,-0.32,-0.185,
3300,-0.32,-0.175,
3301,-0.35,-0.17,
3302,-0.34,-0.135,
3303,-0.33,-0.12,
3304,-0.335,-0.09,
3305,-0.33,-0.08,
3306,-0.325,-0.065,
3307,-0.305,-0.045,
3308,-0.29,0.0,
3309,-0.27,0.02,
3310,-0.245,0.03,
3311,-0.24,0.035,
3312,-0.235,0.045,
3313,-0.23,0.06,
3314,-0.225,0.075,
3315,-0.21,0.09,
3316,-0.21,0.085,
3317,-0.185,0.075,
3318,-0.195,0.07,
3319,-0.19,0.075,
3320,-0.175,0.085,
3321,-0.175,0.095,
3322,-0.17,0.095,
3323,-0.185,0.095,
3324,-0.185,0.09,
3325,-0.195,0.085,
3326,-0.175,0.105,
3327,-0.145,0.115,
3328,-0.12,0.125,
3329,-0.12,0.115,
3330,-0.13,0.105,
3331,-0.14,0.12,
3332,-0.14,0.135,
3333,-0.12,0.145,
3334,-0.12,0.145,
3335,-0.105,0.14,
3336,-0.11,0.135,
3337,-0.11,0.155,
3338,-0.105,0.165,
3339,-0.095,0.18,
3340,-0.09,0.19,
3341,-0.1,0.18,
3342,-0.105,0.17,
3343,-0.1,0.185,
3344,-0.08,0.2,
3345,-0.065,0.22,
3346,-0.04,0.22,
3347,-0.045,0.21,
3348,-0.05,0.21,
3349,-0.04,0.22,
3350,-0.03,0.23,
3351,-0.025,0.25,
3352,-0.025,0.25,
3353,-0.025,0.25,
3354,-0.055,0.245,
3355,-0.05,0.265,
3356,-0.055,0.28,
3357,-0.025,0.29,
3358,-0.01,0.295,
3359,-0.005,0.295,
3360,-0.01,0.3,
3361,-0.005,0.3,
3362,-0.005,0.305,
3363,0.005,0.32,
3364,0.01,0.32,
3365,0.005,0.32,
3366,0.015,0.305,
3367,0.01,0.325,
3368,0.025,0.335,
3369,0.025,0.34,
3370,0.005,0.335,
3371,0.005,0.325,
3372,-0.01,0.315,
3373,-0.005,0.325,
3374,0.005,0.33,
3375,0.01,0.325,
3376,0.02,0.325,
3377,0.02,0.315,
3378,0.0,0.3,
3379,-0.015,0.305,
3380,-0.02,0.3,
3381,-0.025,0.295,
3382,-0.03,0.29,
3383,-0.055,0.275,
3384,-0.075,0.255,
3385,-0.085,0.255,
3386,-0.085,0.26,
3387,-0.095,0.245,
3388,-0.105,0.22,
3389,-0.125,0.2,
3390,-0.145,0.185,
3391,-0.16,0.175,
3392,-0.155,0.185,
3393,-0.155,0.185,
3394,-0.16,0.165,
3395,-0.16,0.145,
3396,-0.165,0.12,
3397,-0.175,0.12,
3398,-0.18,0.12,
3399,-0.19,0.12,
3400,-0.195,0.105,
3401,-0.215,0.095,
3402,-0.23,0.085,
3403,-0.24,0.08,
3404,-0.23,0.09,
3405,-0.215,0.085,
3406,-0.23,0.075,
3407,-0.235,0.07,
3408,-0.26,0.065,
3409,-0.265,0.065,
3410,-0.255,0.07,
3411,-0.25,0.075,
3412,-0.25,0.07,
3413,-0.27,0.055,
3414,-0.28,0.04,
3415,-0.275,0.045,
3416,-0.26,0.045,
3417,-0.245,0.06,
3418,-0.26,0.04,
3419,-0.285,0.03,
3420,-0.275,0.02,
3421,-0.275,0.02,
3422,-0.275,0.03,
3423,-0.27,0.025,
3424,-0.265,0.025,
3425,-0.265,0.02,
3426,-0.255,0.005,
3427,-0.245,0.01,
3428,-0.245,0.015,
3429,-0.235,0.01,
3430,-0.245,0.015,
3431,-0.245,0.005,
3432,-0.25,0.0,
3433,-0.25,0.005,
3434,-0.23,0.005,
3435,-0.215,0.01,
3436,-0.215,0.01,
3437,-0.215,0.005,
3438,-0.21,0.0,
3439,-0.205,0.015,
3440,-0.2,0.02,
3441,-0.195,0.03,
3442,-0.205,0.025,
3443,-0.23,0.0,
3444,-0.235,-0.015,
3445,-0.255,-0.01,
3446,-0.265,0.0,
3447,-0.26,-0.015,
3448,-0.26,-0.025,
3449,-0.28,-0.025,
3450,-0.305,-0.035,
3451,-0.32,-0.04,
3452,-0.31,-0.04,
3453,-0.295,-0.025,
3454,-0.295,-0.035,
3455,-0.3,-0.04,
3456,-0.3,-0.045,
3457,-0.31,-0.045,
3458,-0.315,-0.035,
3459,-0.315,-0.03,
3460,-0.32,-0.045,
3461,-0.315,-0.05,
3462,-0.32,-0.075,
3463,-0.31,-0.055,
3464,-0.315,-0.055,
3465,-0.305,-0.045,
3466,-0.3,-0.05,
3467,-0.31,-0.06,
3468,-0.32,-0.065,
3469,-0.32,-0.055,
3470,-0.31,-0.055,
3471,-0.31,-0.06,
3472,-0.3,-0.05,
3473,-0.325,-0.06,
3474,-0.325,-0.075,
3475,-0.33,-0.065,
3476,-0.32,-0.05,
3477,-0.32,-0.065,
3478,-0.325,-0.065,
3479,-0.325,-0.06,
3480,-0.32,-0.09,
3481,-0.335,-0.075,
3482,-0.325,-0.07,
3483,-0.32,-0.07,
3484,-0.315,-0.075,
3485,-0.315,-0.07,
3486,-0.335,-0.1,
3487,-0.325,-0.085,
3488,-0.315,-0.09,
3489,-0.3,-0.065,
3490,-0.3,-0.065,
3491,-0.305,-0.075,
3492,-0.305,-0.08,
3493,-0.31,-0.075,
3494,-0.3,-0.065,
3495,-0.29,-0.06,
3496,-0.295,-0.06,
3497,-0.29,-0.065,
3498,-0.29,-0.08,
3499,-0.29,-0.08,
3500,-0.28,-0.065,
3501,-0.27,-0.065,
3502,-0.275,-0.05,
3503,-0.275,-0.065,
3504,-0.26,-0.06,
3505,-0.26,-0.045,
3506,-0.25,-0.04,
3507,-0.24,-0.02,
3508,-0.205,-0.005,
3509,-0.15,-0.005,
3510,-0.04,0.0,
3511,0.16,0.04,
3512,0.63,0.125,
3513,1.095,0.42,
3514,1.085,0.785,
3515,0.765,0.775,
3516,0.565,0.535,
3517,0.605,0.385,
3518,0.795,0.355,
3519,0.965,0.37,
3520,1.12,0.365,
3521,1.265,0.34,
3522,1.41,0.31,f
3523,1.5,0.295,
3524,1.495,0.24,
3525,1.375,0.14,
3526,1.16,0.0,
3527,0.92,-0.155,
3528,0.68,-0.295,
3529,0.475,-0.36,
3530,0.305,-0.385,
3531,0.11,-0.405,
3532,-0.085,-0.41,
3533,-0.28,-0.4,
3534,-0.4,-0.36,
3535,-0.465,-0.32,
3536,-0.47,-0.27,
3537,-0.455,-0.24,
3538,-0.46,-0.195,
3539,-0.46,-0.165,
3540,-0.45,-0.145,
3541,-0.455,-0.125,
3542,-0.435,-0.095,
3543,-0.43,-0.085,
3544,-0.415,-0.085,
3545,-0.415,-0.09,
3546,-0.425,-0.1,
3547,-0.425,-0.1,
3548,-0.425,-0.09,
3549,-0.415,-0.075,
3550,-0.405,-0.095,
3551,-0.415,-0.09,
3552,-0.425,-0.11,
3553,-0.435,-0.1,
3554,-0.43,-0.095,
3555,-0.43,-0.09,
3556,-0.425,-0.09,
3557,-0.44,-0.095,
3558,-0.435,-0.11,
3559,-0.45,-0.1,
3560,-0.435,-0.095,
3561,-0.435,-0.09,
3562,-0.445,-0.095,
3563,-0.445,-0.11,
3564,-0.45,-0.135,
3565,-0.46,-0.115,
3566,-0.46,-0.115,
3567,-0.46,-0.11,
3568,-0.47,-0.115,
3569,-0.485,-0.12,
3570,-0.495,-0.145,
3571,-0.5,-0.135,
3572,-0.49,-0.12,
3573,-0.49,-0.13,
3574,-0.49,-0.12,
3575,-0.505,-0.14,
3576,-0.515,-0.14,
3577,-0.52,-0.155,
3578,-0.51,-0.14,
3579,-0.51,-0.13,
3580,-0.515,-0.145,
3581,-0.52,-0.155,
3582,-0.54,-0.15,
3583,-0.535,-0.16,
3584,-0.55,-0.155,
3585,-0.535,-0.145,
3586,-0.54,-0.15,
3587,-0.55,-0.17,
3588,-0.555,-0.17,
3589,-0.56,-0.18,
3590,-0.565,-0.16,
3591,-0.56,-0.155,
3592,-0.57,-0.16,
3593,-0.57,-0.18,
3594,-0.585,-0.185,
3595,-0.585,-0.185,
3596,-0.585,-0.18,
3597,-0.59,-0.175,
3598,-0.585,-0.185,
3599,-0.595,-0.19,
3600,-0.6,-0.19,
3601,-0.61,-0.195,
3602,-0.6,-0.185,
3603,-0.595,-0.17,
3604,-0.595,-0.175,
3605,-0.605,-0.18,
3606,-0.605,-0.19,
3607,-0.61,-0.185,
3608,-0.595,-0.185,
3609,-0.585,-0.165,
3610,-0.575,-0.16,
3611,-0.59,-0.17,
3612,-0.59,-0.17,
3613,-0.595,-0.175,
3614,-0.58,-0.155,
3615,-0.57,-0.14,
3616,-0.565,-0.15,
3617,-0.56,-0.16,
3618,-0.56,-0.16,
3619,-0.55,-0.155,
3620,-0.54,-0.145,
3621,-0.52,-0.135,
3622,-0.505,-0.13,
3623,-0.505,-0.13,
3624,-0.505,-0.13,
3625,-0.495,-0.125,
3626,-0.47,-0.11,
3627,-0.445,-0.095,
3628,-0.435,-0.085,
3629,-0.43,-0.1,
3630,-0.42,-0.08,
3631,-0.42,-0.075,
3632,-0.39,-0.065,
3633,-0.36,-0.055,
3634,-0.355,-0.05,
3635,-0.34,-0.04,
3636,-0.345,-0.045,
3637,-0.34,-0.04,
3638,-0.3,-0.02,
3639,-0.285,-0.015,
3640,-0.28,-0.015,
3641,-0.275,-0.015,
3642,-0.285,-0.02,
3643,-0.275,-0.015,
3644,-0.275,-0.005,
3645,-0.255,0.01,
3646,-0.265,0.01,
3647,-0.26,0.0,
3648,-0.26,-0.01,
3649,-0.25,-0.005,
3650,-0.245,0.005,
3651,-0.245,0.01,
3652,-0.23,0.015,
3653,-0.235,-0.005,
3654,-0.245,-0.005,
3655,-0.245,0.005,
3656,-0.245,-0.005,
3657,-0.24,0.015,
3658,-0.225,0.0,
3659,-0.235,-0.01,
3660,-0.235,-0.015,
3661,-0.24,0.0,
3662,-0.235,0.0,
3663,-0.23,0.0,
3664,-0.225,-0.005,
3665,-0.24,-0.02,
3666,-0.25,-0.03,
3667,-0.245,-0.02,
3668,-0.24,-0.005,
3669,-0.225,-0.01,
3670,-0.24,-0.01,
3671,-0.235,-0.02,
3672,-0.265,-0.03,
3673,-0.265,-0.03,
3674,-0.255,-0.015,
3675,-0.245,-0.005,
3676,-0.255,-0.01,
3677,-0.265,-0.025,
3678,-0.26,-0.035,
3679,-0.27,-0.03,
3680,-0.255,-0.04,
3681,-0.245,-0.02,
3682,-0.255,-0.025,
3683,-0.265,-0.03,
3684,-0.26,-0.05,
3685,-0.275,-0.03,
3686,-0.265,-0.015,
3687,-0.255,-0.025,
3688,-0.26,-0.015,
3689,-0.27,-0.035,
3690,-0.275,-0.03,
3691,-0.27,-0.045,
3692,-0.265,-0.035,
3693,-0.24,-0.015,
3694,-0.25,-0.01,
3695,-0.255,-0.02,
3696,-0.255,-0.04,
3697,-0.265,-0.04,
3698,-0.25,-0.02,
3699,-0.245,-0.01,
3700,-0.245,-0.015,
3701,-0.255,-0.02,
3702,-0.265,-0.04,
3703,-0.265,-0.02,
3704,-0.235,-0.015,
3705,-0.225,-0.015,
3706,-0.235,-0.01,
3707,-0.24,-0.015,
3708,-0.24,-0.02,
3709,-0.245,-0.02,
3710,-0.245,-0.015,
3711,-0.22,-0.005,
3712,-0.215,-0.01,
3713,-0.225,-0.02,
3714,-0.235,-0.035,
3715,-0.255,-0.02,
3716,-0.225,-0.02,
3717,-0.225,-0.005,
3718,-0.225,-0.01,
3719,-0.22,-0.02,
3720,-0.225,-0.03,
3721,-0.235,-0.03,
3722,-0.23,-0.015,
3723,-0.22,-0.02,
3724,-0.215,-0.015,
3725,-0.225,-0.025,
3726,-0.24,-0.025,
3727,-0.235,-0.02,
3728,-0.235,-0.01,
3729,-0.225,-0.01,
3730,-0.215,0.0,
3731,-0.225,-0.01,
3732,-0.23,-0.02,
3733,-0.235,-0.015,
3734,-0.23,-0.005,
3735,-0.225,0.01,
3736,-0.215,-0.005,
3737,-0.235,0.0,
3738,-0.235,-0.015,
3739,-0.24,-0.005,
3740,-0.245,0.015,
3741,-0.23,0.02,
3742,-0.22,0.02,
3743,-0.235,0.015,
3744,-0.23,-0.01,
3745,-0.24,0.01,
3746,-0.23,0.03,
3747,-0.23,0.015,
3748,-0.23,0.02,
3749,-0.25,0.005,
3750,-0.23,0.0,
3751,-0.235,-0.015,
3752,-0.225,-0.015,
3753,-0.215,0.0,
3754,-0.2,-0.005,
3755,-0.205,-0.025,
3756,-0.21,-0.04,
3757,-0.215,-0.03,
3758,-0.2,-0.02,
3759,-0.18,-0.01,
3760,-0.18,-0.02,
3761,-0.19,-0.03,
3762,-0.195,-0.035,
3763,-0.2,-0.035,
3764,-0.17,-0.025,
3765,-0.155,-0.015,
3766,-0.145,-0.005,
3767,-0.15,-0.03,
3768,-0.145,-0.03,
3769,-0.135,-0.015,
3770,-0.14,0.01,
3771,-0.13,-0.01,
3772,-0.14,-0.005,
3773,-0.165,-0.01,
3774,-0.185,-0.025,
3775,-0.195,-0.035,
3776,-0.19,-0.03,
3777,-0.18,-0.015,
3778,-0.185,-0.015,
3779,-0.2,-0.025,
3780,-0.215,-0.045,
3781,-0.205,-0.04,
3782,-0.2,-0.03,
3783,-0.195,-0.03,
3784,-0.195,-0.03,
3785,-0.2,-0.03,
3786,-0.205,-0.045,
3787,-0.21,-0.03,
3788,-0.19,-0.03,
3789,-0.155,-0.015,
3790,-0.145,-0.015,
3791,-0.1,-0.01,
3792,-0.035,-0.015,
3793,0.17,0.015,
3794,0.625,0.1,
3795,0.995,0.405,
3796,0.84,0.695,f
3797,0.385,0.625,
3798,0.1,0.34,
3799,0.06,0.18,
3800,0.1,0.155,
3801,0.125,0.17,
3802,0.09,0.14,
3803,0.05,0.12,
3804,0.035,0.075,
3805,0.025,0.085,
3806,0.04,0.08,
3807,0.065,0.065,
3808,0.065,0.05,
3809,0.05,0.03,
3810,0.04,-0.01,
3811,0.03,-0.04,
3812,0.03,-0.04,
3813,0.04,-0.05,
3814,0.035,-0.05,
3815,0.03,-0.07,
3816,-0.005,-0.095,
3817,-0.025,-0.09,
3818,-0.055,-0.08,
3819,-0.085,-0.085,
3820,-0.12,-0.105,
3821,-0.18,-0.115,
3822,-0.2,-0.145,
3823,-0.235,-0.13,
3824,-0.275,-0.135,
3825,-0.285,-0.13,
3826,-0.29,-0.15,
3827,-0.31,-0.15,
3828,-0.33,-0.165,
3829,-0.36,-0.15,
3830,-0.415,-0.155,
3831,-0.445,-0.145,
3832,-0.45,-0.165,
3833,-0.43,-0.165,
3834,-0.39,-0.175,
3835,-0.335,-0.165,
3836,-0.27,-0.145,
3837,-0.22,-0.135,
3838,-0.165,-0.12,
3839,-0.16,-0.165,
3840,-0.195,-0.22,
3841,-0.255,-0.285,
3842,-0.3,-0.345,
3843,-0.335,-0.37,
3844,-0.4,-0.395,
3845,-0.44,-0.43,
3846,-0.48,-0.43,
3847,-0.515,-0.415,
3848,-0.52,-0.385,
3849,-0.495,-0.335,
3850,-0.46,-0.275,
3851,-0.42,-0.23,
3852,-0.395,-0.195,
3853,-0.375,-0.15,
3854,-0.35,-0.1,
3855,-0.34,-0.07,
3856,-0.32,-0.065,
3857,-0.31,-0.055,
3858,-0.315,-0.055,
3859,-0.305,-0.045,
3860,-0.3,-0.02,
3861,-0.29,-0.005,
3862,-0.265,-0.025,
3863,-0.255,-0.035,
3864,-0.26,-0.04,
3865,-0.26,-0.025,
3866,-0.24,-0.02,
3867,-0.24,-0.02,
3868,-0.23,-0.025,
3869,-0.245,-0.03,
3870,-0.235,-0.03,
3871,-0.235,-0.035,
3872,-0.225,-0.02,
3873,-0.22,-0.01,
3874,-0.22,-0.015,
3875,-0.22,-0.025,
3876,-0.22,-0.035,
3877,-0.23,-0.035,
3878,-0.215,-0.015,
3879,-0.21,-0.015,
3880,-0.215,-0.02,
3881,-0.21,-0.02,
3882,-0.22,-0.04,
3883,-0.225,-0.035,
3884,-0.215,-0.015,
3885,-0.215,-0.015,
3886,-0.195,-0.01,
3887,-0.195,-0.02,
3888,-0.205,-0.035,
3889,-0.21,-0.025,
3890,-0.205,-0.02,
3891,-0.195,-0.01,
3892,-0.195,-0.015,
3893,-0.19,-0.02,
3894,-0.205,-0.03,
3895,-0.2,-0.025,
3896,-0.18,-0.015,
3897,-0.175,-0.015,
3898,-0.17,-0.005,
3899,-0.18,-0.015,
3900,-0.18,-0.02,
3901,-0.195,-0.01,
3902,-0.165,-0.005,
3903,-0.16,0.005,
3904,-0.155,0.0,
3905,-0.16,-0.015,
3906,-0.16,-0.02,
3907,-0.155,-0.005,
3908,-0.155,0.005,
3909,-0.14,0.015,
3910,-0.13,0.01,
3911,-0.14,0.005,
3912,-0.145,0.0,
3913,-0.145,0.005,
3914,-0.135,0.03,
3915,-0.12,0.03,
3916,-0.11,0.025,
3917,-0.11,0.015,
3918,-0.125,0.02,
3919,-0.125,0.02,
3920,-0.11,0.02,
3921,-0.095,0.05,
3922,-0.08,0.05,
3923,-0.09,0.05,
3924,-0.095,0.035,
3925,-0.095,0.04,
3926,-0.085,0.055,
3927,-0.07,0.06,
3928,-0.07,0.06,
3929,-0.075,0.06,
3930,-0.065,0.055,
3931,-0.065,0.07,
3932,-0.05,0.065,
3933,-0.04,0.08,
3934,-0.035,0.075,
3935,-0.045,0.075,
3936,-0.055,0.07,
3937,-0.055,0.07,
3938,-0.04,0.095,
3939,-0.03,0.095,
3940,-0.03,0.085,
3941,-0.04,0.075,
3942,-0.03,0.07,
3943,-0.045,0.085,
3944,-0.04,0.09,
3945,-0.03,0.095,
3946,-0.03,0.09,
3947,-0.025,0.085,
3948,-0.035,0.08,
3949,-0.045,0.085,
3950,-0.04,0.085,
3951,-0.03,0.09,
3952,-0.035,0.085,
3953,-0.05,0.075,
3954,-0.055,0.08,
3955,-0.065,0.08,
3956,-0.06,0.085,
3957,-0.06,0.085,
3958,-0.07,0.08,
3959,-0.08,0.065,
3960,-0.095,0.065,
3961,-0.105,0.065,
3962,-0.105,0.065,
3963,-0.095,0.07,
3964,-0.11,0.075,
3965,-0.11,0.06,
3966,-0.12,0.035,
3967,-0.125,0.055,
3968,-0.125,0.06,
3969,-0.12,0.055,
3970,-0.13,0.055,
3971,-0.135,0.045,
3972,-0.15,0.025,
3973,-0.16,0.04,
3974,-0.155,0.045,
3975,-0.14,0.045,
3976,-0.155,0.045,
3977,-0.15,0.03,
3978,-0.155,0.03,
3979,-0.17,0.03,
3980,-0.165,0.045,
3981,-0.15,0.035,
3982,-0.165,0.045,
3983,-0.17,0.03,
3984,-0.18,0.01,
3985,-0.185,0.015,
3986,-0.175,0.03,
3987,-0.17,0.05,
3988,-0.17,0.035,
3989,-0.175,0.02,
3990,-0.195,0.005,
3991,-0.19,0.02,
3992,-0.175,0.03,
3993,-0.16,0.025,
3994,-0.17,0.025,
3995,-0.175,0.015,
3996,-0.185,0.015,
3997,-0.185,0.0,
3998,-0.175,0.02,
3999,-0.17,0.03,
4000,-0.17,0.03,
4001,-0.18,0.015,
4002,-0.185,-0.005,
4003,-0.2,0.015,
4004,-0.185,0.025,
4005,-0.18,0.02,
4006,-0.18,0.025,
4007,-0.185,0.01,
4008,-0.18,-0.005,
4009,-0.2,-0.005,
4010,-0.2,0.015,
4011,-0.185,0.02,
4012,-0.175,0.01,
4013,-0.185,0.005,
4014,-0.185,0.0,
4015,-0.2,0.0,
4016,-0.19,0.01,
4017,-0.185,0.01,
4018,-0.185,0.02,
4019,-0.205,0.005,
4020,-0.21,0.0,
4021,-0.22,0.0,
4022,-0.2,0.0,
4023,-0.195,0.005,
4024,-0.19,0.005,
4025,-0.2,-0.005,
4026,-0.21,-0.01,
4027,-0.21,-0.005,
4028,-0.205,0.01,
4029,-0.195,0.0,
4030,-0.205,-0.005,
4031,-0.205,-0.01,
4032,-0.21,-0.005,
4033,-0.21,0.0,
4034,-0.205,0.01,
4035,-0.195,0.005,
4036,-0.2,0.01,
4037,-0.22,0.0,
4038,-0.23,-0.005,
4039,-0.225,-0.005,
4040,-0.215,0.01,
4041,-0.2,0.015,
4042,-0.21,0.01,
4043,-0.22,-0.025,
4044,-0.215,-0.025,
4045,-0.23,-0.015,
4046,-0.225,0.0,
4047,-0.22,0.0,
4048,-0.21,-0.005,
4049,-0.215,-0.015,
4050,-0.225,-0.025,
4051,-0.235,-0.02,
4052,-0.21,-0.01,
4053,-0.22,-0.01,
4054,-0.225,-0.02,
4055,-0.23,-0.015,
4056,-0.24,-0.03,
4057,-0.24,-0.025,
4058,-0.235,-0.01,
4059,-0.23,-0.015,
4060,-0.23,-0.02,
4061,-0.225,-0.035,
4062,-0.235,-0.045,
4063,-0.25,-0.025,
4064,-0.24,-0.03,
4065,-0.24,-0.02,
4066,-0.225,-0.03,
4067,-0.235,-0.04,
4068,-0.24,-0.045,
4069,-0.24,-0.045,
4070,-0.23,-0.03,
4071,-0.235,-0.025,
4072,-0.225,-0.02,
4073,-0.245,-0.035,
4074,-0.25,-0.045,
4075,-0.255,-0.03,
4076,-0.25,-0.02,
4077,-0.25,-0.015,
4078,-0.235,-0.015,
4079,-0.255,-0.02,
4080,-0.25,-0.03,
4081,-0.255,-0.035,
4082,-0.235,-0.015,
4083,-0.26,0.01,
4084,-0.25,-0.005,
4085,-0.26,-0.005,
4086,-0.255,-0.01,
4087,-0.265,-0.01,
4088,-0.25,0.0,
4089,-0.24,0.005,
4090,-0.23,0.01,
4091,-0.25,-0.01,
4092,-0.24,-0.01,
4093,-0.22,-0.005,
4094,-0.205,0.005,
4095,-0.18,0.0,
4096,-0.13,0.02,
4097,-0.045,0.015,
4098,0.15,0.025,
4099,0.57,0.11,
4100,0.935,0.38,
4101,0.82,0.71,
4102,0.415,0.71,/
4103,0.12,0.44,
4104,0.035,0.235,
4105,0.065,0.165,
4106,0.085,0.175,
4107,0.075,0.155,
4108,0.05,0.13,
4109,0.025,0.105,
4110,0.02,0.085,
4111,0.02,0.075,
4112,0.05,0.07,
4113,0.05,0.065,
4114,0.07,0.05,
4115,0.065,0.01,
4116,0.05,-0.025,
4117,0.035,-0.035,
4118,0.035,-0.035,
4119,0.035,-0.045,
4120,0.02,-0.06,
4121,0.0,-0.085,
4122,-0.035,-0.115,
4123,-0.075,-0.11,
4124,-0.105,-0.125,
4125,-0.135,-0.15,
4126,-0.165,-0.155,
4127,-0.22,-0.185,
4128,-0.265,-0.21,
4129,-0.305,-0.225,
4130,-0.35,-0.23,
4131,-0.415,-0.24,
4132,-0.49,-0.245,
4133,-0.56,-0.27,
4134,-0.61,-0.29,
4135,-0.67,-0.295,
4136,-0.71,-0.29,
4137,-0.765,-0.305,
4138,-0.825,-0.325,
4139,-0.865,-0.38,
4140,-0.9,-0.425,
4141,-0.92,-0.47,
4142,-0.925,-0.51,
4143,-0.935,-0.545,
4144,-0.93,-0.58,
4145,-0.935,-0.6,
4146,-0.945,-0.64,
4147,-0.935,-0.67,
4148,-0.93,-0.685,
4149,-0.895,-0.72,
4150,-0.885,-0.745,
4151,-0.875,-0.775,
4152,-0.845,-0.82,
4153,-0.81,-0.84,
4154,-0.75,-0.865,
4155,-0.685,-0.855,
4156,-0.635,-0.855,
4157,-0.605,-0.82,
4158,-0.56,-0.8,
4159,-0.525,-0.765,
4160,-0.48,-0.705,
4161,-0.425,-0.66,
4162,-0.39,-0.605,
4163,-0.37,-0.565,
4164,-0.36,-0.52,
4165,-0.34,-0.465,
4166,-0.325,-0.4,
4167,-0.3,-0.36,
4168,-0.295,-0.33,
4169,-0.305,-0.315,
4170,-0.295,-0.285,
4171,-0.285,-0.26,
4172,-0.26,-0.225,
4173,-0.245,-0.19,
4174,-0.23,-0.18,
4175,-0.24,-0.18,
4176,-0.255,-0.175,
4177,-0.255,-0.145,
4178,-0.245,-0.12,
4179,-0.24,-0.09,
4180,-0.235,-0.085,
4181,-0.24,-0.065,
4182,-0.245,-0.045,
4183,-0.23,-0.02,
4184,-0.205,-0.005,
4185,-0.17,0.03,
4186,-0.165,0.035,
4187,-0.16,0.035,
4188,-0.155,0.035,
4189,-0.155,0.045,
4190,-0.13,0.065,
4191,-0.115,0.065,
4192,-0.11,0.075,
4193,-0.11,0.05,
4194,-0.11,0.06,
4195,-0.12,0.055,
4196,-0.105,0.065,
4197,-0.095,0.08,
4198,-0.085,0.08,
4199,-0.09,0.09,
4200,-0.085,0.085,
4201,-0.075,0.1,
4202,-0.065,0.1,
4203,-0.05,0.11,
4204,-0.045,0.1,
4205,-0.035,0.095,
4206,-0.05,0.095,
4207,-0.045,0.1,
4208,-0.03,0.125,
4209,-0.02,0.12,
4210,-0.01,0.125,
4211,-0.015,0.125,
4212,-0.03,0.12,
4213,-0.025,0.125,
4214,-0.015,0.14,
4215,0.01,0.145,
4216,0.015,0.155,
4217,0.01,0.145,
4218,0.01,0.14,
4219,0.01,0.145,
4220,0.02,0.17,
4221,0.035,0.175,
4222,0.04,0.175,
4223,0.045,0.175,
4224,0.035,0.175,
4225,0.015,0.18,
4226,0.03,0.2,
4227,0.055,0.215,
4228,0.065,0.215,
4229,0.055,0.205,
4230,0.04,0.205,
4231,0.055,0.235,
4232,0.055,0.24,
4233,0.075,0.235,
4234,0.07,0.245,
4235,0.065,0.23,
4236,0.06,0.23,
4237,0.05,0.235,
4238,0.06,0.255,
4239,0.085,0.26,
4240,0.085,0.26,
4241,0.07,0.26,
4242,0.06,0.245,
4243,0.06,0.25,
4244,0.08,0.275,
4245,0.09,0.28,
4246,0.085,0.275,
4247,0.08,0.25,
4248,0.07,0.245,
4249,0.065,0.26,
4250,0.065,0.27,
4251,0.07,0.265,
4252,0.065,0.26,
4253,0.05,0.245,
4254,0.045,0.23,
4255,0.035,0.23,
4256,0.025,0.24,
4257,0.035,0.225,
4258,0.025,0.23,
4259,0.005,0.21,
4260,-0.005,0.2,
4261,-0.015,0.185,
4262,-0.015,0.21,
4263,-0.025,0.2,
4264,-0.025,0.185,
4265,-0.04,0.175,
4266,-0.055,0.16,
4267,-0.065,0.155,
4268,-0.07,0.16,
4269,-0.065,0.155,
4270,-0.085,0.135,
4271,-0.09,0.13,
4272,-0.11,0.105,
4273,-0.12,0.105,
4274,-0.115,0.1,
4275,-0.12,0.11,
4276,-0.125,0.1,
4277,-0.135,0.075,
4278,-0.145,0.065,
4279,-0.155,0.055,
4280,-0.155,0.055,
4281,-0.14,0.06,
4282,-0.145,0.055,
4283,-0.16,0.04,
4284,-0.155,0.02,
4285,-0.17,0.035,
4286,-0.165,0.035,
4287,-0.16,0.03,
4288,-0.16,0.02,
4289,-0.18,0.005,
4290,-0.185,-0.015,
4291,-0.195,0.0,
4292,-0.18,0.0,
4293,-0.175,0.005,
4294,-0.18,-0.005,
4295,-0.175,-0.005,
4296,-0.19,-0.015,
4297,-0.19,-0.015,
4298,-0.195,-0.005,
4299,-0.18,-0.005,
4300,-0.2,-0.005,
4301,-0.195,-0.02,
4302,-0.19,-0.02,
4303,-0.205,-0.015,
4304,-0.19,-0.005,
4305,-0.17,-0.005,
4306,-0.175,-0.025,
4307,-0.18,-0.025,
4308,-0.195,-0.03,
4309,-0.2,-0.02,
4310,-0.195,-0.015,
4311,-0.18,-0.01,
4312,-0.18,-0.025,
4313,-0.185,-0.03,
4314,-0.195,-0.035,
4315,-0.205,-0.025,
4316,-0.185,-0.02,
4317,-0.185,-0.01,
4318,-0.195,-0.02,
4319,-0.185,-0.03,
4320,-0.195,-0.04,
4321,-0.19,-0.025,
4322,-0.19,-0.015,
4323,-0.18,-0.02,
4324,-0.18,-0.015,
4325,-0.205,-0.035,
4326,-0.195,-0.04,
4327,-0.2,-0.03,
4328,-0.185,-0.01,
4329,-0.185,-0.01,
4330,-0.19,-0.025,
4331,-0.205,-0.025,
4332,-0.215,-0.035,
4333,-0.205,-0.045,
4334,-0.19,-0.025,
4335,-0.175,-0.015,
4336,-0.18,-0.015,
4337,-0.195,-0.04,
4338,-0.19,-0.05,
4339,-0.205,-0.035,
4340,-0.205,-0.02,
4341,-0.195,-0.015,
4342,-0.205,-0.02,
4343,-0.2,-0.04,
4344,-0.215,-0.05,
4345,-0.215,-0.04,
4346,-0.2,-0.03,
4347,-0.205,-0.03,
4348,-0.21,-0.025,
4349,-0.215,-0.05,
4350,-0.22,-0.055,
4351,-0.23,-0.04,
4352,-0.23,-0.04,
4353,-0.22,-0.035,
4354,-0.21,-0.045,
4355,-0.21,-0.05,
4356,-0.225,-0.06,
4357,-0.23,-0.055,
4358,-0.225,-0.045,
4359,-0.225,-0.045,
4360,-0.22,-0.055,
4361,-0.23,-0.065,
4362,-0.245,-0.075,
4363,-0.24,-0.065,
4364,-0.24,-0.055,
4365,-0.225,-0.05,
4366,-0.225,-0.06,
4367,-0.235,-0.065,
4368,-0.23,-0.08,
4369,-0.24,-0.075,
4370,-0.225,-0.065,
4371,-0.23,-0.06,
4372,-0.215,-0.075,
4373,-0.225,-0.08,
4374,-0.24,-0.08,
4375,-0.245,-0.08,
4376,-0.23,-0.07,
4377,-0.23,-0.05,
4378,-0.225,-0.055,
4379,-0.23,-0.065,
4380,-0.24,-0.08,
4381,-0.25,-0.075,
4382,-0.24,-0.065,
4383,-0.24,-0.07,
4384,-0.23,-0.075,
4385,-0.225,-0.085,
4386,-0.24,-0.08,
4387,-0.235,-0.075,
4388,-0.23,-0.06,
4389,-0.22,-0.07,
4390,-0.205,-0.07,
4391,-0.2,-0.07,
4392,-0.21,-0.09,
4393,-0.215,-0.085,
4394,-0.22,-0.065,
4395,-0.19,-0.07,
4396,-0.19,-0.06,
4397,-0.2,-0.075,
4398,-0.2,-0.08,
4399,-0.195,-0.07,
4400,-0.16,-0.06,
4401,-0.12,-0.04,
4402,-0.04,-0.03,
4403,0.14,-0.005,
4404,0.54,0.095,
4405,0.91,0.405,
4406,0.82,0.725,
4407,0.435,0.7,/
4408,0.145,0.42,
4409,0.07,0.215,
4410,0.09,0.155,
4411,0.085,0.145,
4412,0.065,0.13,
4413,0.045,0.095,
4414,0.04,0.075,
4415,0.03,0.055,
4416,0.005,0.045,
4417,0.005,0.03,
4418,0.0,0.02,
4419,-0.005,0.005,
4420,-0.015,-0.025,
4421,-0.04,-0.06,
4422,-0.045,-0.095,
4423,-0.055,-0.11,
4424,-0.06,-0.125,
4425,-0.075,-0.12,
4426,-0.095,-0.135,
4427,-0.13,-0.16,
4428,-0.185,-0.185,
4429,-0.225,-0.19,
4430,-0.26,-0.2,
4431,-0.285,-0.21,
4432,-0.33,-0.23,
4433,-0.38,-0.255,
4434,-0.46,-0.275,
4435,-0.555,-0.295,
4436,-0.605,-0.305,
4437,-0.66,-0.325,
4438,-0.71,-0.32,
4439,-0.765,-0.345,
4440,-0.815,-0.375,
4441,-0.875,-0.385,
4442,-0.905,-0.42,
4443,-0.925,-0.465,
4444,-0.935,-0.52,
4445,-0.955,-0.585,
4446,-0.955,-0.615,
4447,-0.975,-0.635,
4448,-0.965,-0.66,
4449,-0.945,-0.67,
4450,-0.94,-0.72,
4451,-0.925,-0.765,
4452,-0.915,-0.795,
4453,-0.885,-0.815,
4454,-0.835,-0.84,
4455,-0.78,-0.875,
4456,-0.74,-0.895,
4457,-0.695,-0.915,
4458,-0.625,-0.935,
4459,-0.59,-0.895,
4460,-0.56,-0.855,
4461,-0.49,-0.815,
4462,-0.45,-0.77,
4463,-0.41,-0.74,
4464,-0.39,-0.695,
4465,-0.355,-0.625,
4466,-0.33,-0.555,
4467,-0.3,-0.505,
4468,-0.295,-0.455,
4469,-0.275,-0.405,
4470,-0.285,-0.38,
4471,-0.29,-0.34,
4472,-0.29,-0.305,
4473,-0.24,-0.265,
4474,-0.22,-0.245,
4475,-0.22,-0.245,
4476,-0.235,-0.25,
4477,-0.235,-0.21,
4478,-0.23,-0.175,
4479,-0.215,-0.155,
4480,-0.21,-0.14,
4481,-0.22,-0.14,
4482,-0.23,-0.135,
4483,-0.23,-0.1,
4484,-0.2,-0.065,
4485,-0.155,-0.045,
4486,-0.16,-0.02,
4487,-0.145,-0.01,
4488,-0.15,-0.01,
4489,-0.13,0.02,
4490,-0.115,0.035,
4491,-0.095,0.04,
4492,-0.075,0.03,
4493,-0.07,0.02,
4494,-0.07,0.025,
4495,-0.08,0.03,
4496,-0.085,0.045,
4497,-0.065,0.06,
4498,-0.07,0.05,
4499,-0.07,0.05,
4500,-0.08,0.055,
4501,-0.07,0.05,
4502,-0.055,0.065,
4503,-0.05,0.07,
4504,-0.04,0.08,
4505,-0.04,0.075,
4506,-0.045,0.06,
4507,-0.04,0.08,
4508,-0.025,0.105,
4509,-0.015,0.095,
4510,-0.005,0.105,
4511,-0.03,0.095,
4512,-0.035,0.09,
4513,-0.04,0.105,
4514,-0.035,0.12,
4515,-0.015,0.115,
4516,-0.025,0.12,
4517,-0.025,0.115,
4518,-0.015,0.125,
4519,-0.02,0.135,
4520,0.005,0.14,
4521,0.02,0.15,
4522,0.015,0.155,
4523,0.0,0.15,
4524,-0.01,0.145,
4525,-0.02,0.16,
4526,-0.005,0.175,
4527,0.015,0.175,
4528,0.02,0.17,
4529,0.01,0.18,
4530,0.005,0.18,
4531,0.0,0.19,
4532,0.025,0.2,
4533,0.03,0.195,
4534,0.03,0.205,
4535,0.03,0.215,
4536,0.015,0.21,
4537,0.025,0.22,
4538,0.035,0.235,
4539,0.045,0.235,
4540,0.045,0.245,
4541,0.055,0.245,
4542,0.035,0.245,
4543,0.02,0.25,
4544,0.035,0.255,
4545,0.05,0.265,
4546,0.045,0.27,
4547,0.035,0.25,
4548,0.025,0.245,
4549,0.035,0.255,
4550,0.05,0.26,
4551,0.055,0.26,
4552,0.065,0.26,
4553,0.055,0.24,
4554,0.045,0.24,
4555,0.025,0.23,
4556,0.025,0.235,
4557,0.025,0.245,
4558,0.02,0.235,
4559,0.0,0.21,
4560,0.005,0.195,
4561,-0.015,0.21,
4562,-0.01,0.205,
4563,-0.005,0.2,
4564,-0.035,0.18,
4565,-0.045,0.175,
4566,-0.055,0.15,
4567,-0.08,0.15,
4568,-0.07,0.15,
4569,-0.06,0.145,
4570,-0.055,0.14,
4571,-0.075,0.115,
4572,-0.095,0.095,
4573,-0.1,0.09,
4574,-0.105,0.095,
4575,-0.095,0.09,
4576,-0.095,0.08,
4577,-0.125,0.055,
4578,-0.145,0.045,
4579,-0.155,0.04,
4580,-0.145,0.04,
4581,-0.12,0.045,
4582,-0.135,0.04,
4583,-0.145,0.015,
4584,-0.16,0.015,
4585,-0.17,0.01,
4586,-0.16,0.03,
4587,-0.155,0.02,
4588,-0.16,0.005,
4589,-0.165,-0.005,
4590,-0.185,-0.01,
4591,-0.195,-0.015,
4592,-0.18,-0.01,
4593,-0.17,-0.015,
4594,-0.175,-0.01,
4595,-0.18,-0.02,
4596,-0.19,-0.035,
4597,-0.195,-0.02,
4598,-0.19,-0.03,
4599,-0.185,-0.015,
4600,-0.185,-0.03,
4601,-0.195,-0.035,
4602,-0.205,-0.04,
4603,-0.19,-0.03,
4604,-0.18,-0.035,
4605,-0.18,-0.03,
4606,-0.175,-0.02,
4607,-0.185,-0.045,
4608,-0.19,-0.035,
4609,-0.195,-0.025,
4610,-0.19,-0.02,
4611,-0.19,-0.03,
4612,-0.2,-0.04,
4613,-0.205,-0.05,
4614,-0.22,-0.05,
4615,-0.22,-0.04,
4616,-0.215,-0.025,
4617,-0.2,-0.035,
4618,-0.2,-0.045,
4619,-0.195,-0.045,
4620,-0.2,-0.05,
4621,-0.21,-0.045,
4622,-0.195,-0.04,
4623,-0.195,-0.025,
4624,-0.19,-0.035,
4625,-0.205,-0.045,
4626,-0.225,-0.06,
4627,-0.215,-0.055,
4628,-0.215,-0.04,
4629,-0.21,-0.035,
4630,-0.21,-0.04,
4631,-0.215,-0.05,
4632,-0.23,-0.065,
4633,-0.225,-0.05,
4634,-0.225,-0.055,
4635,-0.23,-0.04,
4636,-0.225,-0.05,
4637,-0.245,-0.06,
4638,-0.255,-0.08,
4639,-0.255,-0.075,
4640,-0.24,-0.05,
4641,-0.22,-0.065,
4642,-0.225,-0.06,
4643,-0.22,-0.065,
4644,-0.23,-0.08,
4645,-0.23,-0.075,
4646,-0.23,-0.07,
4647,-0.23,-0.075,
4648,-0.245,-0.075,
4649,-0.27,-0.09,
4650,-0.275,-0.095,
4651,-0.275,-0.08,
4652,-0.255,-0.08,
4653,-0.24,-0.08,
4654,-0.24,-0.085,
4655,-0.23,-0.095,
4656,-0.25,-0.105,
4657,-0.25,-0.09,
4658,-0.26,-0.08,
4659,-0.24,-0.085,
4660,-0.245,-0.1,
4661,-0.245,-0.1,
4662,-0.245,-0.12,
4663,-0.27,-0.11,
4664,-0.265,-0.1,
4665,-0.26,-0.095,
4666,-0.26,-0.09,
4667,-0.265,-0.105,
4668,-0.25,-0.115,
4669,-0.26,-0.11,
4670,-0.24,-0.1,
4671,-0.24,-0.1,
4672,-0.245,-0.1,
4673,-0.25,-0.11,
4674,-0.265,-0.105,
4675,-0.275,-0.115,
4676,-0.26,-0.11,
4677,-0.24,-0.09,
4678,-0.25,-0.11,
4679,-0.26,-0.115,
4680,-0.27,-0.115,
4681,-0.285,-0.105,
4682,-0.27,-0.095,
4683,-0.25,-0.1,
4684,-0.245,-0.095,
4685,-0.235,-0.115,
4686,-0.245,-0.115,
4687,-0.24,-0.11,
4688,-0.24,-0.095,
4689,-0.235,-0.095,
4690,-0.235,-0.1,
4691,-0.24,-0.11,
4692,-0.25,-0.115,
4693,-0.24,-0.11,
4694,-0.23,-0.1,
4695,-0.215,-0.09,
4696,-0.2,-0.085,
4697,-0.18,-0.095,
4698,-0.13,-0.09,
4699,-0.005,-0.065,
4700,0.28,0.0,
4701,0.74,0.165,
4702,0.99,0.515,
4703,0.715,0.725,
4704,0.27,0.525,/
4705,0.03,0.23,
4706,0.01,0.105,
4707,0.075,0.1,
4708,0.065,0.09,
4709,0.035,0.045,
4710,-0.005,0.025,
4711,-0.015,0.02,
4712,0.0,0.015,
4713,0.01,0.005,
4714,0.015,-0.025,
4715,0.005,-0.05,
4716,-0.005,-0.105,
4717,-0.015,-0.13,
4718,-0.01,-0.145,
4719,0.005,-0.14,
4720,-0.005,-0.165,
4721,-0.015,-0.195,
4722,-0.06,-0.21,
4723,-0.09,-0.21,
4724,-0.125,-0.22,
4725,-0.15,-0.24,
4726,-0.18,-0.27,
4727,-0.245,-0.305,
4728,-0.32,-0.33,
4729,-0.43,-0.33,
4730,-0.52,-0.33,
4731,-0.575,-0.33,
4732,-0.63,-0.345,
4733,-0.685,-0.36,
4734,-0.755,-0.375,
4735,-0.82,-0.395,
4736,-0.87,-0.415,
4737,-0.885,-0.445,
4738,-0.92,-0.485,
4739,-0.935,-0.54,
4740,-0.97,-0.58,
4741,-0.975,-0.585,
4742,-0.975,-0.6,
4743,-0.975,-0.625,
4744,-0.965,-0.655,
4745,-0.98,-0.7,
4746,-0.975,-0.73,
4747,-0.96,-0.74,
4748,-0.925,-0.765,
4749,-0.885,-0.79,
4750,-0.845,-0.825,
4751,-0.79,-0.855,
4752,-0.745,-0.85,
4753,-0.71,-0.815,
4754,-0.665,-0.765,
4755,-0.6,-0.735,
4756,-0.56,-0.705,
4757,-0.51,-0.655,
4758,-0.47,-0.61,
4759,-0.44,-0.54,
4760,-0.415,-0.465,
4761,-0.37,-0.405,
4762,-0.35,-0.35,
4763,-0.345,-0.32,
4764,-0.34,-0.3,
4765,-0.34,-0.25,
4766,-0.315,-0.215,
4767,-0.3,-0.19,
4768,-0.29,-0.18,
4769,-0.295,-0.17,
4770,-0.305,-0.16,
4771,-0.305,-0.14,
4772,-0.295,-0.105,
4773,-0.28,-0.1,
4774,-0.265,-0.085,
4775,-0.265,-0.075,
4776,-0.26,-0.05,
4777,-0.235,-0.02,
4778,-0.205,-0.005,
4779,-0.175,0.025,
4780,-0.175,0.025,
4781,-0.165,0.025,
4782,-0.16,0.04,
4783,-0.15,0.045,
4784,-0.13,0.05,
4785,-0.13,0.045,
4786,-0.105,0.055,
4787,-0.11,0.055,
4788,-0.095,0.055,
4789,-0.095,0.065,
4790,-0.075,0.06,
4791,-0.055,0.065,
4792,-0.03,0.08,
4793,-0.03,0.07,
4794,-0.02,0.07,
4795,-0.02,0.085,
4796,-0.005,0.115,
4797,0.0,0.115,
4798,-0.005,0.105,
4799,-0.02,0.095,
4800,-0.03,0.1,
4801,-0.04,0.09,
4802,-0.03,0.11,
4803,-0.02,0.11,
4804,-0.025,0.105,
4805,-0.04,0.105,
4806,-0.04,0.105,
4807,-0.04,0.105,
4808,-0.055,0.12,
4809,-0.035,0.125,
4810,-0.02,0.125,
4811,-0.025,0.115,
4812,-0.035,0.105,
4813,-0.035,0.125,
4814,-0.02,0.135,
4815,-0.005,0.13,
4816,-0.015,0.15,
4817,-0.01,0.14,
4818,-0.015,0.135,
4819,-0.02,0.145,
4820,-0.005,0.17,
4821,0.015,0.175,
4822,0.015,0.17,
4823,0.015,0.175,
4824,0.025,0.165,
4825,0.01,0.18,
4826,0.025,0.195,
4827,0.045,0.2,
4828,0.03,0.205,
4829,0.04,0.21,
4830,0.04,0.2,
4831,0.04,0.22,
4832,0.055,0.225,
4833,0.065,0.24,
4834,0.065,0.24,
4835,0.07,0.235,
4836,0.07,0.225,
4837,0.075,0.235,
4838,0.09,0.25,
4839,0.1,0.245,
4840,0.09,0.25,
4841,0.095,0.25,
4842,0.09,0.24,
4843,0.08,0.245,
4844,0.1,0.26,
4845,0.105,0.255,
4846,0.105,0.255,
4847,0.095,0.245,
4848,0.095,0.235,
4849,0.09,0.245,
4850,0.09,0.245,
4851,0.1,0.24,
4852,0.095,0.23,
4853,0.085,0.22,
4854,0.07,0.215,
4855,0.065,0.225,
4856,0.065,0.225,
4857,0.075,0.22,
4858,0.065,0.21,
4859,0.055,0.19,
4860,0.03,0.175,
4861,0.025,0.185,
4862,0.03,0.175,
4863,0.04,0.17,
4864,0.02,0.16,
4865,0.005,0.15,
4866,-0.015,0.13,
4867,-0.02,0.14,
4868,-0.01,0.135,
4869,-0.005,0.13,
4870,-0.015,0.125,
4871,-0.035,0.115,
4872,-0.05,0.09,
4873,-0.055,0.09,
4874,-0.04,0.09,
4875,-0.035,0.085,
4876,-0.035,0.075,
4877,-0.06,0.06,
4878,-0.07,0.05,
4879,-0.07,0.055,
4880,-0.07,0.06,
4881,-0.055,0.045,
4882,-0.065,0.035,
4883,-0.075,0.02,
4884,-0.08,0.02,
4885,-0.09,0.02,
4886,-0.08,0.03,
4887,-0.075,0.025,
4888,-0.08,0.015,
4889,-0.085,0.01,
4890,-0.1,-0.01,
4891,-0.105,0.0,
4892,-0.105,0.0,
4893,-0.08,0.0,
4894,-0.085,0.0,
4895,-0.095,-0.015,
4896,-0.095,-0.02,
4897,-0.105,-0.015,
4898,-0.09,0.0,
4899,-0.1,-0.01,
4900,-0.11,-0.005,
4901,-0.1,-0.01,
4902,-0.11,-0.03,
4903,-0.11,-0.025,
4904,-0.1,-0.015,
4905,-0.09,-0.01,
4906,-0.1,-0.015,
4907,-0.11,-0.035,
4908,-0.12,-0.04,
4909,-0.12,-0.035,
4910,-0.105,-0.02,
4911,-0.1,-0.015,
4912,-0.11,-0.01,
4913,-0.11,-0.03,
4914,-0.115,-0.03,
4915,-0.13,-0.03,
4916,-0.13,-0.015,
4917,-0.12,-0.015,
4918,-0.115,-0.015,
4919,-0.12,-0.03,
4920,-0.125,-0.025,
4921,-0.12,-0.03,
4922,-0.12,-0.015,
4923,-0.115,-0.01,
4924,-0.12,-0.01,
4925,-0.13,-0.015,
4926,-0.13,-0.035,
4927,-0.145,-0.025,
4928,-0.14,-0.015,
4929,-0.125,-0.01,
4930,-0.135,-0.03,
4931,-0.145,-0.035,
4932,-0.155,-0.04,
4933,-0.15,-0.03,
4934,-0.14,-0.025,
4935,-0.15,-0.025,
4936,-0.16,-0.03,
4937,-0.155,-0.045,
4938,-0.165,-0.035,
4939,-0.17,-0.03,
4940,-0.165,-0.04,
4941,-0.145,-0.025,
4942,-0.16,-0.035,
4943,-0.17,-0.045,
4944,-0.165,-0.055,
4945,-0.175,-0.045,
4946,-0.175,-0.03,
4947,-0.16,-0.035,
4948,-0.175,-0.035,
4949,-0.175,-0.06,
4950,-0.19,-0.065,
4951,-0.2,-0.065,
4952,-0.18,-0.055,
4953,-0.17,-0.055,
4954,-0.175,-0.05,
4955,-0.18,-0.065,
4956,-0.195,-0.08,
4957,-0.19,-0.06,
4958,-0.19,-0.055,
4959,-0.18,-0.06,
4960,-0.185,-0.06,
4961,-0.19,-0.07,
4962,-0.2,-0.075,
4963,-0.195,-0.08,
4964,-0.185,-0.06,
4965,-0.18,-0.05,
4966,-0.185,-0.065,
4967,-0.185,-0.07,
4968,-0.205,-0.07,
4969,-0.2,-0.065,
4970,-0.185,-0.065,
4971,-0.175,-0.055,
4972,-0.18,-0.065,
4973,-0.18,-0.08,
4974,-0.195,-0.08,
4975,-0.205,-0.07,
4976,-0.185,-0.07,
4977,-0.185,-0.065,
4978,-0.185,-0.075,
4979,-0.19,-0.08,
4980,-0.19,-0.085,
4981,-0.195,-0.07,
4982,-0.175,-0.065,
4983,-0.17,-0.06,
4984,-0.175,-0.065,
4985,-0.175,-0.07,
4986,-0.175,-0.085,
4987,-0.175,-0.065,
4988,-0.14,-0.055,
4989,-0.12,-0.04,
4990,-0.09,-0.035,
4991,-0.03,-0.015,
4992,0.155,0.045,
4993,0.605,0.295,
4994,0.91,0.66,
4995,0.69,0.715,/
4996,0.275,0.445,
4997,0.075,0.19,
4998,0.075,0.105,
4999,0.12,0.105,
5000,0.12,0.12,
5001,0.085,0.09,
5002,0.075,0.06,
5003,0.07,0.035,
5004,0.08,0.02,
5005,0.07,0.005,
5006,0.075,-0.015,
5007,0.075,-0.055,
5008,0.065,-0.07,
5009,0.05,-0.11,
5010,0.035,-0.14,
5011,-0.01,-0.13,
5012,-0.02,-0.14,
5013,-0.05,-0.15,
5014,-0.095,-0.175,
5015,-0.145,-0.205,
5016,-0.195,-0.24,
5017,-0.245,-0.245,
5018,-0.315,-0.24,
5019,-0.39,-0.26,
5020,-0.48,-0.27,
5021,-0.555,-0.295,
5022,-0.615,-0.315,
5023,-0.675,-0.325,
5024,-0.73,-0.325,
5025,-0.78,-0.38,
5026,-0.815,-0.43,
5027,-0.83,-0.495,
5028,-0.86,-0.54,
5029,-0.885,-0.57,
5030,-0.88,-0.575,
5031,-0.88,-0.605,
5032,-0.88,-0.645,
5033,-0.89,-0.705,
5034,-0.89,-0.755,
5035,-0.875,-0.775,
5036,-0.845,-0.795,
5037,-0.8,-0.815,
5038,-0.77,-0.85,
5039,-0.715,-0.89,
5040,-0.65,-0.885,
5041,-0.61,-0.855,
5042,-0.56,-0.81,
5043,-0.5,-0.78,
5044,-0.44,-0.725,
5045,-0.395,-0.69,
5046,-0.35,-0.64,
5047,-0.32,-0.57,
5048,-0.275,-0.495,
5049,-0.24,-0.44,
5050,-0.24,-0.395,
5051,-0.235,-0.355,
5052,-0.235,-0.33,
5053,-0.235,-0.305,
5054,-0.2,-0.265,
5055,-0.17,-0.24,
5056,-0.17,-0.22,
5057,-0.17,-0.225,
5058,-0.185,-0.215,
5059,-0.175,-0.19,
5060,-0.165,-0.155,
5061,-0.15,-0.14,
5062,-0.145,-0.13,
5063,-0.15,-0.11,
5064,-0.155,-0.095,
5065,-0.155,-0.065,
5066,-0.11,-0.03,
5067,-0.09,-0.015,
5068,-0.09,0.005,
5069,-0.085,0.015,
5070,-0.085,0.015,
5071,-0.07,0.035,
5072,-0.05,0.055,
5073,-0.04,0.065,
5074,-0.04,0.06,
5075,-0.035,0.05,
5076,-0.035,0.045,
5077,-0.04,0.06,
5078,-0.03,0.065,
5079,-0.015,0.08,
5080,-0.015,0.08,
5081,-0.02,0.065,
5082,-0.03,0.065,
5083,-0.025,0.085,
5084,-0.015,0.095,
5085,0.005,0.1,
5086,0.005,0.1,
5087,0.015,0.09,
5088,0.015,0.08,
5089,0.005,0.1,
5090,0.015,0.125,
5091,0.04,0.125,
5092,0.025,0.12,
5093,0.025,0.11,
5094,0.01,0.12,
5095,0.02,0.14,
5096,0.04,0.14,
5097,0.045,0.155,
5098,0.055,0.155,
5099,0.055,0.16,
5100,0.045,0.155,
5101,0.045,0.17,
5102,0.06,0.195,
5103,0.07,0.2,
5104,0.07,0.2,
5105,0.065,0.2,
5106,0.065,0.205,
5107,0.07,0.22,
5108,0.085,0.23,
5109,0.09,0.245,
5110,0.08,0.25,
5111,0.085,0.235,
5112,0.09,0.25,
5113,0.085,0.25,
5114,0.095,0.27,
5115,0.12,0.28,
5116,0.115,0.275,
5117,0.11,0.265,
5118,0.1,0.265,
5119,0.13,0.28,
5120,0.145,0.29,
5121,0.155,0.29,
5122,0.165,0.295,
5123,0.17,0.28,
5124,0.165,0.28,
5125,0.17,0.285,
5126,0.19,0.3,
5127,0.2,0.29,
5128,0.195,0.3,
5129,0.195,0.3,
5130,0.195,0.29,
5131,0.19,0.305,
5132,0.205,0.32,
5133,0.225,0.305,
5134,0.225,0.315,
5135,0.23,0.285,
5136,0.23,0.295,
5137,0.225,0.295,
5138,0.25,0.31,
5139,0.255,0.315,
5140,0.225,0.305,
5141,0.215,0.28,
5142,0.185,0.26,
5143,0.165,0.27,
5144,0.16,0.27,
5145,0.16,0.265,
5146,0.145,0.24,
5147,0.135,0.22,
5148,0.12,0.225,
5149,0.105,0.22,
5150,0.09,0.215,
5151,0.095,0.2,
5152,0.075,0.2,
5153,0.06,0.17,
5154,0.035,0.165,
5155,0.03,0.15,
5156,0.025,0.155,
5157,0.025,0.155,
5158,0.015,0.13,
5159,0.005,0.13,
5160,-0.01,0.11,
5161,-0.015,0.09,
5162,-0.01,0.115,
5163,0.0,0.095,
5164,-0.035,0.095,
5165,-0.035,0.07,
5166,-0.05,0.06,
5167,-0.055,0.065,
5168,-0.05,0.065,
5169,-0.045,0.065,
5170,-0.045,0.05,
5171,-0.055,0.04,
5172,-0.07,0.03,
5173,-0.065,0.035,
5174,-0.06,0.025,
5175,-0.06,0.035,
5176,-0.065,0.035,
5177,-0.075,0.02,
5178,-0.09,0.0,
5179,-0.075,0.01,
5180,-0.075,0.015,
5181,-0.075,0.01,
5182,-0.085,0.01,
5183,-0.085,-0.005,
5184,-0.095,-0.005,
5185,-0.1,0.0,
5186,-0.09,0.005,
5187,-0.075,-0.01,
5188,-0.075,-0.005,
5189,-0.09,-0.01,
5190,-0.1,-0.015,
5191,-0.115,-0.005,
5192,-0.105,0.0,
5193,-0.095,0.01,
5194,-0.1,0.0,
5195,-0.11,-0.005,
5196,-0.11,-0.015,
5197,-0.12,-0.01,
5198,-0.115,0.005,
5199,-0.11,0.005,
5200,-0.115,-0.01,
5201,-0.11,-0.02,
5202,-0.13,-0.01,
5203,-0.135,0.005,
5204,-0.125,0.0,
5205,-0.11,0.005,
5206,-0.12,-0.005,
5207,-0.13,-0.01,
5208,-0.135,-0.015,
5209,-0.135,-0.01,
5210,-0.13,0.005,
5211,-0.125,-0.005,
5212,-0.125,-0.015,
5213,-0.125,-0.015,
5214,-0.14,-0.015,
5215,-0.145,-0.015,
5216,-0.145,-0.005,
5217,-0.13,0.0,
5218,-0.135,-0.005,
5219,-0.14,-0.01,
5220,-0.15,-0.02,
5221,-0.145,-0.035,
5222,-0.155,0.0,
5223,-0.14,-0.015,
5224,-0.14,-0.02,
5225,-0.16,-0.035,
5226,-0.18,-0.04,
5227,-0.18,-0.03,
5228,-0.16,-0.02,
5229,-0.155,-0.02,
5230,-0.15,-0.025,
5231,-0.16,-0.035,
5232,-0.17,-0.05,
5233,-0.19,-0.035,
5234,-0.17,-0.035,
5235,-0.17,-0.035,
5236,-0.18,-0.04,
5237,-0.19,-0.04,
5238,-0.19,-0.055,
5239,-0.195,-0.055,
5240,-0.185,-0.04,
5241,-0.17,-0.045,
5242,-0.175,-0.04,
5243,-0.185,-0.06,
5244,-0.2,-0.06,
5245,-0.19,-0.06,
5246,-0.185,-0.045,
5247,-0.185,-0.035,
5248,-0.175,-0.045,
5249,-0.19,-0.06,
5250,-0.2,-0.065,
5251,-0.21,-0.065,
5252,-0.19,-0.05,
5253,-0.185,-0.04,
5254,-0.19,-0.05,
5255,-0.19,-0.045,
5256,-0.195,-0.06,
5257,-0.2,-0.065,
5258,-0.185,-0.05,
5259,-0.18,-0.045,
5260,-0.19,-0.045,
5261,-0.195,-0.06,
5262,-0.21,-0.065,
5263,-0.21,-0.06,
5264,-0.19,-0.05,
5265,-0.18,-0.045,
5266,-0.185,-0.045,
5267,-0.185,-0.055,
5268,-0.195,-0.065,
5269,-0.19,-0.045,
5270,-0.175,-0.04,
5271,-0.175,-0.04,
5272,-0.175,-0.05,
5273,-0.16,-0.06,
5274,-0.145,-0.05,
5275,-0.12,-0.04,
5276,-0.04,-0.005,
5277,0.135,0.045,
5278,0.515,0.155,
5279,0.935,0.455,
5280,0.905,0.75,
5281,0.5,0.705,/
5282,0.16,0.405,
5283,0.07,0.21,
5284,0.09,0.15,
5285,0.105,0.14,
5286,0.075,0.11,
5287,0.035,0.09,
5288,0.03,0.09,
5289,0.03,0.085,
5290,0.05,0.07,
5291,0.03,0.04,
5292,0.025,0.01,
5293,0.01,-0.01,
5294,0.005,-0.04,
5295,0.015,-0.05,
5296,0.0,-0.08,
5297,-0.03,-0.095,
5298,-0.06,-0.115,
5299,-0.065,-0.135,
5300,-0.09,-0.125,
5301,-0.115,-0.14,
5302,-0.16,-0.165,
5303,-0.21,-0.18,
5304,-0.26,-0.215,
5305,-0.3,-0.23,
5306,-0.35,-0.23,
5307,-0.42,-0.24,
5308,-0.49,-0.26,
5309,-0.565,-0.275,
5310,-0.625,-0.29,
5311,-0.675,-0.29,
5312,-0.73,-0.3,
5313,-0.785,-0.315,
5314,-0.84,-0.37,
5315,-0.86,-0.445,
5316,-0.895,-0.485,
5317,-0.9,-0.525,
5318,-0.92,-0.54,
5319,-0.915,-0.57,
5320,-0.92,-0.615,
5321,-0.935,-0.675,
5322,-0.93,-0.72,
5323,-0.93,-0.755,
5324,-0.91,-0.77,
5325,-0.89,-0.8,
5326,-0.855,-0.83,
5327,-0.82,-0.86,
5328,-0.765,-0.88,
5329,-0.705,-0.875,
5330,-0.645,-0.855,
5331,-0.58,-0.825,
5332,-0.54,-0.785,
5333,-0.495,-0.765,
5334,-0.46,-0.71,
5335,-0.41,-0.65,
5336,-0.375,-0.585,
5337,-0.34,-0.53,
5338,-0.32,-0.48,
5339,-0.3,-0.45,
5340,-0.3,-0.41,
5341,-0.3,-0.35,
5342,-0.275,-0.315,
5343,-0.25,-0.295,
5344,-0.245,-0.27,
5345,-0.24,-0.245,
5346,-0.235,-0.24,
5347,-0.23,-0.22,
5348,-0.205,-0.2,
5349,-0.2,-0.18,
5350,-0.2,-0.16,
5351,-0.21,-0.15,
5352,-0.215,-0.135,
5353,-0.2,-0.11,
5354,-0.195,-0.07,
5355,-0.18,-0.045,
5356,-0.17,-0.03,
5357,-0.16,-0.025,
5358,-0.155,-0.01,
5359,-0.135,0.015,
5360,-0.135,0.04,
5361,-0.115,0.05,
5362,-0.1,0.06,
5363,-0.1,0.045,
5364,-0.095,0.055,
5365,-0.085,0.055,
5366,-0.075,0.08,
5367,-0.065,0.08,
5368,-0.07,0.07,
5369,-0.08,0.075,
5370,-0.09,0.075,
5371,-0.085,0.075,
5372,-0.06,0.09,
5373,-0.04,0.105,
5374,-0.04,0.1,
5375,-0.045,0.09,
5376,-0.05,0.095,
5377,-0.045,0.11,
5378,-0.035,0.115,
5379,-0.02,0.115,
5380,-0.03,0.125,
5381,-0.025,0.115,
5382,-0.02,0.115,
5383,-0.035,0.125,
5384,-0.015,0.135,
5385,-0.005,0.135,
5386,-0.005,0.145,
5387,-0.015,0.145,
5388,-0.005,0.14,
5389,-0.01,0.155,
5390,0.01,0.165,
5391,0.02,0.185,
5392,0.035,0.165,
5393,0.035,0.165,
5394,0.025,0.16,
5395,0.01,0.18,
5396,0.025,0.2,
5397,0.03,0.205,
5398,0.045,0.2,
5399,0.05,0.185,
5400,0.035,0.195,
5401,0.035,0.215,
5402,0.05,0.22,
5403,0.05,0.225,
5404,0.055,0.24,
5405,0.045,0.23,
5406,0.055,0.235,
5407,0.055,0.245,
5408,0.065,0.265,
5409,0.08,0.26,
5410,0.08,0.27,
5411,0.095,0.27,
5412,0.08,0.265,
5413,0.09,0.29,
5414,0.1,0.3,
5415,0.1,0.305,
5416,0.105,0.3,
5417,0.105,0.295,
5418,0.095,0.3,
5419,0.1,0.31,
5420,0.115,0.32,
5421,0.13,0.32,
5422,0.12,0.32,
5423,0.115,0.31,
5424,0.11,0.305,
5425,0.11,0.315,
5426,0.12,0.325,
5427,0.12,0.32,
5428,0.11,0.315,
5429,0.1,0.31,
5430,0.09,0.29,
5431,0.085,0.305,
5432,0.095,0.32,
5433,0.1,0.3,
5434,0.085,0.295,
5435,0.07,0.285,
5436,0.055,0.275,
5437,0.045,0.265,
5438,0.04,0.295,
5439,0.045,0.265,
5440,0.045,0.265,
5441,0.02,0.235,
5442,0.0,0.22,
5443,0.005,0.22,
5444,0.0,0.225,
5445,-0.015,0.225,
5446,-0.025,0.22,
5447,-0.035,0.19,
5448,-0.055,0.2,
5449,-0.05,0.19,
5450,-0.055,0.2,
5451,-0.065,0.195,
5452,-0.065,0.185,
5453,-0.08,0.165,
5454,-0.105,0.155,
5455,-0.095,0.15,
5456,-0.105,0.155,
5457,-0.105,0.155,
5458,-0.105,0.145,
5459,-0.11,0.125,
5460,-0.115,0.115,
5461,-0.115,0.115,
5462,-0.115,0.12,
5463,-0.115,0.115,
5464,-0.11,0.095,
5465,-0.105,0.085,
5466,-0.12,0.07,
5467,-0.115,0.08,
5468,-0.1,0.07,
5469,-0.1,0.065,
5470,-0.095,0.065,
5471,-0.105,0.045,
5472,-0.115,0.04,
5473,-0.11,0.05,
5474,-0.105,0.055,
5475,-0.095,0.06,
5476,-0.1,0.05,
5477,-0.095,0.035,
5478,-0.11,0.03,
5479,-0.09,0.035,
5480,-0.08,0.055,
5481,-0.07,0.04,
5482,-0.065,0.045,
5483,-0.08,0.055,
5484,-0.08,0.04,
5485,-0.09,0.05,
5486,-0.08,0.06,
5487,-0.095,0.05,
5488,-0.11,0.045,
5489,-0.125,0.025,
5490,-0.15,0.03,
5491,-0.145,0.03,
5492,-0.14,0.05,
5493,-0.14,0.03,
5494,-0.155,0.03,
5495,-0.165,0.025,
5496,-0.185,0.01,
5497,-0.185,0.015,
5498,-0.19,0.025,
5499,-0.18,0.015,
5500,-0.18,0.015,
5501,-0.19,0.005,
5502,-0.19,0.0,
5503,-0.205,-0.005,
5504,-0.19,0.005,
5505,-0.19,0.0,
5506,-0.19,-0.005,
5507,-0.2,-0.015,
5508,-0.2,-0.015,
5509,-0.21,-0.01,
5510,-0.19,-0.005,
5511,-0.19,-0.01,
5512,-0.19,-0.005,
5513,-0.205,-0.02,
5514,-0.21,-0.025,
5515,-0.215,-0.015,
5516,-0.215,-0.005,
5517,-0.21,0.0,
5518,-0.22,-0.02,
5519,-0.225,-0.025,
5520,-0.225,-0.035,
5521,-0.225,-0.025,
5522,-0.225,-0.02,
5523,-0.205,-0.02,
5524,-0.21,-0.03,
5525,-0.215,-0.045,
5526,-0.225,-0.04,
5527,-0.24,-0.03,
5528,-0.23,-0.03,
5529,-0.195,-0.025,
5530,-0.21,-0.03,
5531,-0.23,-0.04,
5532,-0.245,-0.045,
5533,-0.225,-0.035,
5534,-0.225,-0.03,
5535,-0.215,-0.025,
5536,-0.235,-0.025,
5537,-0.23,-0.03,
5538,-0.245,-0.035,
5539,-0.25,-0.04,
5540,-0.24,-0.025,
5541,-0.22,-0.035,
5542,-0.215,-0.025,
5543,-0.215,-0.045,
5544,-0.225,-0.035,
5545,-0.22,-0.03,
5546,-0.21,-0.02,
5547,-0.205,-0.025,
5548,-0.195,-0.025,
5549,-0.205,-0.04,
5550,-0.21,-0.045,
5551,-0.205,-0.03,
5552,-0.2,-0.01,
5553,-0.205,0.01,
5554,-0.17,0.02,
5555,-0.155,0.015,
5556,-0.115,0.025,
5557,-0.03,0.055,
5558,0.06,0.095,
5559,0.155,0.115,
5560,0.25,0.145,
5561,0.33,0.16,
5562,0.415,0.15,
5563,0.55,0.155,
5564,0.73,0.185,
5565,0.905,0.19,
5566,1.01,0.19,
5567,1.015,0.185,
5568,1.135,0.21,
5569,1.52,0.485,f
5570,1.68,0.71,
5571,1.435,0.455,
5572,0.995,0.005,
5573,0.66,-0.275,
5574,0.435,-0.365,
5575,0.265,-0.375,
5576,0.08,-0.36,
5577,-0.095,-0.35,
5578,-0.23,-0.305,
5579,-0.3,-0.275,
5580,-0.34,-0.22,
5581,-0.36,-0.185,
5582,-0.34,-0.14,
5583,-0.32,-0.09,
5584,-0.305,-0.07,
5585,-0.31,-0.07,
5586,-0.315,-0.055,
5587,-0.31,-0.04,
5588,-0.3,-0.03,
5589,-0.285,-0.03,
5590,-0.285,-0.04,
5591,-0.3,-0.055,
5592,-0.31,-0.065,
5593,-0.305,-0.06,
5594,-0.31,-0.05,
5595,-0.305,-0.04,
5596,-0.325,-0.06,
5597,-0.335,-0.07,
5598,-0.35,-0.07,
5599,-0.35,-0.055,
5600,-0.335,-0.055,
5601,-0.335,-0.055,
5602,-0.35,-0.075,
5603,-0.36,-0.085,
5604,-0.38,-0.09,
5605,-0.38,-0.085,
5606,-0.375,-0.08,
5607,-0.37,-0.075,
5608,-0.385,-0.085,
5609,-0.395,-0.095,
5610,-0.4,-0.11,
5611,-0.41,-0.105,
5612,-0.405,-0.09,
5613,-0.405,-0.1,
5614,-0.415,-0.095,
5615,-0.43,-0.11,
5616,-0.445,-0.125,
5617,-0.445,-0.12,
5618,-0.435,-0.115,
5619,-0.445,-0.12,
5620,-0.45,-0.125,
5621,-0.46,-0.13,
5622,-0.48,-0.135,
5623,-0.47,-0.13,
5624,-0.465,-0.13,
5625,-0.455,-0.125,
5626,-0.45,-0.13,
5627,-0.475,-0.15,
5628,-0.485,-0.15,
5629,-0.5,-0.14,
5630,-0.495,-0.14,
5631,-0.49,-0.14,
5632,-0.5,-0.16,
5633,-0.515,-0.165,
5634,-0.53,-0.175,
5635,-0.52,-0.165,
5636,-0.535,-0.165,
5637,-0.52,-0.17,
5638,-0.515,-0.175,
5639,-0.53,-0.175,
5640,-0.545,-0.185,
5641,-0.54,-0.165,
5642,-0.53,-0.155,
5643,-0.52,-0.16,
5644,-0.53,-0.165,
5645,-0.53,-0.18,
5646,-0.545,-0.185,
5647,-0.545,-0.17,
5648,-0.525,-0.165,
5649,-0.515,-0.165,
5650,-0.525,-0.16,
5651,-0.53,-0.17,
5652,-0.535,-0.175,
5653,-0.545,-0.17,
5654,-0.53,-0.165,
5655,-0.525,-0.15,
5656,-0.505,-0.165,
5657,-0.495,-0.16,
5658,-0.5,-0.17,
5659,-0.49,-0.155,
5660,-0.475,-0.14,
5661,-0.47,-0.14,
5662,-0.47,-0.135,
5663,-0.47,-0.135,
5664,-0.47,-0.14,
5665,-0.465,-0.135,
5666,-0.445,-0.105,
5667,-0.43,-0.1,
5668,-0.405,-0.11,
5669,-0.41,-0.1,
5670,-0.395,-0.105,
5671,-0.37,-0.08,
5672,-0.36,-0.055,
5673,-0.345,-0.05,
5674,-0.33,-0.05,
5675,-0.32,-0.055,
5676,-0.32,-0.055,
5677,-0.305,-0.04,
5678,-0.29,-0.015,
5679,-0.29,-0.005,
5680,-0.26,-0.015,
5681,-0.25,-0.02,
5682,-0.255,-0.01,
5683,-0.225,0.005,
5684,-0.22,0.015,
5685,-0.205,0.02,
5686,-0.205,0.015,
5687,-0.205,0.01,
5688,-0.23,-0.005,
5689,-0.22,0.005,
5690,-0.195,0.025,
5691,-0.18,0.03,
5692,-0.185,0.025,
5693,-0.2,0.015,
5694,-0.205,0.01,
5695,-0.205,0.025,
5696,-0.185,0.025,
5697,-0.19,0.035,
5698,-0.19,0.03,
5699,-0.19,0.015,
5700,-0.205,0.005,
5701,-0.215,0.02,
5702,-0.195,0.025,
5703,-0.18,0.03,
5704,-0.185,0.02,
5705,-0.195,0.005,
5706,-0.22,0.0,
5707,-0.225,0.02,
5708,-0.21,0.02,
5709,-0.205,0.015,
5710,-0.19,0.015,
5711,-0.21,-0.005,
5712,-0.215,0.0,
5713,-0.225,-0.005,
5714,-0.22,0.005,
5715,-0.225,0.01,
5716,-0.235,0.005,
5717,-0.235,-0.005,
5718,-0.24,-0.015,
5719,-0.23,-0.005,
5720,-0.22,0.0,
5721,-0.215,0.0,
5722,-0.215,-0.01,
5723,-0.22,-0.02,
5724,-0.25,-0.02,
5725,-0.235,-0.01,
5726,-0.24,-0.005,
5727,-0.23,-0.015,
5728,-0.235,-0.005,
5729,-0.245,-0.02,
5730,-0.265,-0.015,
5731,-0.27,-0.015,
5732,-0.265,-0.005,
5733,-0.275,-0.015,
5734,-0.265,-0.01,
5735,-0.26,-0.02,
5736,-0.255,-0.01,
5737,-0.245,-0.005,
5738,-0.25,0.0,
5739,-0.255,0.0,
5740,-0.27,-0.01,
5741,-0.265,-0.01,
5742,-0.27,-0.02,
5743,-0.255,-0.01,
5744,-0.24,0.005,
5745,-0.24,0.005,
5746,-0.25,0.005,
5747,-0.26,-0.005,
5748,-0.275,-0.015,
5749,-0.265,-0.005,
5750,-0.25,0.005,
5751,-0.23,-0.005,
5752,-0.23,-0.01,
5753,-0.24,-0.025,
5754,-0.24,-0.02,
5755,-0.245,-0.01,
5756,-0.235,0.005,
5757,-0.24,-0.005,
5758,-0.25,-0.01,
5759,-0.265,-0.01,
5760,-0.27,-0.02,
5761,-0.255,-0.005,
5762,-0.23,0.0,
5763,-0.225,-0.005,
5764,-0.23,-0.005,
5765,-0.235,-0.02,
5766,-0.26,-0.03,
5767,-0.265,-0.015,
5768,-0.255,-0.005,
5769,-0.25,-0.005,
5770,-0.22,-0.015,
5771,-0.21,-0.03,
5772,-0.215,-0.03,
5773,-0.235,-0.025,
5774,-0.235,-0.015,
5775,-0.245,-0.015,
5776,-0.235,-0.01,
5777,-0.255,-0.03,
5778,-0.265,-0.025,
5779,-0.26,-0.005,
5780,-0.25,0.005,
5781,-0.235,0.015,
5782,-0.23,0.0,
5783,-0.255,-0.01,
5784,-0.26,-0.005,
5785,-0.27,0.005,
5786,-0.27,0.01,
5787,-0.25,0.025,
5788,-0.255,0.01,
5789,-0.265,-0.005,
5790,-0.27,-0.005,
5791,-0.265,-0.005,
5792,-0.255,-0.005,
5793,-0.25,-0.02,
5794,-0.25,-0.02,
5795,-0.255,-0.025,
5796,-0.265,-0.03,
5797,-0.245,-0.025,
5798,-0.23,-0.01,
5799,-0.21,-0.02,
5800,-0.2,-0.03,
5801,-0.195,-0.04,
5802,-0.215,-0.045,
5803,-0.24,-0.03,
5804,-0.23,-0.02,
5805,-0.235,-0.02,
5806,-0.205,-0.035,
5807,-0.205,-0.04,
5808,-0.2,-0.04,
5809,-0.19,-0.03,
5810,-0.185,-0.015,
5811,-0.175,-0.01,
5812,-0.175,-0.01,
5813,-0.2,-0.035,
5814,-0.22,-0.045,
5815,-0.22,-0.03,
5816,-0.2,-0.03,
5817,-0.175,-0.035,
5818,-0.18,-0.03,
5819,-0.2,-0.06,
5820,-0.235,-0.065,
5821,-0.255,-0.055,
5822,-0.26,-0.04,
5823,-0.25,-0.05,
5824,-0.24,-0.045,
5825,-0.235,-0.06,
5826,-0.245,-0.07,
5827,-0.245,-0.055,
5828,-0.26,-0.045,
5829,-0.26,-0.05,
5830,-0.265,-0.06,
5831,-0.27,-0.08,
5832,-0.28,-0.07,
5833,-0.275,-0.07,
5834,-0.24,-0.055,
5835,-0.23,-0.05,
5836,-0.23,-0.06,
5837,-0.25,-0.065,
5838,-0.265,-0.065,
5839,-0.24,-0.06,
5840,-0.23,-0.04,
5841,-0.22,-0.04,
5842,-0.22,-0.04,
5843,-0.21,-0.045,
5844,-0.19,-0.045,
5845,-0.145,-0.025,
5846,-0.04,0.005,
5847,0.235,0.04,
5848,0.71,0.265,
5849,0.875,0.615,
5850,0.545,0.66,
5851,0.155,0.4,
5852,0.005,0.2,
5853,0.045,0.145,
5854,0.07,0.14,
5855,0.065,0.125,
5856,0.02,0.1,
5857,0.03,0.095,
5858,0.045,0.11,
5859,0.06,0.105,
5860,0.075,0.09,
5861,0.1,0.065,
5862,0.14,0.055,
5863,0.23,0.05,
5864,0.315,0.05,
5865,0.39,0.07,
5866,0.455,0.08,
5867,0.49,0.08,
5868,0.53,0.085,
5869,0.585,0.07,
5870,0.67,0.05,
5871,0.765,0.03,
5872,0.865,0.015,
5873,0.95,0.02,f
5874,1.005,0.035,
5875,1.0,0.02,
5876,0.89,-0.03,
5877,0.71,-0.13,
5878,0.52,-0.255,
5879,0.32,-0.35,
5880,0.125,-0.395,
5881,-0.055,-0.415,
5882,-0.23,-0.405,
5883,-0.38,-0.39,
5884,-0.49,-0.37,
5885,-0.555,-0.34,
5886,-0.555,-0.29,
5887,-0.52,-0.25,
5888,-0.49,-0.19,
5889,-0.475,-0.155,
5890,-0.47,-0.13,
5891,-0.47,-0.125,
5892,-0.465,-0.105,
5893,-0.455,-0.09,
5894,-0.44,-0.08,
5895,-0.425,-0.07,
5896,-0.425,-0.065,
5897,-0.435,-0.075,
5898,-0.455,-0.07,
5899,-0.445,-0.065,
5900,-0.43,-0.065,
5901,-0.41,-0.07,
5902,-0.44,-0.08,
5903,-0.445,-0.085,
5904,-0.46,-0.09,
5905,-0.45,-0.07,
5906,-0.435,-0.07,
5907,-0.435,-0.055,
5908,-0.44,-0.075,
5909,-0.445,-0.085,
5910,-0.445,-0.09,
5911,-0.455,-0.085,
5912,-0.455,-0.07,
5913,-0.44,-0.07,
5914,-0.455,-0.085,
5915,-0.45,-0.09,
5916,-0.465,-0.095,
5917,-0.47,-0.085,
5918,-0.46,-0.085,
5919,-0.46,-0.08,
5920,-0.46,-0.095,
5921,-0.475,-0.095,
5922,-0.48,-0.1,
5923,-0.475,-0.105,
5924,-0.48,-0.095,
5925,-0.465,-0.105,
5926,-0.47,-0.105,
5927,-0.485,-0.11,
5928,-0.495,-0.105,
5929,-0.485,-0.105,
5930,-0.485,-0.1,
5931,-0.48,-0.095,
5932,-0.48,-0.1,
5933,-0.49,-0.11,
5934,-0.495,-0.105,
5935,-0.5,-0.105,
5936,-0.49,-0.09,
5937,-0.49,-0.09,
5938,-0.5,-0.095,
5939,-0.485,-0.11,
5940,-0.51,-0.105,
5941,-0.49,-0.105,
5942,-0.48,-0.08,
5943,-0.475,-0.085,
5944,-0.475,-0.085,
5945,-0.475,-0.105,
5946,-0.485,-0.105,
5947,-0.48,-0.08,
5948,-0.47,-0.07,
5949,-0.465,-0.07,
5950,-0.47,-0.075,
5951,-0.48,-0.075,
5952,-0.475,-0.08,
5953,-0.47,-0.07,
5954,-0.455,-0.055,
5955,-0.45,-0.065,
5956,-0.445,-0.06,
5957,-0.45,-0.075,
5958,-0.445,-0.06,
5959,-0.455,-0.055,
5960,-0.435,-0.04,
5961,-0.425,-0.04,
5962,-0.405,-0.04,
5963,-0.415,-0.045,
5964,-0.42,-0.03,
5965,-0.41,-0.03,
5966,-0.395,-0.01,
5967,-0.385,-0.01,
5968,-0.38,-0.02,
5969,-0.365,-0.02,
5970,-0.365,0.0,
5971,-0.35,0.005,
5972,-0.345,0.015,
5973,-0.32,0.01,
5974,-0.31,0.015,
5975,-0.31,0.005,
5976,-0.3,0.01,
5977,-0.28,0.03,
5978,-0.26,0.055,
5979,-0.245,0.03,
5980,-0.235,0.05,
5981,-0.24,0.045,
5982,-0.235,0.035,
5983,-0.225,0.06,
5984,-0.21,0.065,
5985,-0.195,0.06,
5986,-0.19,0.06,
5987,-0.195,0.055,
5988,-0.18,0.05,
5989,-0.185,0.055,
5990,-0.18,0.08,
5991,-0.16,0.07,
5992,-0.16,0.07,
5993,-0.175,0.05,
5994,-0.19,0.05,
5995,-0.185,0.055,
5996,-0.18,0.065,
5997,-0.165,0.07,
5998,-0.16,0.065,
5999,-0.16,0.05,
6000,-0.175,0.05,
6001,-0.165,0.06,
6002,-0.165,0.065,
6003,-0.165,0.055,
6004,-0.175,0.05,
6005,-0.18,0.04,
6006,-0.19,0.035,
6007,-0.185,0.04,
6008,-0.19,0.045,
6009,-0.19,0.045,
6010,-0.18,0.04,
6011,-0.19,0.03,
6012,-0.205,0.03,
6013,-0.2,0.03,
6014,-0.2,0.035,
6015,-0.2,0.035,
6016,-0.2,0.035,
6017,-0.21,0.025,
6018,-0.22,0.025,
6019,-0.22,0.025,
6020,-0.21,0.035,
6021,-0.205,0.045,
6022,-0.205,0.035,
6023,-0.22,0.015,
6024,-0.23,0.005,
6025,-0.23,0.02,
6026,-0.23,0.035,
6027,-0.22,0.02,
6028,-0.22,0.01,
6029,-0.235,0.01,
6030,-0.24,0.01,
6031,-0.245,0.005,
6032,-0.25,0.02,
6033,-0.24,0.02,
6034,-0.24,0.02,
6035,-0.245,0.0,
6036,-0.26,-0.005,
6037,-0.25,0.0,
6038,-0.245,0.015,
6039,-0.24,0.015,
6040,-0.24,0.01,
6041,-0.265,0.005,
6042,-0.265,-0.01,
6043,-0.275,0.0,
6044,-0.255,0.015,
6045,-0.25,0.0,
6046,-0.255,0.005,
6047,-0.28,-0.005,
6048,-0.275,0.0,
6049,-0.27,0.01,
6050,-0.265,0.015,
6051,-0.255,0.01,
6052,-0.26,0.005,
6053,-0.255,-0.005,
6054,-0.27,0.0,
6055,-0.26,-0.005,
6056,-0.25,0.015,
6057,-0.25,0.01,
6058,-0.25,0.005,
6059,-0.255,-0.005,
6060,-0.255,-0.005,
6061,-0.25,0.01,
6062,-0.24,0.015,
6063,-0.225,0.025,
6064,-0.235,0.005,
6065,-0.235,0.005,
6066,-0.25,0.0,
6067,-0.24,0.01,
6068,-0.23,0.02,
6069,-0.22,0.015,
6070,-0.225,0.01,
6071,-0.23,0.0,
6072,-0.25,-0.005,
6073,-0.24,0.005,
6074,-0.22,0.025,
6075,-0.205,0.015,
6076,-0.21,0.02,
6077,-0.22,0.005,
6078,-0.245,0.015,
6079,-0.23,0.005,
6080,-0.215,0.01,
6081,-0.215,0.005,
6082,-0.21,-0.005,
6083,-0.22,-0.005,
6084,-0.24,-0.005,
6085,-0.225,0.01,
6086,-0.21,0.015,
6087,-0.205,0.01,
6088,-0.215,-0.005,
6089,-0.22,-0.015,
6090,-0.225,-0.015,
6091,-0.23,-0.01,
6092,-0.215,0.005,
6093,-0.22,0.0,
6094,-0.225,-0.01,
6095,-0.23,-0.03,
6096,-0.23,-0.01,
6097,-0.23,-0.015,
6098,-0.23,0.005,
6099,-0.22,-0.005,
6100,-0.22,-0.025,
6101,-0.235,-0.025,
6102,-0.235,-0.02,
6103,-0.24,-0.01,
6104,-0.215,0.0,
6105,-0.225,0.0,
6106,-0.215,-0.005,
6107,-0.235,-0.025,
6108,-0.25,-0.005,
6109,-0.245,0.0,
6110,-0.235,0.02,
6111,-0.225,0.005,
6112,-0.22,0.01,
6113,-0.235,0.01,
6114,-0.245,0.01,
6115,-0.24,0.015,
6116,-0.235,0.025,
6117,-0.22,0.025,
6118,-0.225,0.03,
6119,-0.24,0.015,
6120,-0.255,0.005,
6121,-0.235,0.005,
6122,-0.225,0.005,
6123,-0.22,0.0,
6124,-0.215,0.0,
6125,-0.225,-0.02,
6126,-0.225,-0.03,
6127,-0.215,-0.03,
6128,-0.2,-0.01,
6129,-0.19,-0.01,
6130,-0.18,-0.01,
6131,-0.185,-0.03,
6132,-0.18,-0.035,
6133,-0.175,-0.02,
6134,-0.165,0.01,
6135,-0.125,0.0,
6136,-0.105,0.01,
6137,-0.055,0.005,
6138,0.045,0.02,
6139,0.32,0.065,
6140,0.775,0.215,
6141,1.065,0.56,
6142,0.845,0.79,
6143,0.425,0.63,/
6144,0.18,0.35,
6145,0.16,0.215,
6146,0.195,0.21,
6147,0.195,0.19,
6148,0.145,0.16,
6149,0.105,0.12,
6150,0.07,0.095,
6151,0.075,0.1,
6152,0.065,0.095,
6153,0.075,0.065,
6154,0.075,0.04,
6155,0.065,0.02,
6156,0.045,-0.01,
6157,0.035,-0.03,
6158,0.05,-0.05,
6159,0.05,-0.07,
6160,0.035,-0.075,
6161,0.025,-0.105,
6162,0.005,-0.105,
6163,-0.005,-0.11,
6164,-0.02,-0.115,
6165,-0.05,-0.135,
6166,-0.085,-0.155,
6167,-0.125,-0.185,
6168,-0.175,-0.195,
6169,-0.205,-0.21,
6170,-0.26,-0.2,
6171,-0.345,-0.215,
6172,-0.435,-0.23,
6173,-0.495,-0.25,
6174,-0.545,-0.26,
6175,-0.585,-0.255,
6176,-0.62,-0.255,
6177,-0.675,-0.275,
6178,-0.73,-0.295,
6179,-0.79,-0.355,
6180,-0.815,-0.4,
6181,-0.84,-0.435,
6182,-0.855,-0.47,
6183,-0.855,-0.505,
6184,-0.86,-0.54,
6185,-0.875,-0.565,
6186,-0.895,-0.585,
6187,-0.885,-0.61,
6188,-0.865,-0.64,
6189,-0.875,-0.655,
6190,-0.865,-0.685,
6191,-0.865,-0.72,
6192,-0.845,-0.75,
6193,-0.805,-0.77,
6194,-0.765,-0.795,
6195,-0.71,-0.83,
6196,-0.665,-0.84,
6197,-0.625,-0.84,
6198,-0.605,-0.81,
6199,-0.555,-0.775,
6200,-0.5,-0.725,
6201,-0.45,-0.71,
6202,-0.415,-0.655,
6203,-0.385,-0.61,
6204,-0.365,-0.56,
6205,-0.345,-0.51,
6206,-0.31,-0.45,
6207,-0.28,-0.405,
6208,-0.28,-0.37,
6209,-0.29,-0.33,
6210,-0.295,-0.305,
6211,-0.275,-0.265,
6212,-0.245,-0.235,
6213,-0.225,-0.215,
6214,-0.225,-0.195,
6215,-0.22,-0.19,
6216,-0.235,-0.18,
6217,-0.225,-0.16,
6218,-0.22,-0.145,
6219,-0.22,-0.12,
6220,-0.215,-0.115,
6221,-0.23,-0.11,
6222,-0.235,-0.09,
6223,-0.23,-0.06,
6224,-0.21,-0.045,
6225,-0.18,-0.015,
6226,-0.17,-0.01,
6227,-0.15,0.01,
6228,-0.165,0.025,
6229,-0.14,0.045,
6230,-0.12,0.065,
6231,-0.105,0.075,
6232,-0.105,0.055,
6233,-0.095,0.055,
6234,-0.095,0.06,
6235,-0.095,0.075,
6236,-0.08,0.085,
6237,-0.055,0.07,
6238,-0.075,0.075,
6239,-0.08,0.065,
6240,-0.075,0.075,
6241,-0.08,0.085,
6242,-0.065,0.09,
6243,-0.045,0.09,
6244,-0.045,0.09,
6245,-0.05,0.085,
6246,-0.05,0.085,
6247,-0.035,0.095,
6248,-0.04,0.115,
6249,-0.03,0.115,
6250,-0.015,0.11,
6251,-0.02,0.095,
6252,-0.035,0.1,
6253,-0.025,0.12,
6254,-0.02,0.13,
6255,0.0,0.125,
6256,0.005,0.125,
6257,0.005,0.12,
6258,-0.015,0.135,
6259,-0.005,0.15,
6260,0.005,0.16,
6261,0.01,0.16,
6262,0.02,0.165,
6263,0.01,0.15,
6264,0.005,0.15,
6265,0.01,0.17,
6266,0.025,0.18,
6267,0.03,0.18,
6268,0.03,0.175,
6269,0.03,0.18,
6270,0.025,0.185,
6271,0.03,0.195,
6272,0.05,0.2,
6273,0.055,0.205,
6274,0.05,0.2,
6275,0.04,0.21,
6276,0.04,0.22,
6277,0.05,0.215,
6278,0.055,0.225,
6279,0.065,0.22,
6280,0.065,0.225,
6281,0.055,0.22,
6282,0.055,0.23,
6283,0.065,0.23,
6284,0.07,0.255,
6285,0.085,0.255,
6286,0.08,0.255,
6287,0.07,0.24,
6288,0.07,0.25,
6289,0.075,0.26,
6290,0.085,0.27,
6291,0.08,0.26,
6292,0.095,0.255,
6293,0.08,0.24,
6294,0.07,0.245,
6295,0.07,0.255,
6296,0.07,0.25,
6297,0.085,0.255,
6298,0.08,0.255,
6299,0.065,0.24,
6300,0.045,0.235,
6301,0.05,0.24,
6302,0.055,0.24,
6303,0.065,0.23,
6304,0.05,0.235,
6305,0.04,0.21,
6306,0.0,0.215,
6307,0.02,0.215,
6308,0.01,0.22,
6309,0.025,0.22,
6310,0.005,0.2,
6311,-0.005,0.195,
6312,-0.025,0.175,
6313,-0.025,0.185,
6314,-0.035,0.19,
6315,-0.035,0.175,
6316,-0.035,0.165,
6317,-0.06,0.155,
6318,-0.085,0.145,
6319,-0.085,0.14,
6320,-0.085,0.145,
6321,-0.085,0.14,
6322,-0.08,0.13,
6323,-0.095,0.11,
6324,-0.11,0.1,
6325,-0.12,0.11,
6326,-0.125,0.1,
6327,-0.115,0.095,
6328,-0.135,0.075,
6329,-0.135,0.075,
6330,-0.15,0.06,
6331,-0.155,0.06,
6332,-0.15,0.07,
6333,-0.155,0.065,
6334,-0.135,0.04,
6335,-0.155,0.04,
6336,-0.17,0.025,
6337,-0.185,0.025,
6338,-0.165,0.04,
6339,-0.175,0.03,
6340,-0.175,0.025,
6341,-0.16,0.0,
6342,-0.185,0.01,
6343,-0.185,0.015,
6344,-0.18,0.015,
6345,-0.16,0.02,
6346,-0.18,0.02,
6347,-0.19,-0.005,
6348,-0.19,0.0,
6349,-0.205,-0.01,
6350,-0.18,0.015,
6351,-0.175,0.01,
6352,-0.185,0.0,
6353,-0.185,-0.015,
6354,-0.205,-0.01,
6355,-0.19,0.005,
6356,-0.19,0.01,
6357,-0.18,0.0,
6358,-0.19,0.005,
6359,-0.185,-0.02,
6360,-0.205,-0.025,
6361,-0.19,-0.01,
6362,-0.185,-0.005,
6363,-0.18,-0.005,
6364,-0.185,-0.02,
6365,-0.18,-0.025,
6366,-0.215,-0.02,
6367,-0.19,-0.015,
6368,-0.19,-0.01,
6369,-0.18,-0.015,
6370,-0.185,-0.01,
6371,-0.2,-0.025,
6372,-0.21,-0.02,
6373,-0.2,-0.015,
6374,-0.2,-0.015,
6375,-0.185,-0.01,
6376,-0.19,-0.01,
6377,-0.2,-0.02,
6378,-0.205,-0.02,
6379,-0.195,-0.02,
6380,-0.195,-0.01,
6381,-0.185,-0.01,
6382,-0.185,-0.005,
6383,-0.195,-0.035,
6384,-0.205,-0.03,
6385,-0.205,-0.02,
6386,-0.2,-0.005,
6387,-0.2,-0.01,
6388,-0.19,-0.02,
6389,-0.2,-0.025,
6390,-0.21,-0.02,
6391,-0.205,-0.02,
6392,-0.205,-0.015,
6393,-0.205,-0.015,
6394,-0.205,-0.03,
6395,-0.22,-0.025,
6396,-0.22,-0.04,
6397,-0.21,-0.035,
6398,-0.2,-0.01,
6399,-0.205,-0.02,
6400,-0.215,-0.03,
6401,-0.215,-0.04,
6402,-0.23,-0.045,
6403,-0.225,-0.04,
6404,-0.22,-0.03,
6405,-0.215,-0.04,
6406,-0.215,-0.03,
6407,-0.24,-0.055,
6408,-0.255,-0.04,
6409,-0.25,-0.045,
6410,-0.235,-0.03,
6411,-0.23,-0.035,
6412,-0.24,-0.04,
6413,-0.24,-0.04,
6414,-0.255,-0.055,
6415,-0.25,-0.045,
6416,-0.24,-0.03,
6417,-0.23,-0.035,
6418,-0.24,-0.05,
6419,-0.25,-0.06,
6420,-0.26,-0.06,
6421,-0.255,-0.06,
6422,-0.245,-0.045,
6423,-0.24,-0.045,
6424,-0.235,-0.055,
6425,-0.25,-0.065,
6426,-0.255,-0.06,
6427,-0.255,-0.06,
6428,-0.255,-0.05,
6429,-0.22,-0.035,
6430,-0.245,-0.04,
6431,-0.255,-0.065,
6432,-0.25,-0.06,
6433,-0.255,-0.06,
6434,-0.235,-0.045,
6435,-0.235,-0.045,
6436,-0.245,-0.045,
6437,-0.25,-0.065,
6438,-0.25,-0.05,
6439,-0.245,-0.05,
6440,-0.235,-0.04,
6441,-0.215,-0.03,
6442,-0.215,-0.04,
6443,-0.215,-0.04,
6444,-0.21,-0.05,
6445,-0.165,-0.02,
6446,-0.095,-0.005,
6447,0.095,0.045,
6448,0.53,0.25,
6449,0.87,0.61,
6450,0.67,0.765,
6451,0.27,0.565,/
6452,0.035,0.3,
6453,0.035,0.18,
6454,0.06,0.165,
6455,0.05,0.145,
6456,0.015,0.12,
6457,-0.005,0.105,
6458,-0.005,0.115,
6459,-0.005,0.1,
6460,-0.005,0.095,
6461,-0.005,0.07,
6462,-0.025,0.055,
6463,-0.03,0.035,
6464,-0.03,0.015,
6465,-0.025,-0.005,
6466,-0.035,-0.025,
6467,-0.045,-0.055,
6468,-0.07,-0.06,
6469,-0.07,-0.05,
6470,-0.1,-0.06,
6471,-0.115,-0.085,
6472,-0.16,-0.11,
6473,-0.2,-0.145,
6474,-0.24,-0.17,
6475,-0.27,-0.18,
6476,-0.3,-0.185,
6477,-0.365,-0.205,
6478,-0.45,-0.21,
6479,-0.525,-0.235,
6480,-0.585,-0.245,
6481,-0.64,-0.25,
6482,-0.69,-0.26,
6483,-0.745,-0.28,
6484,-0.795,-0.31,
6485,-0.845,-0.36,
6486,-0.885,-0.405,
6487,-0.9,-0.445,
6488,-0.895,-0.485,
6489,-0.9,-0.515,
6490,-0.895,-0.535,
6491,-0.92,-0.575,
6492,-0.92,-0.625,
6493,-0.94,-0.65,
6494,-0.92,-0.66,
6495,-0.9,-0.71,
6496,-0.9,-0.75,
6497,-0.91,-0.795,
6498,-0.885,-0.815,
6499,-0.84,-0.85,
6500,-0.8,-0.855,
6501,-0.745,-0.88,
6502,-0.7,-0.865,
6503,-0.67,-0.845,
6504,-0.645,-0.805,
6505,-0.6,-0.76,
6506,-0.53,-0.72,
6507,-0.48,-0.665,
6508,-0.445,-0.63,
6509,-0.425,-0.595,
6510,-0.415,-0.525,
6511,-0.38,-0.47,
6512,-0.35,-0.435,
6513,-0.335,-0.38,
6514,-0.325,-0.365,
6515,-0.33,-0.335,
6516,-0.33,-0.31,
6517,-0.33,-0.28,
6518,-0.295,-0.25,
6519,-0.28,-0.23,
6520,-0.27,-0.21,
6521,-0.275,-0.22,
6522,-0.28,-0.205,
6523,-0.28,-0.18,
6524,-0.27,-0.14,
6525,-0.265,-0.135,
6526,-0.265,-0.12,
6527,-0.275,-0.12,
6528,-0.29,-0.1,
6529,-0.265,-0.075,
6530,-0.25,-0.035,
6531,-0.22,-0.025,
6532,-0.215,-0.015,
6533,-0.21,-0.005,
6534,-0.22,0.01,
6535,-0.21,0.03,
6536,-0.195,0.055,
6537,-0.17,0.05,
6538,-0.16,0.045,
6539,-0.155,0.03,
6540,-0.155,0.045,
6541,-0.155,0.06,
6542,-0.145,0.07,
6543,-0.14,0.06,
6544,-0.13,0.05,
6545,-0.14,0.05,
6546,-0.14,0.05,
6547,-0.145,0.07,
6548,-0.14,0.075,
6549,-0.12,0.08,
6550,-0.115,0.075,
6551,-0.125,0.075,
6552,-0.13,0.07,
6553,-0.12,0.085,
6554,-0.11,0.11,
6555,-0.105,0.1,
6556,-0.1,0.095,
6557,-0.105,0.095,
6558,-0.105,0.095,
6559,-0.11,0.11,
6560,-0.09,0.125,
6561,-0.08,0.115,
6562,-0.085,0.11,
6563,-0.095,0.12,
6564,-0.1,0.115,
6565,-0.085,0.135,
6566,-0.075,0.14,
6567,-0.075,0.135,
6568,-0.06,0.14,
6569,-0.08,0.135,
6570,-0.075,0.14,
6571,-0.08,0.16,
6572,-0.07,0.165,
6573,-0.05,0.16,
6574,-0.055,0.17,
6575,-0.055,0.155,
6576,-0.07,0.175,
6577,-0.055,0.18,
6578,-0.045,0.205,
6579,-0.045,0.205,
6580,-0.04,0.19,
6581,-0.045,0.195,
6582,-0.055,0.19,
6583,-0.05,0.205,
6584,-0.04,0.215,
6585,-0.03,0.215,
6586,-0.025,0.225,
6587,-0.04,0.225,
6588,-0.045,0.22,
6589,-0.045,0.235,
6590,-0.025,0.255,
6591,-0.01,0.235,
6592,-0.005,0.255,
6593,-0.01,0.25,
6594,-0.03,0.25,
6595,-0.015,0.255,
6596,-0.015,0.28,
6597,-0.01,0.275,
6598,-0.005,0.265,
6599,0.0,0.25,
6600,-0.01,0.255,
6601,-0.01,0.26,
6602,0.0,0.275,
6603,0.015,0.26,
6604,0.0,0.26,
6605,-0.005,0.245,
6606,-0.02,0.245,
6607,-0.01,0.25,
6608,-0.015,0.26,
6609,-0.01,0.25,
6610,-0.005,0.25,
6611,-0.02,0.23,
6612,-0.035,0.23,
6613,-0.04,0.225,
6614,-0.035,0.245,
6615,-0.035,0.22,
6616,-0.045,0.205,
6617,-0.055,0.195,
6618,-0.08,0.19,
6619,-0.075,0.19,
6620,-0.085,0.19,
6621,-0.09,0.175,
6622,-0.105,0.15,
6623,-0.115,0.145,
6624,-0.125,0.14,
6625,-0.13,0.135,
6626,-0.135,0.135,
6627,-0.125,0.115,
6628,-0.135,0.11,
6629,-0.145,0.095,
6630,-0.15,0.085,
6631,-0.16,0.08,
6632,-0.155,0.08,
6633,-0.155,0.085,
6634,-0.155,0.075,
6635,-0.165,0.06,
6636,-0.18,0.05,
6637,-0.18,0.045,
6638,-0.18,0.06,
6639,-0.175,0.04,
6640,-0.175,0.04,
6641,-0.19,0.025,
6642,-0.2,0.015,
6643,-0.195,0.025,
6644,-0.185,0.03,
6645,-0.185,0.025,
6646,-0.19,0.01,
6647,-0.19,0.01,
6648,-0.215,0.0,
6649,-0.2,0.02,
6650,-0.2,0.03,
6651,-0.19,0.03,
6652,-0.19,0.035,
6653,-0.21,0.0,
6654,-0.215,-0.005,
6655,-0.21,0.0,
6656,-0.205,0.01,
6657,-0.195,0.0,
6658,-0.205,0.0,
6659,-0.22,-0.01,
6660,-0.225,0.0,
6661,-0.22,0.02,
6662,-0.225,0.025,
6663,-0.215,0.025,
6664,-0.22,0.01,
6665,-0.23,-0.015,
6666,-0.24,-0.02,
6667,-0.235,-0.015,
