,MLII,V1,symbol
0,-0.445,0.26,
1,-0.445,0.26,
2,-0.445,0.26,
3,-0.445,0.26,
4,-0.445,0.26,
5,-0.445,0.26,
6,-0.445,0.26,
7,-0.445,0.26,
8,-0.45,0.26,
9,-0.43,0.25,
10,-0.435,0.25,
11,-0.405,0.26,
12,-0.385,0.27,
13,-0.365,0.25,
14,-0.355,0.255,
15,-0.34,0.235,
16,-0.325,0.235,
17,-0.305,0.245,
18,-0.285,0.265,
19,-0.26,0.25,
20,-0.245,0.235,
21,-0.225,0.225,
22,-0.24,0.215,
23,-0.225,0.225,
24,-0.21,0.23,
25,-0.195,0.23,
26,-0.19,0.22,
27,-0.195,0.205,
28,-0.205,0.205,
29,-0.205,0.215,
30,-0.2,0.215,
31,-0.205,0.215,
32,-0.21,0.2,
33,-0.215,0.19,
34,-0.235,0.19,
35,-0.235,0.195,
36,-0.22,0.2,
37,-0.235,0.195,
38,-0.24,0.195,
39,-0.255,0.185,
40,-0.28,0.18,
41,-0.275,0.18,
42,-0.265,0.195,
43,-0.27,0.2,
44,-0.27,0.19,
45,-0.285,0.175,
46,-0.305,0.17,
47,-0.305,0.165,
48,-0.295,0.185,
49,-0.29,0.17,
50,-0.3,0.19,
51,-0.305,0.18,
52,-0.315,0.175,
53,-0.31,0.185,
54,-0.315,0.2,
55,-0.295,0.19,
56,-0.3,0.17,
57,-0.31,0.175,
58,-0.315,0.17,
59,-0.315,0.19,
60,-0.32,0.195,
61,-0.315,0.165,
62,-0.305,0.175,
63,-0.31,0.15,
64,-0.33,0.155,
65,-0.325,0.17,
66,-0.33,0.18,
67,-0.32,0.175,+
68,-0.32,0.16,
69,-0.31,0.145,
70,-0.325,0.14,
71,-0.33,0.16,
72,-0.33,0.175,
73,-0.325,0.16,
74,-0.325,0.155,
75,-0.335,0.145,
76,-0.335,0.15,
77,-0.33,0.155,
78,-0.32,0.17,
79,-0.32,0.17,
80,-0.335,0.155,
81,-0.335,0.14,
82,-0.345,0.14,
83,-0.34,0.155,
84,-0.325,0.16,
85,-0.32,0.155,
86,-0.325,0.14,
87,-0.35,0.14,
88,-0.36,0.135,
89,-0.35,0.135,
90,-0.325,0.155,
91,-0.31,0.135,
92,-0.325,0.145,
93,-0.335,0.135,
94,-0.34,0.14,
95,-0.34,0.15,
96,-0.33,0.15,
97,-0.325,0.15,
98,-0.335,0.14,
99,-0.34,0.13,
100,-0.345,0.13,
101,-0.33,0.15,
102,-0.335,0.155,
103,-0.325,0.15,
104,-0.325,0.145,
105,-0.335,0.13,
106,-0.34,0.135,
107,-0.325,0.14,
108,-0.325,0.145,
109,-0.32,0.14,
110,-0.325,0.14,
111,-0.33,0.14,
112,-0.345,0.135,
113,-0.325,0.15,
114,-0.325,0.17,
115,-0.325,0.155,
116,-0.32,0.15,
117,-0.325,0.135,
118,-0.33,0.14,
119,-0.335,0.14,
120,-0.305,0.175,
121,-0.31,0.195,
122,-0.295,0.21,
123,-0.285,0.21,
124,-0.29,0.215,
125,-0.245,0.215,
126,-0.23,0.225,
127,-0.21,0.225,
128,-0.23,0.22,
129,-0.245,0.22,
130,-0.245,0.205,
131,-0.225,0.195,
132,-0.19,0.185,
133,-0.155,0.17,
134,-0.145,0.16,
135,-0.15,0.16,
136,-0.155,0.17,
137,-0.15,0.165,
138,-0.14,0.18,
139,-0.13,0.165,
140,-0.12,0.145,
141,-0.125,0.135,
142,-0.14,0.135,
143,-0.145,0.16,
144,-0.15,0.165,
145,-0.155,0.145,
146,-0.15,0.14,
147,-0.175,0.125,
148,-0.2,0.125,
149,-0.24,0.12,
150,-0.28,0.12,
151,-0.325,0.125,
152,-0.36,0.11,
153,-0.38,0.1,
154,-0.39,0.095,
155,-0.38,0.11,
156,-0.38,0.125,
157,-0.37,0.115,
158,-0.38,0.1,
159,-0.395,0.095,
160,-0.415,0.09,
161,-0.395,0.105,
162,-0.395,0.105,
163,-0.38,0.105,
164,-0.37,0.105,
165,-0.375,0.11,
166,-0.39,0.11,
167,-0.385,0.105,
168,-0.38,0.125,
169,-0.365,0.115,
170,-0.375,0.11,
171,-0.37,0.095,
172,-0.4,0.095,
173,-0.385,0.105,
174,-0.37,0.11,
175,-0.375,0.11,
176,-0.37,0.085,
177,-0.37,0.085,
178,-0.36,0.06,
179,-0.355,0.05,
180,-0.355,0.06,
181,-0.365,0.07,
182,-0.37,0.055,
183,-0.37,0.03,
184,-0.355,0.0,
185,-0.3,-0.025,
186,-0.21,-0.07,
187,-0.085,-0.13,
188,0.05,-0.215,
189,0.235,-0.31,
190,0.4,-0.375,
191,0.59,-0.425,
192,0.775,-0.415,
193,0.915,-0.395,
194,1.025,-0.345,
195,1.1,-0.305,
196,1.16,-0.275,
197,1.18,-0.245,N
198,1.09,-0.2,
199,0.96,-0.165,
200,0.825,-0.125,
201,0.71,-0.095,
202,0.575,-0.055,
203,0.41,-0.005,
204,0.255,0.04,
205,0.145,0.04,
206,0.095,0.065,
207,0.005,0.085,
208,-0.105,0.095,
209,-0.195,0.125,
210,-0.245,0.145,
211,-0.285,0.14,
212,-0.325,0.155,
213,-0.375,0.165,
214,-0.43,0.165,
215,-0.47,0.195,
216,-0.495,0.195,
217,-0.505,0.18,
218,-0.52,0.17,
219,-0.55,0.16,
220,-0.56,0.155,
221,-0.55,0.17,
222,-0.54,0.195,
223,-0.52,0.195,
224,-0.54,0.19,
225,-0.54,0.18,
226,-0.55,0.17,
227,-0.545,0.175,
228,-0.53,0.195,
229,-0.515,0.2,
230,-0.53,0.19,
231,-0.53,0.185,
232,-0.535,0.195,
233,-0.545,0.2,
234,-0.525,0.205,
235,-0.515,0.21,
236,-0.51,0.205,
237,-0.525,0.2,
238,-0.535,0.205,
239,-0.52,0.205,
240,-0.51,0.22,
241,-0.505,0.225,
242,-0.51,0.215,
243,-0.525,0.19,
244,-0.535,0.205,
245,-0.535,0.205,
246,-0.515,0.215,
247,-0.51,0.215,
248,-0.515,0.225,
249,-0.52,0.22,
250,-0.53,0.205,
251,-0.545,0.22,
252,-0.535,0.23,
253,-0.525,0.225,
254,-0.515,0.22,
255,-0.53,0.225,
256,-0.535,0.225,
257,-0.53,0.25,
258,-0.515,0.245,
259,-0.52,0.25,
260,-0.53,0.235,
261,-0.525,0.22,
262,-0.515,0.23,
263,-0.52,0.24,
264,-0.495,0.245,
265,-0.48,0.255,
266,-0.49,0.24,
267,-0.485,0.24,
268,-0.495,0.235,
269,-0.47,0.25,
270,-0.47,0.27,
271,-0.45,0.265,
272,-0.445,0.265,
273,-0.43,0.25,
274,-0.435,0.25,
275,-0.42,0.26,
276,-0.4,0.275,
277,-0.375,0.25,
278,-0.37,0.245,
279,-0.36,0.26,
280,-0.35,0.26,
281,-0.33,0.27,
282,-0.3,0.28,
283,-0.26,0.265,
284,-0.25,0.255,
285,-0.24,0.24,
286,-0.235,0.24,
287,-0.23,0.235,
288,-0.21,0.245,
289,-0.205,0.24,
290,-0.18,0.23,
291,-0.175,0.215,
292,-0.185,0.21,
293,-0.17,0.215,
294,-0.165,0.215,
295,-0.16,0.215,
296,-0.155,0.215,
297,-0.17,0.185,
298,-0.17,0.195,
299,-0.175,0.205,
300,-0.175,0.205,
301,-0.185,0.195,
302,-0.185,0.185,
303,-0.195,0.175,
304,-0.2,0.175,
305,-0.215,0.18,
306,-0.22,0.205,
307,-0.215,0.185,
308,-0.23,0.195,
309,-0.265,0.175,
310,-0.28,0.165,
311,-0.265,0.17,
312,-0.26,0.19,
313,-0.265,0.185,
314,-0.255,0.18,
315,-0.28,0.175,
316,-0.31,0.165,
317,-0.305,0.19,
318,-0.29,0.19,
319,-0.285,0.185,
320,-0.3,0.18,
321,-0.285,0.18,
322,-0.29,0.17,
323,-0.29,0.185,
324,-0.29,0.195,
325,-0.295,0.175,
326,-0.295,0.165,
327,-0.31,0.16,
328,-0.31,0.165,
329,-0.31,0.17,
330,-0.315,0.175,
331,-0.315,0.185,
332,-0.315,0.18,
333,-0.325,0.17,
334,-0.33,0.165,
335,-0.325,0.16,
336,-0.31,0.17,
337,-0.315,0.165,
338,-0.32,0.155,
339,-0.325,0.14,
340,-0.36,0.155,
341,-0.335,0.165,
342,-0.32,0.165,
343,-0.31,0.16,
344,-0.32,0.15,
345,-0.32,0.145,
346,-0.33,0.145,
347,-0.33,0.145,
348,-0.31,0.165,
349,-0.29,0.155,
350,-0.3,0.15,
351,-0.325,0.13,
352,-0.33,0.125,
353,-0.345,0.13,
354,-0.325,0.14,
355,-0.32,0.145,
356,-0.32,0.13,
357,-0.31,0.145,
358,-0.315,0.145,
359,-0.32,0.155,
360,-0.32,0.155,
361,-0.315,0.145,
362,-0.31,0.13,
363,-0.33,0.125,
364,-0.34,0.125,
365,-0.335,0.14,
366,-0.325,0.15,
367,-0.32,0.145,
368,-0.32,0.135,
369,-0.325,0.125,
370,-0.345,0.13,
371,-0.335,0.13,
372,-0.32,0.14,
373,-0.32,0.145,
374,-0.32,0.145,
375,-0.33,0.135,
376,-0.36,0.125,
377,-0.345,0.14,
378,-0.32,0.145,
379,-0.32,0.145,
380,-0.33,0.135,
381,-0.34,0.125,
382,-0.355,0.145,
383,-0.345,0.145,
384,-0.33,0.19,
385,-0.305,0.195,
386,-0.3,0.195,
387,-0.295,0.215,
388,-0.305,0.215,
389,-0.285,0.23,
390,-0.245,0.235,
391,-0.225,0.235,
392,-0.225,0.23,
393,-0.245,0.215,
394,-0.26,0.195,
395,-0.25,0.2,
396,-0.22,0.2,
397,-0.205,0.195,
398,-0.175,0.195,
399,-0.18,0.175,
400,-0.175,0.165,
401,-0.17,0.165,
402,-0.145,0.155,
403,-0.12,0.15,
404,-0.145,0.145,
405,-0.15,0.13,
406,-0.165,0.14,
407,-0.17,0.15,
408,-0.165,0.175,
409,-0.17,0.155,
410,-0.185,0.15,
411,-0.205,0.13,
412,-0.24,0.115,
413,-0.27,0.125,
414,-0.325,0.14,
415,-0.36,0.135,
416,-0.39,0.13,
417,-0.395,0.135,
418,-0.405,0.11,
419,-0.405,0.13,
420,-0.415,0.13,
421,-0.41,0.125,
422,-0.4,0.115,
423,-0.41,0.115,
424,-0.42,0.115,
425,-0.42,0.13,
426,-0.4,0.145,
427,-0.395,0.13,
428,-0.395,0.12,
429,-0.4,0.11,
430,-0.39,0.11,
431,-0.39,0.13,
432,-0.385,0.13,
433,-0.38,0.145,
434,-0.39,0.125,
435,-0.4,0.12,
436,-0.395,0.11,
437,-0.385,0.13,
438,-0.375,0.13,
439,-0.37,0.12,
440,-0.365,0.105,
441,-0.385,0.095,
442,-0.39,0.095,
443,-0.385,0.11,
444,-0.39,0.12,
445,-0.39,0.1,
446,-0.385,0.08,
447,-0.37,0.04,
448,-0.33,-0.015,
449,-0.225,-0.05,
450,-0.09,-0.12,
451,0.09,-0.225,
452,0.27,-0.315,
453,0.46,-0.38,
454,0.64,-0.38,
455,0.83,-0.34,
456,0.98,-0.27,
457,1.085,-0.22,
458,1.175,-0.215,
459,1.175,-0.2,N
460,1.065,-0.175,
461,0.91,-0.125,
462,0.78,-0.065,
463,0.66,-0.055,
464,0.53,-0.015,
465,0.385,0.025,
466,0.245,0.05,
467,0.175,0.08,
468,0.155,0.11,
469,0.095,0.125,
470,0.0,0.14,
471,-0.115,0.14,
472,-0.19,0.155,
473,-0.25,0.175,
474,-0.295,0.195,
475,-0.35,0.215,
476,-0.415,0.22,
477,-0.455,0.19,
478,-0.49,0.195,
479,-0.495,0.19,
480,-0.495,0.205,
481,-0.51,0.205,
482,-0.52,0.2,
483,-0.54,0.205,
484,-0.56,0.205,
485,-0.55,0.205,
486,-0.54,0.21,
487,-0.52,0.22,
488,-0.515,0.215,
489,-0.52,0.195,
490,-0.53,0.2,
491,-0.525,0.205,
492,-0.495,0.22,
493,-0.475,0.215,
494,-0.485,0.215,
495,-0.495,0.195,
496,-0.51,0.195,
497,-0.515,0.2,
498,-0.505,0.21,
499,-0.495,0.205,
500,-0.5,0.2,
501,-0.49,0.22,
502,-0.495,0.22,
503,-0.49,0.235,
504,-0.49,0.24,
505,-0.485,0.235,
506,-0.5,0.22,
507,-0.505,0.225,
508,-0.515,0.225,
509,-0.515,0.235,
510,-0.51,0.235,
511,-0.505,0.23,
512,-0.505,0.225,
513,-0.5,0.21,
514,-0.505,0.21,
515,-0.51,0.22,
516,-0.5,0.23,
517,-0.5,0.23,
518,-0.5,0.22,
519,-0.505,0.2,
520,-0.525,0.21,
521,-0.515,0.215,
522,-0.515,0.22,
523,-0.515,0.235,
524,-0.495,0.235,
525,-0.5,0.225,
526,-0.51,0.215,
527,-0.495,0.225,
528,-0.49,0.25,
529,-0.47,0.235,
530,-0.475,0.245,
531,-0.48,0.225,
532,-0.475,0.235,
533,-0.45,0.24,
534,-0.44,0.235,
535,-0.415,0.25,
536,-0.41,0.235,
537,-0.42,0.24,
538,-0.4,0.235,
539,-0.385,0.245,
540,-0.345,0.25,
541,-0.325,0.25,
542,-0.32,0.235,
543,-0.335,0.235,
544,-0.325,0.225,
545,-0.305,0.23,
546,-0.285,0.225,
547,-0.255,0.225,
548,-0.24,0.225,
549,-0.235,0.21,
550,-0.235,0.21,
551,-0.23,0.2,
552,-0.205,0.215,
553,-0.19,0.2,
554,-0.2,0.205,
555,-0.2,0.205,
556,-0.22,0.19,
557,-0.205,0.19,
558,-0.22,0.195,
559,-0.205,0.205,
560,-0.215,0.18,
561,-0.245,0.175,
562,-0.26,0.185,
563,-0.25,0.19,
564,-0.255,0.19,
565,-0.25,0.18,
566,-0.265,0.165,
567,-0.28,0.155,
568,-0.3,0.165,
569,-0.295,0.18,
570,-0.3,0.195,
571,-0.3,0.18,
572,-0.305,0.18,
573,-0.31,0.175,
574,-0.33,0.18,
575,-0.33,0.185,
576,-0.32,0.19,
577,-0.315,0.19,
578,-0.32,0.19,
579,-0.33,0.185,
580,-0.345,0.18,
581,-0.345,0.195,
582,-0.34,0.2,
583,-0.335,0.195,
584,-0.335,0.19,
585,-0.34,0.185,
586,-0.355,0.17,
587,-0.34,0.175,
588,-0.345,0.175,
589,-0.34,0.17,
590,-0.35,0.17,
591,-0.35,0.155,
592,-0.365,0.17,
593,-0.365,0.185,
594,-0.35,0.195,
595,-0.335,0.17,
596,-0.335,0.18,
597,-0.35,0.16,
598,-0.36,0.16,
599,-0.37,0.165,
600,-0.36,0.17,
601,-0.345,0.17,
602,-0.35,0.16,
603,-0.365,0.155,
604,-0.365,0.145,
605,-0.37,0.16,
606,-0.355,0.165,
607,-0.355,0.16,
608,-0.36,0.16,
609,-0.365,0.145,
610,-0.365,0.15,
611,-0.355,0.16,
612,-0.335,0.16,
613,-0.34,0.15,
614,-0.355,0.145,
615,-0.375,0.145,
616,-0.385,0.155,
617,-0.375,0.155,
618,-0.36,0.17,
619,-0.35,0.16,
620,-0.355,0.16,
621,-0.365,0.145,
622,-0.375,0.145,
623,-0.37,0.155,
624,-0.36,0.165,
625,-0.355,0.16,
626,-0.355,0.16,
627,-0.365,0.14,
628,-0.365,0.14,
629,-0.355,0.15,
630,-0.335,0.155,
631,-0.325,0.165,
632,-0.335,0.155,
633,-0.36,0.155,
634,-0.375,0.145,
635,-0.355,0.165,
636,-0.335,0.185,
637,-0.32,0.19,
638,-0.32,0.21,
639,-0.29,0.215,
640,-0.3,0.22,
641,-0.275,0.23,
642,-0.25,0.23,
643,-0.22,0.205,
644,-0.24,0.215,
645,-0.255,0.2,
646,-0.245,0.19,
647,-0.215,0.19,
648,-0.18,0.195,
649,-0.17,0.19,
650,-0.165,0.185,
651,-0.145,0.17,
652,-0.135,0.185,
653,-0.125,0.175,
654,-0.115,0.175,
655,-0.105,0.155,
656,-0.115,0.16,
657,-0.13,0.155,
658,-0.17,0.15,
659,-0.17,0.15,
660,-0.18,0.165,
661,-0.18,0.165,
662,-0.21,0.14,
663,-0.255,0.125,
664,-0.315,0.13,
665,-0.35,0.14,
666,-0.37,0.145,
667,-0.375,0.13,
668,-0.37,0.12,
669,-0.39,0.105,
670,-0.405,0.105,
671,-0.4,0.115,
672,-0.39,0.13,
673,-0.375,0.125,
674,-0.38,0.12,
675,-0.385,0.11,
676,-0.405,0.11,
677,-0.385,0.12,
678,-0.375,0.125,
679,-0.375,0.125,
680,-0.38,0.125,
681,-0.375,0.11,
682,-0.38,0.11,
683,-0.37,0.13,
684,-0.355,0.14,
685,-0.35,0.14,
686,-0.355,0.135,
687,-0.365,0.115,
688,-0.375,0.1,
689,-0.36,0.11,
690,-0.35,0.1,
691,-0.34,0.1,
692,-0.34,0.075,
693,-0.355,0.075,
694,-0.38,0.085,
695,-0.38,0.09,
696,-0.36,0.09,
697,-0.32,0.06,
698,-0.23,0.02,
699,-0.1,-0.04,
700,0.055,-0.11,
701,0.24,-0.18,
702,0.415,-0.225,
703,0.61,-0.285,
704,0.775,-0.32,
705,0.925,-0.32,
706,1.03,-0.25,
707,1.105,-0.175,
708,1.155,-0.14,N
709,1.14,-0.155,
710,1.035,-0.14,
711,0.885,-0.115,
712,0.755,-0.08,
713,0.65,-0.04,
714,0.54,0.005,
715,0.37,0.035,
716,0.19,0.07,
717,0.08,0.08,
718,-0.015,0.1,
719,-0.08,0.12,
720,-0.175,0.145,
721,-0.245,0.135,
722,-0.305,0.15,
723,-0.365,0.165,
724,-0.41,0.175,
725,-0.45,0.205,
726,-0.47,0.22,
727,-0.49,0.22,
728,-0.495,0.21,
729,-0.535,0.185,
730,-0.56,0.185,
731,-0.57,0.19,
732,-0.565,0.205,
733,-0.555,0.205,
734,-0.56,0.195,
735,-0.565,0.17,
736,-0.585,0.175,
737,-0.57,0.2,
738,-0.555,0.21,
739,-0.55,0.205,
740,-0.545,0.195,
741,-0.555,0.19,
742,-0.57,0.185,
743,-0.56,0.21,
744,-0.55,0.215,
745,-0.545,0.2,
746,-0.525,0.19,
747,-0.53,0.195,
748,-0.545,0.205,
749,-0.535,0.21,
750,-0.53,0.22,
751,-0.53,0.205,
752,-0.52,0.205,
753,-0.525,0.19,
754,-0.535,0.185,
755,-0.535,0.21,
756,-0.525,0.225,
757,-0.535,0.215,
758,-0.525,0.205,
759,-0.53,0.195,
760,-0.55,0.19,
761,-0.535,0.2,
762,-0.53,0.21,
763,-0.52,0.215,
764,-0.535,0.21,
765,-0.545,0.205,
766,-0.55,0.205,
767,-0.54,0.205,
768,-0.525,0.225,
769,-0.525,0.21,
770,-0.535,0.22,
771,-0.54,0.195,
772,-0.53,0.21,
773,-0.52,0.23,
774,-0.51,0.24,
775,-0.5,0.235,
776,-0.505,0.215,
777,-0.515,0.21,
778,-0.52,0.2,
779,-0.51,0.22,
780,-0.505,0.24,
781,-0.495,0.25,
782,-0.48,0.235,
783,-0.475,0.22,
784,-0.475,0.21,
785,-0.455,0.225,
786,-0.425,0.225,
787,-0.4,0.225,
788,-0.41,0.225,
789,-0.405,0.215,
790,-0.4,0.21,
791,-0.385,0.22,
792,-0.37,0.23,
793,-0.345,0.225,
794,-0.315,0.215,
795,-0.31,0.21,
796,-0.315,0.22,
797,-0.29,0.225,
798,-0.26,0.225,
799,-0.25,0.22,
800,-0.235,0.205,
801,-0.23,0.21,
802,-0.24,0.2,
803,-0.225,0.2,
804,-0.22,0.215,
805,-0.205,0.2,
806,-0.2,0.19,
807,-0.18,0.185,
808,-0.185,0.185,
809,-0.18,0.17,
810,-0.185,0.19,
811,-0.17,0.18,
812,-0.19,0.19,
813,-0.21,0.185,
814,-0.225,0.175,
815,-0.23,0.175,
816,-0.215,0.18,
817,-0.215,0.18,
818,-0.23,0.18,
819,-0.25,0.18,
820,-0.26,0.18,
821,-0.27,0.185,
822,-0.255,0.195,
823,-0.255,0.195,
824,-0.265,0.185,
825,-0.275,0.165,
826,-0.275,0.165,
827,-0.28,0.17,
828,-0.285,0.18,
829,-0.27,0.19,
830,-0.27,0.18,
831,-0.295,0.17,
832,-0.3,0.165,
833,-0.31,0.16,
834,-0.31,0.175,
835,-0.295,0.165,
836,-0.295,0.165,
837,-0.295,0.145,
838,-0.315,0.15,
839,-0.315,0.16,
840,-0.325,0.17,
841,-0.315,0.17,
842,-0.315,0.175,
843,-0.315,0.15,
844,-0.325,0.145,
845,-0.335,0.155,
846,-0.33,0.165,
847,-0.33,0.145,
848,-0.32,0.14,
849,-0.32,0.135,
850,-0.325,0.145,
851,-0.325,0.14,
852,-0.31,0.165,
853,-0.31,0.155,
854,-0.315,0.155,
855,-0.305,0.135,
856,-0.31,0.145,
857,-0.32,0.13,
858,-0.32,0.145,
859,-0.32,0.145,
860,-0.32,0.145,
861,-0.32,0.135,
862,-0.33,0.135,
863,-0.32,0.135,
864,-0.315,0.135,
865,-0.305,0.125,
866,-0.315,0.12,
867,-0.315,0.12,
868,-0.34,0.12,
869,-0.335,0.125,
870,-0.325,0.135,
871,-0.315,0.14,
872,-0.31,0.12,
873,-0.33,0.125,
874,-0.34,0.11,
875,-0.32,0.14,
876,-0.305,0.155,
877,-0.295,0.145,
878,-0.3,0.135,
879,-0.315,0.14,
880,-0.33,0.125,
881,-0.33,0.125,
882,-0.31,0.135,
883,-0.295,0.145,
884,-0.3,0.14,
885,-0.32,0.125,
886,-0.33,0.12,
887,-0.325,0.13,
888,-0.31,0.135,
889,-0.295,0.14,
890,-0.31,0.14,
891,-0.32,0.135,
892,-0.315,0.15,
893,-0.295,0.165,
894,-0.28,0.195,
895,-0.265,0.205,
896,-0.245,0.205,
897,-0.245,0.2,
898,-0.245,0.185,
899,-0.24,0.195,
900,-0.22,0.215,
901,-0.215,0.21,
902,-0.23,0.21,
903,-0.21,0.18,
904,-0.195,0.165,
905,-0.18,0.16,
906,-0.16,0.165,
907,-0.135,0.165,
908,-0.125,0.17,
909,-0.13,0.15,
910,-0.13,0.135,
911,-0.12,0.135,
912,-0.095,0.135,
913,-0.105,0.135,
914,-0.105,0.13,
915,-0.13,0.125,
916,-0.15,0.12,
917,-0.14,0.115,
918,-0.145,0.125,
919,-0.17,0.115,
920,-0.23,0.11,
921,-0.28,0.095,
922,-0.325,0.08,
923,-0.34,0.095,
924,-0.34,0.1,
925,-0.335,0.095,
926,-0.36,0.09,
927,-0.365,0.075,
928,-0.375,0.085,
929,-0.37,0.085,
930,-0.355,0.085,
931,-0.34,0.08,
932,-0.345,0.08,
933,-0.35,0.07,
934,-0.345,0.075,
935,-0.35,0.085,
936,-0.35,0.09,
937,-0.33,0.08,
938,-0.315,0.075,
939,-0.325,0.06,
940,-0.34,0.065,
941,-0.33,0.075,
942,-0.335,0.085,
943,-0.315,0.08,
944,-0.31,0.075,
945,-0.31,0.055,
946,-0.32,0.055,
947,-0.315,0.04,
948,-0.305,0.045,
949,-0.305,0.025,
950,-0.315,0.025,
951,-0.325,0.035,
952,-0.335,0.03,
953,-0.33,0.03,
954,-0.275,0.0,
955,-0.165,-0.05,
956,-0.01,-0.135,
957,0.185,-0.22,
958,0.355,-0.305,
959,0.56,-0.37,
960,0.77,-0.38,
961,0.945,-0.355,
962,1.05,-0.305,
963,1.14,-0.27,
964,1.18,-0.24,
965,1.14,-0.24,N
966,1.035,-0.205,
967,0.895,-0.165,
968,0.77,-0.12,
969,0.675,-0.115,
970,0.57,-0.09,
971,0.46,-0.05,
972,0.31,0.0,
973,0.17,0.01,
974,0.065,0.015,
975,-0.03,0.025,
976,-0.11,0.055,
977,-0.195,0.08,
978,-0.27,0.1,
979,-0.33,0.105,
980,-0.365,0.115,
981,-0.42,0.125,
982,-0.485,0.145,
983,-0.5,0.165,
984,-0.51,0.18,
985,-0.5,0.155,
986,-0.505,0.14,
987,-0.515,0.135,
988,-0.535,0.12,
989,-0.545,0.14,
990,-0.54,0.155,
991,-0.54,0.16,
992,-0.54,0.15,
993,-0.535,0.15,
994,-0.52,0.155,
995,-0.515,0.155,
996,-0.515,0.155,
997,-0.51,0.15,
998,-0.51,0.145,
999,-0.505,0.15,
1000,-0.5,0.155,
1001,-0.495,0.17,
1002,-0.49,0.155,
1003,-0.49,0.15,
1004,-0.495,0.145,
1005,-0.495,0.145,
1006,-0.485,0.155,
1007,-0.465,0.155,
1008,-0.47,0.15,
1009,-0.47,0.15,
1010,-0.475,0.14,
1011,-0.495,0.14,
1012,-0.49,0.14,
1013,-0.47,0.155,
1014,-0.47,0.16,
1015,-0.485,0.155,
1016,-0.48,0.14,
1017,-0.5,0.14,
1018,-0.485,0.145,
1019,-0.475,0.155,
1020,-0.485,0.15,
1021,-0.48,0.14,
1022,-0.49,0.145,
1023,-0.495,0.15,
1024,-0.505,0.155,
1025,-0.51,0.165,
1026,-0.475,0.165,
1027,-0.48,0.16,
1028,-0.485,0.145,
1029,-0.5,0.15,
1030,-0.495,0.15,
1031,-0.485,0.18,
1032,-0.475,0.165,
1033,-0.465,0.17,
1034,-0.47,0.155,
1035,-0.485,0.16,
1036,-0.465,0.16,
1037,-0.45,0.17,
1038,-0.425,0.165,
1039,-0.42,0.155,
1040,-0.4,0.15,
1041,-0.415,0.165,
1042,-0.395,0.17,
1043,-0.385,0.175,
1044,-0.38,0.175,
1045,-0.375,0.175,
1046,-0.37,0.16,
1047,-0.37,0.16,
1048,-0.345,0.155,
1049,-0.315,0.175,
1050,-0.285,0.18,
1051,-0.28,0.175,
1052,-0.255,0.16,
1053,-0.26,0.15,
1054,-0.235,0.15,
1055,-0.215,0.16,
1056,-0.195,0.155,
1057,-0.19,0.15,
1058,-0.18,0.135,
1059,-0.175,0.135,
1060,-0.165,0.145,
1061,-0.155,0.145,
1062,-0.14,0.14,
1063,-0.145,0.135,
1064,-0.15,0.115,
1065,-0.155,0.11,
1066,-0.175,0.135,
1067,-0.175,0.14,
1068,-0.16,0.12,
1069,-0.175,0.11,
1070,-0.2,0.1,
1071,-0.215,0.095,
1072,-0.22,0.1,
1073,-0.215,0.11,
1074,-0.225,0.115,
1075,-0.23,0.1,
1076,-0.23,0.1,
1077,-0.24,0.105,
1078,-0.235,0.11,
1079,-0.24,0.12,
1080,-0.245,0.1,
1081,-0.255,0.085,
1082,-0.245,0.085,
1083,-0.245,0.08,
1084,-0.255,0.105,
1085,-0.245,0.11,
1086,-0.24,0.105,
1087,-0.255,0.09,
1088,-0.265,0.08,
1089,-0.28,0.085,
1090,-0.275,0.105,
1091,-0.27,0.11,
1092,-0.26,0.11,
1093,-0.26,0.11,
1094,-0.27,0.09,
1095,-0.28,0.075,
1096,-0.285,0.11,
1097,-0.28,0.095,
1098,-0.27,0.095,
1099,-0.27,0.095,
1100,-0.275,0.09,
1101,-0.27,0.08,
1102,-0.27,0.095,
1103,-0.27,0.1,
1104,-0.265,0.085,
1105,-0.255,0.085,
1106,-0.275,0.07,
1107,-0.29,0.075,
1108,-0.28,0.075,
1109,-0.27,0.09,
1110,-0.28,0.085,
1111,-0.285,0.075,
1112,-0.28,0.065,
1113,-0.28,0.06,
1114,-0.275,0.075,
1115,-0.275,0.075,
1116,-0.26,0.075,
1117,-0.265,0.065,
1118,-0.28,0.055,
1119,-0.285,0.04,
1120,-0.28,0.055,
1121,-0.27,0.065,
1122,-0.25,0.055,
1123,-0.27,0.065,
1124,-0.29,0.06,
1125,-0.28,0.06,
1126,-0.29,0.055,
1127,-0.265,0.08,
1128,-0.26,0.075,
1129,-0.255,0.065,
1130,-0.27,0.06,
1131,-0.285,0.055,
1132,-0.285,0.06,
1133,-0.275,0.085,
1134,-0.26,0.07,
1135,-0.27,0.06,
1136,-0.265,0.06,
1137,-0.28,0.05,
1138,-0.28,0.06,
1139,-0.26,0.07,
1140,-0.265,0.065,
1141,-0.275,0.06,
1142,-0.28,0.045,
1143,-0.295,0.055,
1144,-0.275,0.075,
1145,-0.25,0.07,
1146,-0.245,0.06,
1147,-0.255,0.06,
1148,-0.27,0.06,
1149,-0.285,0.06,
1150,-0.285,0.09,
1151,-0.265,0.115,
1152,-0.24,0.12,
1153,-0.235,0.14,
1154,-0.225,0.135,
1155,-0.205,0.145,
1156,-0.17,0.15,
1157,-0.145,0.15,
1158,-0.15,0.14,
1159,-0.18,0.135,
1160,-0.175,0.12,
1161,-0.17,0.1,
1162,-0.13,0.085,
1163,-0.1,0.1,
1164,-0.085,0.09,
1165,-0.09,0.09,
1166,-0.075,0.075,
1167,-0.085,0.07,
1168,-0.09,0.085,
1169,-0.075,0.065,
1170,-0.055,0.05,
1171,-0.065,0.055,
1172,-0.075,0.06,
1173,-0.09,0.075,
1174,-0.11,0.075,
1175,-0.11,0.065,
1176,-0.12,0.04,
1177,-0.13,0.035,
1178,-0.19,0.02,
1179,-0.26,0.03,
1180,-0.3,0.03,
1181,-0.325,0.035,
1182,-0.33,0.05,
1183,-0.335,0.035,
1184,-0.34,0.025,
1185,-0.335,0.025,
1186,-0.33,0.03,
1187,-0.34,0.045,
1188,-0.34,0.03,
1189,-0.335,0.035,
1190,-0.335,0.025,
1191,-0.34,0.03,
1192,-0.325,0.035,
1193,-0.335,0.04,
1194,-0.325,0.035,
1195,-0.32,0.03,
1196,-0.325,0.045,
1197,-0.325,0.035,
1198,-0.325,0.045,
1199,-0.31,0.05,
1200,-0.295,0.05,
1201,-0.305,0.035,
1202,-0.305,0.015,
1203,-0.305,0.02,
1204,-0.28,0.02,
1205,-0.27,0.025,
1206,-0.275,0.015,
1207,-0.29,0.02,
1208,-0.315,-0.01,
1209,-0.31,-0.015,
1210,-0.29,-0.03,
1211,-0.245,-0.085,
1212,-0.16,-0.135,
1213,-0.045,-0.225,
1214,0.115,-0.32,
1215,0.3,-0.41,
1216,0.515,-0.465,
1217,0.74,-0.465,
1218,0.935,-0.41,
1219,1.075,-0.355,
1220,1.195,-0.3,
1221,1.235,-0.3,
1222,1.195,-0.3,N
1223,1.08,-0.255,
1224,0.96,-0.205,
1225,0.835,-0.185,
1226,0.74,-0.15,
1227,0.625,-0.11,
1228,0.465,-0.06,
1229,0.31,-0.01,
1230,0.215,-0.005,
1231,0.14,0.015,
1232,0.025,0.025,
1233,-0.08,0.03,
1234,-0.16,0.07,
1235,-0.23,0.08,
1236,-0.27,0.11,
1237,-0.325,0.115,
1238,-0.385,0.12,
1239,-0.445,0.11,
1240,-0.46,0.115,
1241,-0.46,0.12,
1242,-0.485,0.115,
1243,-0.485,0.11,
1244,-0.495,0.105,
1245,-0.5,0.11,
1246,-0.495,0.115,
1247,-0.51,0.12,
1248,-0.515,0.13,
1249,-0.505,0.115,
1250,-0.495,0.105,
1251,-0.495,0.115,
1252,-0.495,0.13,
1253,-0.475,0.13,
1254,-0.475,0.135,
1255,-0.48,0.135,
1256,-0.485,0.12,
1257,-0.49,0.11,
1258,-0.5,0.125,
1259,-0.485,0.13,
1260,-0.47,0.135,
1261,-0.47,0.13,
1262,-0.465,0.135,
1263,-0.47,0.13,
1264,-0.465,0.13,
1265,-0.465,0.145,
1266,-0.48,0.13,
1267,-0.475,0.135,
1268,-0.48,0.13,
1269,-0.48,0.135,
1270,-0.48,0.15,
1271,-0.465,0.155,
1272,-0.47,0.155,
1273,-0.47,0.145,
1274,-0.475,0.145,
1275,-0.485,0.145,
1276,-0.465,0.155,
1277,-0.46,0.16,
1278,-0.455,0.165,
1279,-0.45,0.16,
1280,-0.46,0.155,
1281,-0.48,0.15,
1282,-0.46,0.15,
1283,-0.45,0.165,
1284,-0.44,0.165,
1285,-0.445,0.175,
1286,-0.45,0.155,
1287,-0.465,0.165,
1288,-0.465,0.17,
1289,-0.465,0.185,
1290,-0.455,0.175,
1291,-0.44,0.165,
1292,-0.43,0.17,
1293,-0.435,0.175,
1294,-0.42,0.175,
1295,-0.41,0.19,
1296,-0.39,0.18,
1297,-0.37,0.16,
1298,-0.365,0.165,
1299,-0.36,0.165,
1300,-0.33,0.17,
1301,-0.315,0.185,
1302,-0.295,0.18,
1303,-0.275,0.18,
1304,-0.28,0.175,
1305,-0.27,0.18,
1306,-0.24,0.175,
1307,-0.22,0.185,
1308,-0.2,0.17,
1309,-0.185,0.16,
1310,-0.18,0.155,
1311,-0.175,0.145,
1312,-0.16,0.16,
1313,-0.135,0.15,
1314,-0.115,0.15,
1315,-0.125,0.145,
1316,-0.13,0.14,
1317,-0.155,0.13,
1318,-0.15,0.13,
1319,-0.14,0.14,
1320,-0.135,0.14,
1321,-0.14,0.125,
1322,-0.16,0.1,
1323,-0.175,0.1,
1324,-0.175,0.11,
1325,-0.18,0.115,
1326,-0.17,0.125,
1327,-0.185,0.105,
1328,-0.2,0.115,
1329,-0.215,0.115,
1330,-0.22,0.11,
1331,-0.225,0.12,
1332,-0.235,0.12,
1333,-0.235,0.11,
1334,-0.24,0.105,
1335,-0.25,0.105,
1336,-0.25,0.1,
1337,-0.24,0.12,
1338,-0.235,0.12,
1339,-0.25,0.115,
1340,-0.25,0.115,
1341,-0.28,0.1,
1342,-0.27,0.115,
1343,-0.27,0.12,
1344,-0.26,0.12,
1345,-0.275,0.11,
1346,-0.275,0.11,
1347,-0.3,0.11,
1348,-0.285,0.105,
1349,-0.275,0.12,
1350,-0.265,0.12,
1351,-0.27,0.12,
1352,-0.28,0.1,
1353,-0.295,0.095,
1354,-0.29,0.11,
1355,-0.285,0.115,
1356,-0.265,0.12,
1357,-0.285,0.105,
1358,-0.295,0.095,
1359,-0.295,0.095,
1360,-0.31,0.105,
1361,-0.29,0.115,
1362,-0.28,0.105,
1363,-0.285,0.095,
1364,-0.29,0.09,
1365,-0.29,0.075,
1366,-0.295,0.11,
1367,-0.29,0.105,
1368,-0.285,0.115,
1369,-0.29,0.11,
1370,-0.285,0.085,
1371,-0.31,0.095,
1372,-0.3,0.09,
1373,-0.305,0.095,
1374,-0.295,0.09,
1375,-0.29,0.095,
1376,-0.29,0.09,
1377,-0.29,0.095,
1378,-0.295,0.085,
1379,-0.3,0.095,
1380,-0.28,0.095,
1381,-0.28,0.09,
1382,-0.285,0.09,
1383,-0.3,0.085,
1384,-0.29,0.105,
1385,-0.285,0.1,
1386,-0.275,0.085,
1387,-0.27,0.09,
1388,-0.275,0.08,
1389,-0.3,0.09,
1390,-0.29,0.085,
1391,-0.275,0.11,
1392,-0.275,0.1,
1393,-0.27,0.1,
1394,-0.285,0.1,
1395,-0.295,0.09,
1396,-0.285,0.1,
1397,-0.28,0.095,
1398,-0.265,0.105,
1399,-0.27,0.1,
1400,-0.27,0.095,
1401,-0.27,0.105,
1402,-0.275,0.115,
1403,-0.255,0.125,
1404,-0.255,0.13,
1405,-0.255,0.14,
1406,-0.265,0.125,
1407,-0.27,0.16,
1408,-0.225,0.18,
1409,-0.205,0.175,
1410,-0.195,0.18,
1411,-0.185,0.175,
1412,-0.195,0.15,
1413,-0.2,0.155,
1414,-0.195,0.155,
1415,-0.175,0.155,
1416,-0.145,0.14,
1417,-0.13,0.13,
1418,-0.13,0.115,
1419,-0.125,0.115,
1420,-0.11,0.13,
1421,-0.095,0.135,
1422,-0.06,0.125,
1423,-0.07,0.095,
1424,-0.075,0.09,
1425,-0.105,0.085,
1426,-0.1,0.105,
1427,-0.085,0.12,
1428,-0.085,0.115,
1429,-0.09,0.1,
1430,-0.115,0.08,
1431,-0.13,0.09,
1432,-0.155,0.075,
1433,-0.18,0.09,
1434,-0.22,0.08,
1435,-0.275,0.075,
1436,-0.305,0.075,
1437,-0.355,0.07,
1438,-0.35,0.075,
1439,-0.335,0.08,
1440,-0.33,0.075,
1441,-0.34,0.075,
1442,-0.35,0.07,
1443,-0.37,0.07,
1444,-0.345,0.08,
1445,-0.34,0.07,
1446,-0.33,0.07,
1447,-0.33,0.07,
1448,-0.34,0.05,
1449,-0.34,0.055,
1450,-0.33,0.07,
1451,-0.325,0.085,
1452,-0.32,0.08,
1453,-0.32,0.07,
1454,-0.33,0.06,
1455,-0.34,0.06,
1456,-0.32,0.075,
1457,-0.305,0.08,
1458,-0.295,0.075,
1459,-0.29,0.065,
1460,-0.3,0.065,
1461,-0.32,0.04,
1462,-0.3,0.03,
1463,-0.31,0.05,
1464,-0.31,0.05,
1465,-0.315,0.055,
1466,-0.31,0.035,
1467,-0.3,0.045,
1468,-0.235,0.005,
1469,-0.14,-0.03,
1470,0.0,-0.115,
1471,0.18,-0.205,
1472,0.365,-0.295,
1473,0.555,-0.355,
1474,0.755,-0.36,
1475,0.94,-0.325,
1476,1.075,-0.265,
1477,1.16,-0.215,
1478,1.21,-0.225,
1479,1.165,-0.215,N
1480,1.065,-0.18,
1481,0.94,-0.135,
1482,0.835,-0.11,
1483,0.755,-0.095,
1484,0.655,-0.08,
1485,0.525,-0.045,
1486,0.36,0.025,
1487,0.22,0.055,
1488,0.135,0.07,
1489,0.07,0.055,
1490,-0.02,0.075,
1491,-0.13,0.1,
1492,-0.215,0.11,
1493,-0.275,0.145,
1494,-0.315,0.155,
1495,-0.36,0.165,
1496,-0.41,0.165,
1497,-0.445,0.16,
1498,-0.455,0.165,
1499,-0.465,0.175,
1500,-0.465,0.165,
1501,-0.47,0.155,
1502,-0.485,0.165,
1503,-0.495,0.165,
1504,-0.505,0.17,
1505,-0.5,0.17,
1506,-0.495,0.18,
1507,-0.5,0.17,
1508,-0.495,0.165,
1509,-0.5,0.175,
1510,-0.495,0.19,
1511,-0.48,0.19,
1512,-0.47,0.185,
1513,-0.475,0.165,
1514,-0.47,0.16,
1515,-0.485,0.175,
1516,-0.475,0.19,
1517,-0.465,0.195,
1518,-0.465,0.18,
1519,-0.47,0.18,
1520,-0.495,0.165,
1521,-0.495,0.175,
1522,-0.485,0.175,
1523,-0.475,0.185,
1524,-0.47,0.185,
1525,-0.48,0.175,
1526,-0.485,0.17,
1527,-0.505,0.16,
1528,-0.495,0.17,
1529,-0.475,0.17,
1530,-0.46,0.175,
1531,-0.465,0.17,
1532,-0.48,0.16,
1533,-0.485,0.17,
1534,-0.495,0.185,
1535,-0.475,0.2,
1536,-0.485,0.185,
1537,-0.485,0.18,
1538,-0.475,0.175,
1539,-0.495,0.175,
1540,-0.505,0.2,
1541,-0.49,0.21,
1542,-0.485,0.2,
1543,-0.47,0.205,
1544,-0.47,0.185,
1545,-0.47,0.19,
1546,-0.485,0.205,
1547,-0.465,0.2,
1548,-0.465,0.2,
1549,-0.465,0.2,
1550,-0.46,0.205,
1551,-0.45,0.205,
1552,-0.455,0.21,
1553,-0.43,0.21,
1554,-0.41,0.21,
1555,-0.41,0.205,
1556,-0.41,0.195,
1557,-0.405,0.205,
1558,-0.38,0.22,
1559,-0.35,0.215,
1560,-0.34,0.205,
1561,-0.33,0.19,
1562,-0.325,0.195,
1563,-0.3,0.19,
1564,-0.27,0.195,
1565,-0.245,0.215,
1566,-0.24,0.21,
1567,-0.225,0.21,
1568,-0.23,0.19,
1569,-0.23,0.19,
1570,-0.21,0.185,
1571,-0.195,0.19,
1572,-0.175,0.2,
1573,-0.175,0.18,
1574,-0.175,0.18,
1575,-0.175,0.17,
1576,-0.17,0.185,
1577,-0.155,0.195,
1578,-0.14,0.185,
1579,-0.155,0.165,
1580,-0.175,0.16,
1581,-0.19,0.155,
1582,-0.18,0.16,
1583,-0.195,0.165,
1584,-0.205,0.175,
1585,-0.2,0.175,
1586,-0.205,0.155,
1587,-0.23,0.145,
1588,-0.23,0.15,
1589,-0.225,0.165,
1590,-0.21,0.16,
1591,-0.225,0.165,
1592,-0.24,0.155,
1593,-0.245,0.165,
1594,-0.25,0.165,
1595,-0.245,0.17,
1596,-0.245,0.175,
1597,-0.245,0.175,
1598,-0.26,0.155,
1599,-0.28,0.16,
1600,-0.29,0.17,
1601,-0.28,0.18,
1602,-0.26,0.17,
1603,-0.26,0.165,
1604,-0.285,0.16,
1605,-0.295,0.16,
1606,-0.285,0.175,
1607,-0.28,0.175,
1608,-0.265,0.17,
1609,-0.27,0.165,
1610,-0.275,0.15,
1611,-0.305,0.155,
1612,-0.3,0.16,
1613,-0.295,0.15,
1614,-0.275,0.15,
1615,-0.28,0.15,
1616,-0.295,0.155,
1617,-0.3,0.145,
1618,-0.295,0.145,
1619,-0.29,0.155,
1620,-0.285,0.15,
1621,-0.29,0.145,
1622,-0.3,0.145,
1623,-0.3,0.14,
1624,-0.29,0.145,
1625,-0.285,0.15,
1626,-0.295,0.14,
1627,-0.28,0.145,
1628,-0.285,0.13,
1629,-0.295,0.135,
1630,-0.285,0.14,
1631,-0.29,0.15,
1632,-0.275,0.145,
1633,-0.285,0.14,
1634,-0.305,0.13,
1635,-0.305,0.14,
1636,-0.305,0.14,
1637,-0.285,0.135,
1638,-0.285,0.135,
1639,-0.29,0.13,
1640,-0.295,0.125,
1641,-0.305,0.125,
1642,-0.305,0.135,
1643,-0.295,0.14,
1644,-0.285,0.145,
1645,-0.28,0.14,
1646,-0.28,0.135,
1647,-0.295,0.125,
1648,-0.29,0.135,
1649,-0.285,0.14,
1650,-0.275,0.14,
1651,-0.285,0.14,
1652,-0.28,0.125,
1653,-0.295,0.125,
1654,-0.29,0.13,
1655,-0.29,0.135,
1656,-0.285,0.125,
1657,-0.28,0.12,
1658,-0.29,0.12,
1659,-0.3,0.12,
1660,-0.275,0.125,
1661,-0.275,0.145,
1662,-0.275,0.13,
1663,-0.275,0.13,
1664,-0.29,0.14,
1665,-0.285,0.15,
1666,-0.27,0.165,
1667,-0.265,0.19,
1668,-0.245,0.19,
1669,-0.23,0.205,
1670,-0.22,0.205,
1671,-0.22,0.195,
1672,-0.21,0.2,
1673,-0.18,0.2,
1674,-0.18,0.2,
1675,-0.19,0.2,
1676,-0.19,0.17,
1677,-0.19,0.155,
1678,-0.15,0.165,
1679,-0.125,0.16,
1680,-0.105,0.16,
1681,-0.095,0.14,
1682,-0.09,0.145,
1683,-0.09,0.135,
1684,-0.075,0.135,
1685,-0.06,0.135,
1686,-0.065,0.13,
1687,-0.08,0.13,
1688,-0.095,0.125,
1689,-0.11,0.115,
1690,-0.105,0.12,
1691,-0.1,0.13,
1692,-0.1,0.115,
1693,-0.125,0.11,
1694,-0.17,0.095,
1695,-0.225,0.1,
1696,-0.27,0.105,
1697,-0.295,0.105,
1698,-0.305,0.1,
1699,-0.325,0.09,
1700,-0.345,0.08,
1701,-0.34,0.085,
1702,-0.335,0.085,
1703,-0.325,0.09,
1704,-0.32,0.09,
1705,-0.33,0.08,
1706,-0.34,0.075,
1707,-0.35,0.07,
1708,-0.34,0.09,
1709,-0.32,0.105,
1710,-0.32,0.09,
1711,-0.32,0.095,
1712,-0.32,0.075,
1713,-0.325,0.08,
1714,-0.325,0.085,
1715,-0.32,0.095,
1716,-0.3,0.09,
1717,-0.295,0.08,
1718,-0.305,0.065,
1719,-0.31,0.07,
1720,-0.31,0.075,
1721,-0.305,0.085,
1722,-0.29,0.075,
1723,-0.28,0.06,
1724,-0.305,0.035,
1725,-0.31,0.035,
1726,-0.315,0.06,
1727,-0.325,0.065,
1728,-0.31,0.06,
1729,-0.3,0.035,
1730,-0.255,-0.005,
1731,-0.18,-0.05,
1732,-0.045,-0.1,
1733,0.135,-0.175,
1734,0.32,-0.27,
1735,0.495,-0.345,
1736,0.675,-0.385,
1737,0.855,-0.38,
1738,1.015,-0.315,
1739,1.135,-0.25,
1740,1.2,-0.23,
1741,1.205,-0.23,N
1742,1.1,-0.21,
1743,0.95,-0.165,
1744,0.82,-0.13,
1745,0.745,-0.095,
1746,0.66,-0.09,
1747,0.52,-0.055,
1748,0.355,-0.03,
1749,0.24,0.0,
1750,0.155,0.025,
1751,0.14,0.045,
1752,0.08,0.055,
1753,-0.02,0.075,
1754,-0.125,0.105,
1755,-0.22,0.11,
1756,-0.29,0.135,
1757,-0.325,0.155,
1758,-0.355,0.165,
1759,-0.395,0.18,
1760,-0.435,0.165,
1761,-0.455,0.16,
1762,-0.46,0.18,
1763,-0.475,0.18,
1764,-0.48,0.17,
1765,-0.495,0.17,
1766,-0.5,0.145,
1767,-0.51,0.16,
1768,-0.5,0.175,
1769,-0.485,0.18,
1770,-0.475,0.175,
1771,-0.48,0.17,
1772,-0.495,0.17,
1773,-0.49,0.165,
1774,-0.485,0.17,
1775,-0.475,0.175,
1776,-0.445,0.18,
1777,-0.46,0.17,
1778,-0.485,0.165,
1779,-0.495,0.175,
1780,-0.49,0.18,
1781,-0.48,0.175,
1782,-0.465,0.17,
1783,-0.465,0.18,
1784,-0.47,0.17,
1785,-0.48,0.17,
1786,-0.475,0.17,
1787,-0.46,0.195,
1788,-0.47,0.185,
1789,-0.46,0.18,
1790,-0.47,0.175,
1791,-0.47,0.17,
1792,-0.48,0.185,
1793,-0.485,0.19,
1794,-0.475,0.18,
1795,-0.475,0.18,
1796,-0.49,0.17,
1797,-0.51,0.165,
1798,-0.51,0.18,
1799,-0.51,0.195,
1800,-0.495,0.19,
1801,-0.5,0.175,
1802,-0.51,0.175,
1803,-0.505,0.175,
1804,-0.495,0.185,
1805,-0.505,0.205,
1806,-0.49,0.2,
1807,-0.49,0.19,
1808,-0.495,0.185,
1809,-0.495,0.175,
1810,-0.485,0.18,
1811,-0.47,0.195,
1812,-0.465,0.19,
1813,-0.485,0.2,
1814,-0.48,0.195,
1815,-0.485,0.195,
1816,-0.47,0.19,
1817,-0.44,0.2,
1818,-0.43,0.2,
1819,-0.44,0.19,
1820,-0.435,0.18,
1821,-0.425,0.185,
1822,-0.405,0.2,
1823,-0.4,0.21,
1824,-0.385,0.2,
1825,-0.365,0.19,
1826,-0.355,0.18,
1827,-0.35,0.185,
1828,-0.33,0.19,
1829,-0.315,0.195,
1830,-0.29,0.2,
1831,-0.275,0.19,
1832,-0.27,0.19,
1833,-0.265,0.185,
1834,-0.25,0.18,
1835,-0.245,0.195,
1836,-0.215,0.185,
1837,-0.2,0.18,
1838,-0.19,0.17,
1839,-0.195,0.165,
1840,-0.175,0.155,
1841,-0.16,0.175,
1842,-0.155,0.165,
1843,-0.15,0.165,
1844,-0.16,0.14,
1845,-0.165,0.14,
1846,-0.16,0.14,
1847,-0.155,0.15,
1848,-0.155,0.155,
1849,-0.17,0.15,
1850,-0.185,0.15,
1851,-0.2,0.13,
1852,-0.21,0.135,
1853,-0.195,0.135,
1854,-0.2,0.14,
1855,-0.21,0.13,
1856,-0.235,0.125,
1857,-0.24,0.135,
1858,-0.245,0.14,
1859,-0.235,0.14,
1860,-0.22,0.13,
1861,-0.23,0.115,
1862,-0.255,0.115,
1863,-0.27,0.13,
1864,-0.275,0.125,
1865,-0.265,0.14,
1866,-0.26,0.14,
1867,-0.265,0.145,
1868,-0.265,0.13,
1869,-0.275,0.12,
1870,-0.285,0.135,
1871,-0.275,0.135,
1872,-0.265,0.12,
1873,-0.26,0.125,
1874,-0.275,0.12,
1875,-0.29,0.11,
1876,-0.28,0.12,
1877,-0.295,0.145,
1878,-0.28,0.12,
1879,-0.285,0.125,
1880,-0.29,0.11,
1881,-0.31,0.115,
1882,-0.295,0.11,
1883,-0.285,0.12,
1884,-0.285,0.12,
1885,-0.295,0.115,
1886,-0.31,0.095,
1887,-0.325,0.095,
1888,-0.31,0.1,
1889,-0.295,0.11,
1890,-0.285,0.11,
1891,-0.295,0.095,
1892,-0.305,0.085,
1893,-0.305,0.08,
1894,-0.31,0.105,
1895,-0.295,0.1,
1896,-0.29,0.09,
1897,-0.29,0.095,
1898,-0.3,0.075,
1899,-0.305,0.065,
1900,-0.295,0.085,
1901,-0.3,0.09,
1902,-0.3,0.09,
1903,-0.295,0.095,
1904,-0.285,0.075,
1905,-0.295,0.07,
1906,-0.29,0.085,
1907,-0.28,0.09,
1908,-0.275,0.08,
1909,-0.29,0.085,
1910,-0.305,0.07,
1911,-0.305,0.075,
1912,-0.295,0.08,
1913,-0.285,0.085,
1914,-0.275,0.075,
1915,-0.29,0.08,
1916,-0.295,0.065,
1917,-0.31,0.055,
1918,-0.3,0.08,
1919,-0.295,0.08,
1920,-0.275,0.075,
1921,-0.275,0.07,
1922,-0.29,0.06,
1923,-0.3,0.07,
1924,-0.305,0.07,
1925,-0.29,0.075,
1926,-0.29,0.08,
1927,-0.285,0.075,
1928,-0.28,0.065,
1929,-0.285,0.055,
1930,-0.29,0.075,
1931,-0.285,0.085,
1932,-0.28,0.08,
1933,-0.285,0.075,
1934,-0.275,0.07,
1935,-0.285,0.07,
1936,-0.275,0.09,
1937,-0.265,0.105,
1938,-0.265,0.12,
1939,-0.265,0.15,
1940,-0.265,0.15,
1941,-0.255,0.16,
1942,-0.22,0.155,
1943,-0.185,0.165,
1944,-0.175,0.17,
1945,-0.18,0.175,
1946,-0.2,0.16,
1947,-0.215,0.145,
1948,-0.19,0.145,
1949,-0.16,0.13,
1950,-0.125,0.115,
1951,-0.115,0.105,
1952,-0.11,0.1,
1953,-0.115,0.105,
1954,-0.115,0.11,
1955,-0.1,0.115,
1956,-0.075,0.09,
1957,-0.075,0.085,
1958,-0.085,0.065,
1959,-0.1,0.07,
1960,-0.095,0.09,
1961,-0.085,0.095,
1962,-0.1,0.1,
1963,-0.12,0.095,
1964,-0.125,0.075,
1965,-0.145,0.06,
1966,-0.165,0.065,
1967,-0.195,0.06,
1968,-0.245,0.06,
1969,-0.3,0.05,
1970,-0.325,0.035,
1971,-0.35,0.045,
1972,-0.35,0.05,
1973,-0.34,0.065,
1974,-0.34,0.065,
1975,-0.35,0.05,
1976,-0.36,0.045,
1977,-0.37,0.04,
1978,-0.355,0.045,
1979,-0.34,0.06,
1980,-0.335,0.045,
1981,-0.345,0.05,
1982,-0.335,0.035,
1983,-0.35,0.035,
1984,-0.35,0.055,
1985,-0.34,0.06,
1986,-0.34,0.04,
1987,-0.335,0.04,
1988,-0.335,0.04,
1989,-0.35,0.05,
1990,-0.34,0.055,
1991,-0.325,0.06,
1992,-0.31,0.055,
1993,-0.295,0.03,
1994,-0.325,0.025,
1995,-0.325,0.03,
1996,-0.31,0.035,
1997,-0.32,0.035,
1998,-0.315,0.03,
1999,-0.315,0.02,
2000,-0.33,0.015,
2001,-0.335,0.01,
2002,-0.32,-0.015,
2003,-0.275,-0.04,
2004,-0.215,-0.1,
2005,-0.1,-0.17,
2006,0.01,-0.26,
2007,0.165,-0.345,
2008,0.34,-0.415,
2009,0.525,-0.435,
2010,0.705,-0.44,
2011,0.86,-0.42,
2012,0.98,-0.385,
2013,1.08,-0.335,
2014,1.18,-0.29,
2015,1.205,-0.275,N
2016,1.155,-0.255,
2017,1.025,-0.22,
2018,0.88,-0.18,
2019,0.77,-0.15,
2020,0.685,-0.135,
2021,0.595,-0.08,
2022,0.48,-0.05,
2023,0.33,-0.015,
2024,0.22,-0.01,
2025,0.165,0.015,
2026,0.09,0.04,
2027,0.015,0.075,
2028,-0.08,0.09,
2029,-0.175,0.09,
2030,-0.25,0.09,
2031,-0.31,0.125,
2032,-0.36,0.15,
2033,-0.415,0.165,
2034,-0.465,0.17,
2035,-0.49,0.16,
2036,-0.505,0.145,
2037,-0.52,0.145,
2038,-0.525,0.155,
2039,-0.535,0.15,
2040,-0.53,0.16,
2041,-0.53,0.155,
2042,-0.525,0.145,
2043,-0.55,0.155,
2044,-0.55,0.16,
2045,-0.555,0.175,
2046,-0.53,0.17,
2047,-0.525,0.165,
2048,-0.53,0.16,
2049,-0.53,0.165,
2050,-0.525,0.175,
2051,-0.525,0.185,
2052,-0.52,0.18,
2053,-0.525,0.175,
2054,-0.53,0.165,
2055,-0.52,0.165,
2056,-0.505,0.17,
2057,-0.51,0.185,
2058,-0.505,0.2,
2059,-0.505,0.195,
2060,-0.52,0.18,
2061,-0.525,0.17,
2062,-0.52,0.18,
2063,-0.505,0.195,
2064,-0.505,0.19,
2065,-0.505,0.19,
2066,-0.52,0.185,
2067,-0.525,0.185,
2068,-0.535,0.195,
2069,-0.53,0.205,
2070,-0.525,0.195,
2071,-0.525,0.195,
2072,-0.525,0.19,
2073,-0.53,0.19,
2074,-0.525,0.195,
2075,-0.525,0.21,
2076,-0.52,0.205,
2077,-0.525,0.21,
2078,-0.535,0.2,
2079,-0.53,0.205,
2080,-0.53,0.21,
2081,-0.52,0.22,
2082,-0.515,0.215,
2083,-0.53,0.225,
2084,-0.525,0.205,
2085,-0.53,0.21,
2086,-0.53,0.22,
2087,-0.51,0.235,
2088,-0.495,0.235,
2089,-0.495,0.225,
2090,-0.495,0.215,
2091,-0.505,0.22,
2092,-0.49,0.225,
2093,-0.465,0.23,
2094,-0.44,0.235,
2095,-0.435,0.23,
2096,-0.435,0.22,
2097,-0.445,0.23,
2098,-0.43,0.23,
2099,-0.405,0.24,
2100,-0.375,0.24,
2101,-0.365,0.235,
2102,-0.345,0.23,
2103,-0.335,0.225,
2104,-0.335,0.245,
2105,-0.315,0.255,
2106,-0.29,0.25,
2107,-0.3,0.23,
2108,-0.275,0.225,
2109,-0.275,0.235,
2110,-0.25,0.23,
2111,-0.23,0.25,
2112,-0.22,0.24,
2113,-0.22,0.22,
2114,-0.21,0.22,
2115,-0.215,0.21,
2116,-0.19,0.215,
2117,-0.18,0.21,
2118,-0.165,0.195,
2119,-0.17,0.2,
2120,-0.185,0.19,
2121,-0.205,0.185,
2122,-0.195,0.185,
2123,-0.19,0.19,
2124,-0.185,0.19,
2125,-0.185,0.18,
2126,-0.2,0.18,
2127,-0.21,0.17,
2128,-0.225,0.175,
2129,-0.22,0.185,
2130,-0.22,0.195,
2131,-0.235,0.18,
2132,-0.24,0.17,
2133,-0.26,0.17,
2134,-0.27,0.185,
2135,-0.275,0.185,
2136,-0.27,0.18,
2137,-0.275,0.18,
2138,-0.28,0.165,
2139,-0.29,0.175,
2140,-0.285,0.185,
2141,-0.275,0.195,
2142,-0.275,0.175,
2143,-0.29,0.17,
2144,-0.295,0.16,
2145,-0.31,0.165,
2146,-0.31,0.175,
2147,-0.295,0.185,
2148,-0.275,0.185,
2149,-0.295,0.17,
2150,-0.3,0.175,
2151,-0.315,0.18,
2152,-0.32,0.18,
2153,-0.31,0.18,
2154,-0.295,0.175,
2155,-0.3,0.165,
2156,-0.315,0.175,
2157,-0.335,0.165,
2158,-0.32,0.165,
2159,-0.315,0.18,
2160,-0.305,0.17,
2161,-0.315,0.17,
2162,-0.32,0.15,
2163,-0.325,0.145,
2164,-0.32,0.16,
2165,-0.315,0.165,
2166,-0.315,0.16,
2167,-0.31,0.16,
2168,-0.33,0.145,
2169,-0.335,0.15,
2170,-0.315,0.15,
2171,-0.32,0.15,
2172,-0.31,0.135,
2173,-0.31,0.15,
2174,-0.325,0.135,
2175,-0.335,0.12,
2176,-0.325,0.145,
2177,-0.31,0.155,
2178,-0.305,0.14,
2179,-0.3,0.14,
2180,-0.315,0.12,
2181,-0.32,0.115,
2182,-0.31,0.13,
2183,-0.305,0.145,
2184,-0.29,0.14,
2185,-0.3,0.14,
2186,-0.315,0.14,
2187,-0.31,0.12,
2188,-0.315,0.12,
2189,-0.305,0.145,
2190,-0.305,0.135,
2191,-0.31,0.13,
2192,-0.315,0.125,
2193,-0.315,0.115,
2194,-0.31,0.12,
2195,-0.3,0.14,
2196,-0.29,0.135,
2197,-0.31,0.135,
2198,-0.315,0.12,
2199,-0.33,0.125,
2200,-0.315,0.14,
2201,-0.295,0.15,
2202,-0.295,0.15,
2203,-0.3,0.15,
2204,-0.3,0.135,
2205,-0.315,0.135,
2206,-0.3,0.135,
2207,-0.29,0.15,
2208,-0.285,0.15,
2209,-0.285,0.15,
2210,-0.295,0.14,
2211,-0.305,0.14,
2212,-0.31,0.155,
2213,-0.295,0.18,
2214,-0.28,0.195,
2215,-0.27,0.205,
2216,-0.255,0.21,
2217,-0.25,0.22,
2218,-0.22,0.23,
2219,-0.205,0.235,
2220,-0.19,0.235,
2221,-0.195,0.225,
2222,-0.21,0.22,
2223,-0.22,0.195,
2224,-0.195,0.18,
2225,-0.175,0.185,
2226,-0.16,0.16,
2227,-0.155,0.165,
2228,-0.15,0.16,
2229,-0.145,0.17,
2230,-0.13,0.165,
2231,-0.11,0.17,
2232,-0.095,0.155,
2233,-0.11,0.145,
2234,-0.105,0.135,
2235,-0.125,0.135,
2236,-0.135,0.155,
2237,-0.13,0.16,
2238,-0.125,0.155,
2239,-0.14,0.13,
2240,-0.155,0.11,
2241,-0.2,0.105,
2242,-0.24,0.12,
2243,-0.275,0.145,
2244,-0.3,0.125,
2245,-0.32,0.12,
2246,-0.345,0.11,
2247,-0.38,0.105,
2248,-0.385,0.12,
2249,-0.37,0.12,
2250,-0.355,0.11,
2251,-0.365,0.085,
2252,-0.375,0.09,
2253,-0.38,0.1,
2254,-0.365,0.125,
2255,-0.355,0.135,
2256,-0.355,0.125,
2257,-0.36,0.115,
2258,-0.36,0.105,
2259,-0.37,0.11,
2260,-0.355,0.115,
2261,-0.345,0.12,
2262,-0.345,0.11,
2263,-0.335,0.095,
2264,-0.34,0.105,
2265,-0.34,0.105,
2266,-0.34,0.105,
2267,-0.325,0.105,
2268,-0.315,0.095,
2269,-0.32,0.085,
2270,-0.335,0.07,
2271,-0.345,0.055,
2272,-0.325,0.08,
2273,-0.345,0.075,
2274,-0.325,0.06,
2275,-0.315,0.025,
2276,-0.285,-0.02,
2277,-0.185,-0.09,
2278,-0.025,-0.17,
2279,0.165,-0.255,
2280,0.375,-0.36,
2281,0.595,-0.405,
2282,0.76,-0.415,
2283,0.945,-0.375,
2284,1.09,-0.31,
2285,1.2,-0.255,
2286,1.28,-0.22,
2287,1.255,-0.22,N
2288,1.145,-0.21,
2289,0.995,-0.165,
2290,0.85,-0.11,
2291,0.73,-0.075,
2292,0.625,-0.035,
2293,0.47,0.015,
2294,0.305,0.05,
2295,0.175,0.065,
2296,0.1,0.095,
2297,0.035,0.12,
2298,-0.06,0.12,
2299,-0.145,0.125,
2300,-0.235,0.135,
2301,-0.29,0.15,
2302,-0.335,0.17,
2303,-0.385,0.19,
2304,-0.435,0.2,
2305,-0.46,0.19,
2306,-0.49,0.19,
2307,-0.495,0.185,
2308,-0.51,0.195,
2309,-0.525,0.205,
2310,-0.535,0.205,
2311,-0.54,0.205,
2312,-0.535,0.185,
2313,-0.555,0.195,
2314,-0.56,0.2,
2315,-0.53,0.21,
2316,-0.52,0.21,
2317,-0.52,0.195,
2318,-0.525,0.195,
2319,-0.54,0.195,
2320,-0.53,0.21,
2321,-0.525,0.21,
2322,-0.52,0.21,
2323,-0.52,0.205,
2324,-0.515,0.195,
2325,-0.525,0.19,
2326,-0.515,0.2,
2327,-0.5,0.22,
2328,-0.5,0.225,
2329,-0.505,0.22,
2330,-0.51,0.205,
2331,-0.53,0.21,
2332,-0.53,0.21,
2333,-0.51,0.22,
2334,-0.51,0.23,
2335,-0.505,0.215,
2336,-0.505,0.215,
2337,-0.51,0.22,
2338,-0.53,0.225,
2339,-0.51,0.23,
2340,-0.5,0.23,
2341,-0.505,0.22,
2342,-0.515,0.22,
2343,-0.525,0.2,
2344,-0.52,0.235,
2345,-0.5,0.24,
2346,-0.495,0.235,
2347,-0.495,0.235,
2348,-0.515,0.23,
2349,-0.52,0.22,
2350,-0.525,0.24,
2351,-0.51,0.265,
2352,-0.51,0.255,
2353,-0.51,0.245,
2354,-0.5,0.22,
2355,-0.5,0.23,
2356,-0.49,0.245,
2357,-0.48,0.25,
2358,-0.485,0.245,
2359,-0.47,0.23,
2360,-0.46,0.245,
2361,-0.465,0.235,
2362,-0.45,0.25,
2363,-0.435,0.26,
2364,-0.42,0.26,
2365,-0.415,0.245,
2366,-0.41,0.23,
2367,-0.41,0.23,
2368,-0.4,0.25,
2369,-0.36,0.26,
2370,-0.34,0.25,
2371,-0.33,0.245,
2372,-0.31,0.24,
2373,-0.31,0.235,
2374,-0.3,0.255,
2375,-0.275,0.255,
2376,-0.255,0.25,
2377,-0.235,0.26,
2378,-0.23,0.245,
2379,-0.235,0.24,
2380,-0.21,0.24,
2381,-0.19,0.24,
2382,-0.175,0.22,
2383,-0.16,0.215,
2384,-0.16,0.21,
2385,-0.16,0.21,
2386,-0.165,0.215,
2387,-0.17,0.23,
2388,-0.18,0.225,
2389,-0.175,0.21,
2390,-0.185,0.195,
2391,-0.205,0.18,
2392,-0.205,0.18,
2393,-0.2,0.19,
2394,-0.21,0.185,
2395,-0.22,0.19,
2396,-0.225,0.165,
2397,-0.25,0.175,
2398,-0.25,0.19,
2399,-0.25,0.19,
2400,-0.26,0.19,
2401,-0.26,0.18,
2402,-0.27,0.18,
2403,-0.295,0.175,
2404,-0.285,0.185,
2405,-0.26,0.195,
2406,-0.26,0.19,
2407,-0.27,0.18,
2408,-0.275,0.18,
2409,-0.305,0.165,
2410,-0.3,0.18,
2411,-0.295,0.19,
2412,-0.295,0.205,
2413,-0.29,0.185,
2414,-0.285,0.18,
2415,-0.3,0.18,
2416,-0.305,0.18,
2417,-0.3,0.185,
2418,-0.295,0.19,
2419,-0.3,0.175,
2420,-0.31,0.185,
2421,-0.315,0.175,
2422,-0.315,0.18,
2423,-0.305,0.185,
2424,-0.3,0.185,
2425,-0.305,0.185,
2426,-0.3,0.17,
2427,-0.32,0.175,
2428,-0.32,0.18,
2429,-0.315,0.18,
2430,-0.32,0.19,
2431,-0.325,0.175,
2432,-0.32,0.155,
2433,-0.33,0.15,
2434,-0.33,0.16,
2435,-0.32,0.175,
2436,-0.305,0.17,
2437,-0.31,0.165,
2438,-0.315,0.16,
2439,-0.32,0.145,
2440,-0.315,0.155,
2441,-0.305,0.165,
2442,-0.3,0.16,
2443,-0.305,0.15,
2444,-0.305,0.135,
2445,-0.33,0.13,
2446,-0.32,0.145,
2447,-0.305,0.165,
2448,-0.3,0.155,
2449,-0.305,0.15,
2450,-0.295,0.145,
2451,-0.3,0.13,
2452,-0.325,0.145,
2453,-0.305,0.145,
2454,-0.29,0.145,
2455,-0.295,0.145,
2456,-0.3,0.135,
2457,-0.315,0.135,
2458,-0.32,0.145,
2459,-0.31,0.15,
2460,-0.305,0.15,
2461,-0.3,0.145,
2462,-0.31,0.125,
2463,-0.32,0.13,
2464,-0.31,0.135,
2465,-0.305,0.155,
2466,-0.295,0.155,
2467,-0.295,0.13,
2468,-0.31,0.13,
2469,-0.315,0.13,
2470,-0.32,0.135,
2471,-0.31,0.15,
2472,-0.31,0.15,
2473,-0.305,0.16,
2474,-0.31,0.16,
2475,-0.305,0.155,
2476,-0.305,0.185,
2477,-0.29,0.215,
2478,-0.26,0.22,
2479,-0.25,0.215,
2480,-0.24,0.21,
2481,-0.25,0.21,
2482,-0.235,0.195,
2483,-0.22,0.205,
2484,-0.21,0.2,
2485,-0.225,0.2,
2486,-0.22,0.185,
2487,-0.225,0.17,
2488,-0.18,0.175,
2489,-0.16,0.17,
2490,-0.145,0.175,
2491,-0.125,0.175,
2492,-0.135,0.155,
2493,-0.125,0.15,
2494,-0.11,0.15,
2495,-0.105,0.13,
2496,-0.11,0.135,
2497,-0.115,0.135,
2498,-0.135,0.14,
2499,-0.155,0.135,
2500,-0.155,0.135,
2501,-0.17,0.145,
2502,-0.175,0.135,
2503,-0.195,0.12,
2504,-0.235,0.11,
2505,-0.28,0.09,
2506,-0.325,0.11,
2507,-0.33,0.115,
2508,-0.345,0.11,
2509,-0.36,0.115,
2510,-0.375,0.085,
2511,-0.38,0.08,
2512,-0.375,0.085,
2513,-0.38,0.115,
2514,-0.38,0.11,
2515,-0.38,0.1,
2516,-0.39,0.09,
2517,-0.375,0.09,
2518,-0.355,0.105,
2519,-0.355,0.12,
2520,-0.35,0.1,
2521,-0.345,0.1,
2522,-0.345,0.1,
2523,-0.35,0.105,
2524,-0.345,0.12,
2525,-0.34,0.12,
2526,-0.33,0.1,
2527,-0.325,0.1,
2528,-0.335,0.1,
2529,-0.34,0.09,
2530,-0.34,0.105,
2531,-0.32,0.11,
2532,-0.31,0.09,
2533,-0.325,0.06,
2534,-0.32,0.055,
2535,-0.335,0.055,
2536,-0.34,0.085,
2537,-0.32,0.085,
2538,-0.315,0.08,
2539,-0.275,0.055,
2540,-0.195,0.015,
2541,-0.05,-0.035,
2542,0.115,-0.085,
2543,0.315,-0.15,
2544,0.48,-0.225,
2545,0.67,-0.3,
2546,0.83,-0.345,
2547,0.955,-0.335,
2548,1.08,-0.255,
2549,1.165,-0.19,
2550,1.22,-0.175,N
2551,1.2,-0.185,
2552,1.09,-0.18,
2553,0.93,-0.13,
2554,0.81,-0.095,
2555,0.72,-0.07,
2556,0.615,-0.04,
2557,0.44,-0.005,
2558,0.26,0.02,
2559,0.125,0.05,
2560,0.035,0.065,
2561,-0.03,0.085,
2562,-0.095,0.1,
2563,-0.195,0.1,
2564,-0.28,0.11,
2565,-0.33,0.12,
2566,-0.365,0.145,
2567,-0.385,0.175,
2568,-0.42,0.175,
2569,-0.465,0.175,
2570,-0.495,0.155,
2571,-0.515,0.16,
2572,-0.525,0.175,
2573,-0.53,0.175,
2574,-0.525,0.165,
2575,-0.53,0.16,
2576,-0.525,0.16,
2577,-0.54,0.155,
2578,-0.535,0.17,
2579,-0.525,0.18,
2580,-0.52,0.175,
2581,-0.52,0.17,
2582,-0.535,0.16,
2583,-0.515,0.16,
2584,-0.515,0.17,
2585,-0.5,0.175,
2586,-0.52,0.18,
2587,-0.52,0.165,
2588,-0.51,0.155,
2589,-0.525,0.155,
2590,-0.52,0.175,
2591,-0.495,0.19,
2592,-0.49,0.175,
2593,-0.52,0.16,
2594,-0.51,0.16,
2595,-0.515,0.155,
2596,-0.51,0.165,
2597,-0.505,0.18,
2598,-0.505,0.165,
2599,-0.51,0.17,
2600,-0.5,0.145,
2601,-0.515,0.155,
2602,-0.52,0.165,
2603,-0.515,0.165,
2604,-0.515,0.16,
2605,-0.525,0.155,
2606,-0.51,0.155,
2607,-0.52,0.165,
2608,-0.505,0.155,
2609,-0.5,0.18,
2610,-0.5,0.18,
2611,-0.51,0.175,
2612,-0.51,0.165,
2613,-0.51,0.175,
2614,-0.51,0.175,
2615,-0.5,0.19,
2616,-0.5,0.18,
2617,-0.5,0.165,
2618,-0.5,0.165,
2619,-0.495,0.17,
2620,-0.485,0.185,
2621,-0.455,0.2,
2622,-0.46,0.195,
2623,-0.44,0.185,
2624,-0.46,0.18,
2625,-0.455,0.17,
2626,-0.435,0.19,
2627,-0.405,0.19,
2628,-0.4,0.185,
2629,-0.395,0.185,
2630,-0.4,0.18,
2631,-0.4,0.18,
2632,-0.37,0.185,
2633,-0.345,0.195,
2634,-0.325,0.18,
2635,-0.315,0.175,
2636,-0.305,0.165,
2637,-0.29,0.165,
2638,-0.27,0.18,
2639,-0.245,0.185,
2640,-0.225,0.165,
2641,-0.225,0.165,
2642,-0.205,0.145,
2643,-0.22,0.125,
2644,-0.195,0.145,
2645,-0.185,0.17,
2646,-0.175,0.16,
2647,-0.18,0.155,
2648,-0.19,0.13,
2649,-0.195,0.13,
2650,-0.185,0.13,
2651,-0.19,0.145,
2652,-0.2,0.145,
2653,-0.195,0.14,
2654,-0.22,0.125,
2655,-0.24,0.12,
2656,-0.24,0.14,
2657,-0.24,0.14,
2658,-0.23,0.135,
2659,-0.235,0.135,
2660,-0.24,0.135,
2661,-0.265,0.13,
2662,-0.265,0.135,
2663,-0.255,0.15,
2664,-0.255,0.14,
2665,-0.26,0.13,
2666,-0.265,0.125,
2667,-0.27,0.125,
2668,-0.28,0.13,
2669,-0.265,0.14,
2670,-0.25,0.14,
2671,-0.27,0.14,
2672,-0.28,0.115,
2673,-0.29,0.12,
2674,-0.28,0.125,
2675,-0.275,0.145,
2676,-0.28,0.14,
2677,-0.275,0.12,
2678,-0.28,0.125,
2679,-0.29,0.12,
2680,-0.295,0.125,
2681,-0.29,0.135,
2682,-0.3,0.12,
2683,-0.28,0.12,
2684,-0.3,0.105,
2685,-0.295,0.115,
2686,-0.295,0.12,
2687,-0.28,0.14,
2688,-0.28,0.115,
2689,-0.28,0.11,
2690,-0.29,0.09,
2691,-0.3,0.09,
2692,-0.275,0.115,
2693,-0.27,0.11,
2694,-0.275,0.105,
2695,-0.285,0.105,
2696,-0.285,0.09,
2697,-0.29,0.08,
2698,-0.275,0.1,
2699,-0.28,0.09,
2700,-0.265,0.1,
2701,-0.27,0.085,
2702,-0.29,0.075,
2703,-0.3,0.095,
2704,-0.275,0.09,
2705,-0.285,0.095,
2706,-0.27,0.085,
2707,-0.275,0.095,
2708,-0.28,0.08,
2709,-0.285,0.075,
2710,-0.28,0.09,
2711,-0.265,0.11,
2712,-0.27,0.1,
2713,-0.26,0.085,
2714,-0.275,0.075,
2715,-0.28,0.075,
2716,-0.275,0.095,
2717,-0.255,0.095,
2718,-0.245,0.08,
2719,-0.245,0.08,
2720,-0.265,0.08,
2721,-0.285,0.075,
2722,-0.275,0.09,
2723,-0.275,0.09,
2724,-0.255,0.085,
2725,-0.255,0.09,
2726,-0.255,0.075,
2727,-0.27,0.08,
2728,-0.265,0.09,
2729,-0.255,0.085,
2730,-0.235,0.09,
2731,-0.23,0.105,
2732,-0.235,0.105,
2733,-0.25,0.12,
2734,-0.235,0.145,
2735,-0.205,0.165,
2736,-0.175,0.165,
2737,-0.155,0.16,
2738,-0.16,0.15,
2739,-0.16,0.145,
2740,-0.16,0.155,
2741,-0.155,0.155,
2742,-0.15,0.14,
2743,-0.14,0.12,
2744,-0.115,0.1,
2745,-0.105,0.09,
2746,-0.08,0.105,
2747,-0.07,0.11,
2748,-0.055,0.105,
2749,-0.045,0.085,
2750,-0.045,0.07,
2751,-0.055,0.065,
2752,-0.05,0.075,
2753,-0.065,0.09,
2754,-0.07,0.095,
2755,-0.07,0.09,
2756,-0.08,0.075,
2757,-0.1,0.06,
2758,-0.12,0.055,
2759,-0.16,0.06,
2760,-0.195,0.06,
2761,-0.25,0.045,
2762,-0.29,0.04,
2763,-0.315,0.035,
2764,-0.315,0.045,
2765,-0.32,0.055,
2766,-0.295,0.045,
2767,-0.31,0.04,
2768,-0.32,0.025,
2769,-0.315,0.025,
2770,-0.315,0.03,
2771,-0.295,0.055,
2772,-0.275,0.055,
2773,-0.28,0.04,
2774,-0.29,0.035,
2775,-0.315,0.035,
2776,-0.295,0.05,
2777,-0.29,0.05,
2778,-0.29,0.05,
2779,-0.275,0.05,
2780,-0.29,0.035,
2781,-0.3,0.035,
2782,-0.29,0.045,
2783,-0.275,0.045,
2784,-0.265,0.02,
2785,-0.255,0.0,
2786,-0.265,-0.01,
2787,-0.29,0.0,
2788,-0.295,0.005,
2789,-0.285,0.01,
2790,-0.255,-0.005,
2791,-0.22,-0.045,
2792,-0.155,-0.095,
2793,-0.075,-0.14,
2794,0.06,-0.205,
2795,0.21,-0.27,
2796,0.38,-0.36,
2797,0.555,-0.43,
2798,0.745,-0.455,
2799,0.915,-0.43,
2800,1.065,-0.37,
2801,1.165,-0.315,
2802,1.25,-0.295,
2803,1.22,-0.285,N
2804,1.095,-0.255,
2805,0.93,-0.19,
2806,0.795,-0.15,
2807,0.68,-0.115,
2808,0.57,-0.065,
2809,0.41,-0.045,
2810,0.275,-0.045,
2811,0.195,-0.025,
2812,0.13,-0.005,
2813,0.035,0.03,
2814,-0.055,0.05,
2815,-0.13,0.06,
2816,-0.195,0.07,
2817,-0.255,0.075,
2818,-0.31,0.11,
2819,-0.345,0.135,
2820,-0.37,0.13,
2821,-0.405,0.12,
2822,-0.425,0.105,
2823,-0.44,0.11,
2824,-0.45,0.11,
2825,-0.45,0.115,
2826,-0.45,0.105,
2827,-0.465,0.1,
2828,-0.46,0.1,
2829,-0.48,0.11,
2830,-0.46,0.12,
2831,-0.445,0.125,
2832,-0.43,0.12,
2833,-0.435,0.115,
2834,-0.45,0.105,
2835,-0.465,0.085,
2836,-0.46,0.115,
2837,-0.45,0.14,
2838,-0.445,0.125,
2839,-0.43,0.125,
2840,-0.44,0.105,
2841,-0.44,0.105,
2842,-0.455,0.12,
2843,-0.43,0.13,
2844,-0.44,0.13,
2845,-0.435,0.125,
2846,-0.435,0.12,
2847,-0.445,0.115,
2848,-0.445,0.135,
2849,-0.435,0.13,
2850,-0.435,0.135,
2851,-0.435,0.115,
2852,-0.445,0.11,
2853,-0.44,0.125,
2854,-0.435,0.14,
2855,-0.43,0.145,
2856,-0.43,0.15,
2857,-0.44,0.135,
2858,-0.44,0.125,
2859,-0.435,0.125,
2860,-0.435,0.135,
2861,-0.43,0.165,
2862,-0.42,0.155,
2863,-0.43,0.15,
2864,-0.44,0.135,
2865,-0.44,0.145,
2866,-0.445,0.155,
2867,-0.435,0.165,
2868,-0.41,0.145,
2869,-0.415,0.155,
2870,-0.415,0.145,
2871,-0.43,0.155,
2872,-0.415,0.16,
2873,-0.405,0.17,
2874,-0.39,0.185,
2875,-0.38,0.175,
2876,-0.385,0.155,
2877,-0.395,0.165,
2878,-0.385,0.185,
2879,-0.36,0.18,
2880,-0.33,0.185,
2881,-0.32,0.175,
2882,-0.31,0.175,
2883,-0.31,0.155,
2884,-0.31,0.16,
2885,-0.28,0.18,
2886,-0.245,0.175,
2887,-0.225,0.175,
2888,-0.21,0.16,
2889,-0.205,0.155,
2890,-0.195,0.155,
2891,-0.165,0.155,
2892,-0.15,0.165,
2893,-0.14,0.155,
2894,-0.135,0.15,
2895,-0.115,0.145,
2896,-0.11,0.145,
2897,-0.095,0.155,
2898,-0.095,0.15,
2899,-0.105,0.135,
2900,-0.11,0.12,
2901,-0.115,0.12,
2902,-0.105,0.13,
2903,-0.11,0.135,
2904,-0.11,0.115,
2905,-0.125,0.11,
2906,-0.14,0.11,
2907,-0.15,0.105,
2908,-0.155,0.115,
2909,-0.15,0.115,
2910,-0.155,0.115,
2911,-0.17,0.1,
2912,-0.175,0.095,
2913,-0.19,0.1,
2914,-0.18,0.105,
2915,-0.17,0.11,
2916,-0.175,0.105,
2917,-0.175,0.095,
2918,-0.19,0.095,
2919,-0.21,0.1,
2920,-0.2,0.11,
2921,-0.2,0.125,
2922,-0.195,0.115,
2923,-0.2,0.1,
2924,-0.215,0.09,
2925,-0.22,0.1,
2926,-0.225,0.1,
2927,-0.215,0.12,
2928,-0.195,0.115,
2929,-0.22,0.105,
2930,-0.205,0.095,
2931,-0.23,0.085,
2932,-0.23,0.1,
2933,-0.22,0.1,
2934,-0.215,0.105,
2935,-0.215,0.1,
2936,-0.23,0.08,
2937,-0.25,0.075,
2938,-0.24,0.08,
2939,-0.23,0.095,
2940,-0.22,0.085,
2941,-0.215,0.075,
2942,-0.23,0.075,
2943,-0.23,0.07,
2944,-0.22,0.08,
2945,-0.225,0.085,
2946,-0.23,0.085,
2947,-0.23,0.065,
2948,-0.22,0.065,
2949,-0.23,0.06,
2950,-0.23,0.07,
2951,-0.225,0.085,
2952,-0.215,0.075,
2953,-0.22,0.07,
2954,-0.22,0.055,
2955,-0.225,0.045,
2956,-0.225,0.075,
2957,-0.21,0.07,
2958,-0.215,0.075,
2959,-0.21,0.07,
2960,-0.215,0.065,
2961,-0.215,0.045,
2962,-0.215,0.05,
2963,-0.21,0.07,
2964,-0.2,0.07,
2965,-0.215,0.065,
2966,-0.225,0.055,
2967,-0.23,0.055,
2968,-0.215,0.065,
2969,-0.2,0.065,
2970,-0.205,0.07,
2971,-0.205,0.06,
2972,-0.2,0.05,
2973,-0.215,0.065,
2974,-0.195,0.075,
2975,-0.19,0.075,
2976,-0.175,0.07,
2977,-0.19,0.065,
2978,-0.21,0.055,
2979,-0.22,0.05,
2980,-0.215,0.075,
2981,-0.195,0.1,
2982,-0.19,0.11,
2983,-0.185,0.115,
2984,-0.175,0.145,
2985,-0.15,0.155,
2986,-0.115,0.145,
2987,-0.095,0.15,
2988,-0.09,0.16,
2989,-0.11,0.15,
2990,-0.12,0.15,
2991,-0.13,0.13,
2992,-0.11,0.13,
2993,-0.07,0.125,
2994,-0.05,0.11,
2995,-0.04,0.09,
2996,-0.035,0.09,
2997,-0.05,0.08,
2998,-0.04,0.085,
2999,-0.005,0.08,
3000,0.01,0.07,
3001,0.0,0.07,
3002,-0.02,0.065,
3003,-0.045,0.065,
3004,-0.045,0.075,
3005,-0.04,0.07,
3006,-0.055,0.065,
3007,-0.09,0.045,
3008,-0.16,0.035,
3009,-0.22,0.04,
3010,-0.27,0.05,
3011,-0.26,0.06,
3012,-0.265,0.045,
3013,-0.265,0.04,
3014,-0.275,0.035,
3015,-0.29,0.035,
3016,-0.28,0.045,
3017,-0.285,0.045,
3018,-0.27,0.045,
3019,-0.255,0.03,
3020,-0.265,0.035,
3021,-0.265,0.03,
3022,-0.26,0.04,
3023,-0.26,0.045,
3024,-0.26,0.04,
3025,-0.26,0.035,
3026,-0.265,0.03,
3027,-0.265,0.03,
3028,-0.245,0.035,
3029,-0.235,0.04,
3030,-0.23,0.04,
3031,-0.22,0.03,
3032,-0.225,0.03,
3033,-0.245,0.015,
3034,-0.225,0.0,
3035,-0.215,0.015,
3036,-0.205,0.005,
3037,-0.205,0.005,
3038,-0.23,-0.01,
3039,-0.245,-0.03,
3040,-0.225,-0.05,
3041,-0.19,-0.075,
3042,-0.105,-0.15,
3043,0.025,-0.215,
3044,0.2,-0.32,
3045,0.39,-0.41,
3046,0.615,-0.46,
3047,0.83,-0.475,
3048,1.005,-0.455,
3049,1.13,-0.41,
3050,1.21,-0.37,
3051,1.27,-0.345,
3052,1.32,-0.31,N
3053,1.275,-0.275,
3054,1.145,-0.23,
3055,0.97,-0.2,
3056,0.84,-0.16,
3057,0.715,-0.12,
3058,0.55,-0.08,
3059,0.41,-0.025,
3060,0.31,-0.005,
3061,0.235,0.01,
3062,0.155,0.01,
3063,0.04,0.04,
3064,-0.06,0.06,
3065,-0.14,0.08,
3066,-0.185,0.085,
3067,-0.24,0.1,
3068,-0.29,0.12,
3069,-0.35,0.13,
3070,-0.37,0.14,
3071,-0.37,0.135,
3072,-0.385,0.115,
3073,-0.405,0.12,
3074,-0.43,0.115,
3075,-0.435,0.105,
3076,-0.43,0.13,
3077,-0.43,0.14,
3078,-0.43,0.125,
3079,-0.42,0.125,
3080,-0.435,0.125,
3081,-0.435,0.125,
3082,-0.43,0.145,
3083,-0.42,0.155,
3084,-0.395,0.16,
3085,-0.405,0.145,
3086,-0.405,0.155,
3087,-0.42,0.145,
3088,-0.415,0.15,
3089,-0.39,0.155,
3090,-0.38,0.145,
3091,-0.395,0.145,
3092,-0.41,0.14,
3093,-0.42,0.14,
3094,-0.415,0.145,
3095,-0.405,0.155,
3096,-0.385,0.16,
3097,-0.39,0.145,
3098,-0.415,0.14,
3099,-0.42,0.135,
3100,-0.415,0.15,
3101,-0.395,0.16,
3102,-0.39,0.16,
3103,-0.39,0.155,
3104,-0.4,0.15,
3105,-0.44,0.15,
3106,-0.445,0.165,
3107,-0.42,0.18,
3108,-0.405,0.155,
3109,-0.415,0.14,
3110,-0.41,0.155,
3111,-0.425,0.16,
3112,-0.425,0.175,
3113,-0.42,0.175,
3114,-0.405,0.175,
3115,-0.42,0.185,
3116,-0.43,0.165,
3117,-0.43,0.17,
3118,-0.43,0.17,
3119,-0.42,0.185,
3120,-0.405,0.19,
3121,-0.4,0.19,
3122,-0.41,0.17,
3123,-0.405,0.165,
3124,-0.39,0.165,
3125,-0.38,0.2,
3126,-0.365,0.19,
3127,-0.345,0.195,
3128,-0.335,0.195,
3129,-0.33,0.18,
3130,-0.315,0.18,
3131,-0.305,0.19,
3132,-0.28,0.2,
3133,-0.275,0.19,
3134,-0.27,0.185,
3135,-0.27,0.19,
3136,-0.25,0.195,
3137,-0.225,0.2,
3138,-0.205,0.195,
3139,-0.195,0.18,
3140,-0.18,0.175,
3141,-0.185,0.17,
3142,-0.16,0.17,
3143,-0.135,0.185,
3144,-0.11,0.175,
3145,-0.1,0.17,
3146,-0.1,0.155,
3147,-0.105,0.135,
3148,-0.11,0.145,
3149,-0.1,0.145,
3150,-0.08,0.145,
3151,-0.095,0.14,
3152,-0.095,0.14,
3153,-0.125,0.14,
3154,-0.115,0.135,
3155,-0.11,0.15,
3156,-0.115,0.135,
3157,-0.115,0.12,
3158,-0.125,0.115,
3159,-0.155,0.115,
3160,-0.15,0.135,
3161,-0.135,0.15,
3162,-0.145,0.135,
3163,-0.145,0.135,
3164,-0.15,0.12,
3165,-0.165,0.12,
3166,-0.175,0.14,
3167,-0.17,0.15,
3168,-0.18,0.145,
3169,-0.185,0.135,
3170,-0.2,0.125,
3171,-0.2,0.125,
3172,-0.195,0.135,
3173,-0.19,0.135,
3174,-0.2,0.13,
3175,-0.19,0.13,
3176,-0.2,0.135,
3177,-0.205,0.135,
3178,-0.205,0.14,
3179,-0.205,0.145,
3180,-0.195,0.125,
3181,-0.2,0.135,
3182,-0.215,0.115,
3183,-0.225,0.12,
3184,-0.225,0.13,
3185,-0.22,0.125,
3186,-0.225,0.13,
3187,-0.235,0.12,
3188,-0.235,0.11,
3189,-0.23,0.115,
3190,-0.215,0.115,
3191,-0.215,0.12,
3192,-0.21,0.125,
3193,-0.21,0.12,
3194,-0.215,0.11,
3195,-0.225,0.11,
3196,-0.21,0.115,
3197,-0.205,0.11,
3198,-0.2,0.09,
3199,-0.215,0.095,
3200,-0.225,0.09,
3201,-0.235,0.09,
3202,-0.23,0.095,
3203,-0.215,0.11,
3204,-0.195,0.09,
3205,-0.195,0.095,
3206,-0.205,0.095,
3207,-0.23,0.09,
3208,-0.225,0.11,
3209,-0.215,0.12,
3210,-0.205,0.1,
3211,-0.21,0.105,
3212,-0.225,0.08,
3213,-0.23,0.08,
3214,-0.215,0.095,
3215,-0.22,0.11,
3216,-0.225,0.1,
3217,-0.23,0.095,
3218,-0.225,0.09,
3219,-0.22,0.08,
3220,-0.22,0.09,
3221,-0.205,0.095,
3222,-0.205,0.11,
3223,-0.21,0.1,
3224,-0.215,0.09,
3225,-0.225,0.1,
3226,-0.22,0.11,
3227,-0.22,0.12,
3228,-0.22,0.11,
3229,-0.215,0.1,
3230,-0.22,0.095,
3231,-0.23,0.095,
3232,-0.215,0.115,
3233,-0.2,0.13,
3234,-0.205,0.13,
3235,-0.205,0.13,
3236,-0.215,0.155,
3237,-0.205,0.17,
3238,-0.18,0.19,
3239,-0.145,0.195,
3240,-0.12,0.19,
3241,-0.12,0.185,
3242,-0.135,0.165,
3243,-0.145,0.145,
3244,-0.125,0.15,
3245,-0.095,0.15,
3246,-0.065,0.13,
3247,-0.045,0.135,
3248,-0.05,0.125,
3249,-0.05,0.125,
3250,-0.035,0.115,
3251,-0.02,0.115,
3252,0.0,0.095,
3253,-0.01,0.08,
3254,-0.035,0.09,
3255,-0.05,0.1,
3256,-0.065,0.105,
3257,-0.05,0.115,
3258,-0.06,0.09,
3259,-0.09,0.075,
3260,-0.13,0.07,
3261,-0.19,0.06,
3262,-0.235,0.095,
3263,-0.26,0.09,
3264,-0.28,0.085,
3265,-0.285,0.07,
3266,-0.3,0.055,
3267,-0.3,0.055,
3268,-0.295,0.075,
3269,-0.295,0.07,
3270,-0.27,0.08,
3271,-0.265,0.075,
3272,-0.27,0.07,
3273,-0.29,0.065,
3274,-0.29,0.07,
3275,-0.285,0.075,
3276,-0.275,0.065,
3277,-0.27,0.07,
3278,-0.27,0.06,
3279,-0.285,0.065,
3280,-0.275,0.07,
3281,-0.255,0.065,
3282,-0.25,0.06,
3283,-0.245,0.05,
3284,-0.255,0.05,
3285,-0.27,0.04,
3286,-0.26,0.045,
3287,-0.255,0.055,
3288,-0.255,0.04,
3289,-0.25,0.035,
3290,-0.27,0.03,
3291,-0.28,0.015,
3292,-0.24,0.005,
3293,-0.17,-0.035,
3294,-0.03,-0.115,
3295,0.13,-0.2,
3296,0.305,-0.315,
3297,0.5,-0.395,
3298,0.725,-0.415,
3299,0.94,-0.38,
3300,1.1,-0.305,
3301,1.215,-0.26,
3302,1.26,-0.245,
3303,1.2,-0.23,N
3304,1.065,-0.165,
3305,0.93,-0.135,
3306,0.8,-0.11,
3307,0.66,-0.09,
3308,0.495,-0.05,
3309,0.34,-0.005,
3310,0.235,0.03,
3311,0.195,0.065,
3312,0.17,0.07,
3313,0.085,0.08,
3314,-0.025,0.09,
3315,-0.13,0.115,
3316,-0.195,0.13,
3317,-0.25,0.16,
3318,-0.305,0.175,
3319,-0.355,0.165,
3320,-0.395,0.16,
3321,-0.42,0.16,
3322,-0.42,0.165,
3323,-0.425,0.16,
3324,-0.44,0.18,
3325,-0.44,0.175,
3326,-0.46,0.165,
3327,-0.455,0.16,
3328,-0.46,0.16,
3329,-0.45,0.175,
3330,-0.435,0.165,
3331,-0.44,0.165,
3332,-0.45,0.16,
3333,-0.45,0.165,
3334,-0.44,0.175,
3335,-0.425,0.185,
3336,-0.41,0.18,
3337,-0.42,0.17,
3338,-0.435,0.165,
3339,-0.44,0.165,
3340,-0.43,0.175,
3341,-0.425,0.195,
3342,-0.415,0.19,
3343,-0.425,0.18,
3344,-0.425,0.185,
3345,-0.425,0.175,
3346,-0.42,0.19,
3347,-0.41,0.19,
3348,-0.405,0.19,
3349,-0.415,0.175,
3350,-0.42,0.175,
3351,-0.425,0.17,
3352,-0.435,0.185,
3353,-0.43,0.195,
3354,-0.425,0.185,
3355,-0.41,0.175,
3356,-0.425,0.17,
3357,-0.425,0.185,
3358,-0.425,0.2,
3359,-0.425,0.21,
3360,-0.43,0.195,
3361,-0.44,0.185,
3362,-0.44,0.17,
3363,-0.43,0.175,
3364,-0.425,0.195,
3365,-0.42,0.215,
3366,-0.405,0.21,
3367,-0.41,0.2,
3368,-0.425,0.195,
3369,-0.41,0.2,
3370,-0.415,0.205,
3371,-0.405,0.21,
3372,-0.41,0.215,
3373,-0.395,0.205,
3374,-0.4,0.2,
3375,-0.405,0.21,
3376,-0.385,0.225,
3377,-0.365,0.22,
3378,-0.345,0.215,
3379,-0.33,0.21,
3380,-0.325,0.195,
3381,-0.32,0.2,
3382,-0.31,0.22,
3383,-0.29,0.22,
3384,-0.28,0.225,
3385,-0.265,0.21,
3386,-0.26,0.215,
3387,-0.27,0.2,
3388,-0.245,0.215,
3389,-0.22,0.22,
3390,-0.19,0.215,
3391,-0.17,0.215,
3392,-0.16,0.195,
3393,-0.17,0.19,
3394,-0.155,0.21,
3395,-0.14,0.21,
3396,-0.125,0.2,
3397,-0.13,0.195,
3398,-0.125,0.195,
3399,-0.125,0.18,
3400,-0.11,0.19,
3401,-0.105,0.195,
3402,-0.11,0.19,
3403,-0.11,0.18,
3404,-0.12,0.175,
3405,-0.125,0.165,
3406,-0.14,0.185,
3407,-0.135,0.18,
3408,-0.13,0.175,
3409,-0.15,0.16,
3410,-0.155,0.16,
3411,-0.18,0.155,
3412,-0.185,0.17,
3413,-0.18,0.18,
3414,-0.165,0.16,
3415,-0.175,0.16,
3416,-0.2,0.155,
3417,-0.2,0.165,
3418,-0.2,0.175,
3419,-0.21,0.18,
3420,-0.19,0.17,
3421,-0.21,0.17,
3422,-0.21,0.15,
3423,-0.21,0.145,
3424,-0.22,0.165,
3425,-0.21,0.18,
3426,-0.21,0.17,
3427,-0.225,0.17,
3428,-0.22,0.165,
3429,-0.235,0.15,
3430,-0.225,0.155,
3431,-0.215,0.17,
3432,-0.22,0.14,
3433,-0.235,0.135,
3434,-0.245,0.145,
3435,-0.26,0.145,
3436,-0.25,0.14,
3437,-0.245,0.17,
3438,-0.255,0.14,
3439,-0.255,0.135,
3440,-0.255,0.13,
3441,-0.255,0.135,
3442,-0.25,0.145,
3443,-0.25,0.15,
3444,-0.24,0.14,
3445,-0.245,0.12,
3446,-0.245,0.115,
3447,-0.245,0.13,
3448,-0.25,0.13,
3449,-0.245,0.13,
3450,-0.235,0.12,
3451,-0.235,0.12,
3452,-0.245,0.115,
3453,-0.245,0.115,
3454,-0.245,0.13,
3455,-0.245,0.145,
3456,-0.24,0.125,
3457,-0.265,0.115,
3458,-0.25,0.105,
3459,-0.265,0.115,
3460,-0.245,0.12,
3461,-0.23,0.13,
3462,-0.23,0.12,
3463,-0.24,0.115,
3464,-0.25,0.12,
3465,-0.265,0.1,
3466,-0.255,0.115,
3467,-0.245,0.12,
3468,-0.23,0.12,
3469,-0.235,0.125,
3470,-0.235,0.105,
3471,-0.25,0.095,
3472,-0.245,0.11,
3473,-0.235,0.125,
3474,-0.24,0.11,
3475,-0.24,0.11,
3476,-0.255,0.095,
3477,-0.27,0.09,
3478,-0.25,0.11,
3479,-0.245,0.12,
3480,-0.25,0.11,
3481,-0.24,0.105,
3482,-0.26,0.105,
3483,-0.26,0.11,
3484,-0.265,0.115,
3485,-0.245,0.125,
3486,-0.24,0.11,
3487,-0.245,0.12,
3488,-0.24,0.115,
3489,-0.24,0.11,
3490,-0.24,0.15,
3491,-0.22,0.175,
3492,-0.21,0.185,
3493,-0.19,0.2,
3494,-0.17,0.2,
3495,-0.18,0.18,
3496,-0.165,0.195,
3497,-0.15,0.195,
3498,-0.15,0.19,
3499,-0.175,0.185,
3500,-0.175,0.18,
3501,-0.165,0.16,
3502,-0.125,0.17,
3503,-0.095,0.155,
3504,-0.07,0.16,
3505,-0.065,0.155,
3506,-0.075,0.135,
3507,-0.07,0.135,
3508,-0.06,0.13,
3509,-0.03,0.135,
3510,-0.025,0.135,
3511,-0.035,0.12,
3512,-0.055,0.125,
3513,-0.075,0.11,
3514,-0.065,0.125,
3515,-0.07,0.12,
3516,-0.095,0.095,
3517,-0.115,0.085,
3518,-0.16,0.08,
3519,-0.22,0.085,
3520,-0.255,0.09,
3521,-0.28,0.1,
3522,-0.28,0.09,
3523,-0.29,0.085,
3524,-0.31,0.07,
3525,-0.32,0.085,
3526,-0.31,0.08,
3527,-0.295,0.095,
3528,-0.295,0.09,
3529,-0.295,0.07,
3530,-0.305,0.07,
3531,-0.305,0.055,
3532,-0.295,0.07,
3533,-0.28,0.085,
3534,-0.275,0.08,
3535,-0.28,0.075,
3536,-0.29,0.07,
3537,-0.305,0.07,
3538,-0.285,0.075,
3539,-0.275,0.08,
3540,-0.275,0.085,
3541,-0.265,0.07,
3542,-0.255,0.06,
3543,-0.265,0.055,
3544,-0.265,0.06,
3545,-0.26,0.065,
3546,-0.245,0.045,
3547,-0.245,0.04,
3548,-0.26,0.03,
3549,-0.27,0.04,
3550,-0.265,0.06,
3551,-0.23,0.055,
3552,-0.17,0.02,
3553,-0.07,-0.02,
3554,0.07,-0.07,
3555,0.23,-0.125,
3556,0.41,-0.195,
3557,0.58,-0.255,
3558,0.75,-0.335,
3559,0.88,-0.365,
3560,1.005,-0.345,
3561,1.105,-0.28,
3562,1.19,-0.215,
3563,1.245,-0.195,N
3564,1.2,-0.195,
3565,1.065,-0.18,
3566,0.905,-0.155,
3567,0.76,-0.12,
3568,0.66,-0.075,
3569,0.53,-0.03,
3570,0.375,0.0,
3571,0.235,0.005,
3572,0.135,0.015,
3573,0.075,0.03,
3574,0.0,0.055,
3575,-0.085,0.08,
3576,-0.155,0.095,
3577,-0.22,0.085,
3578,-0.26,0.09,
3579,-0.3,0.11,
3580,-0.33,0.13,
3581,-0.355,0.16,
3582,-0.39,0.155,
3583,-0.41,0.14,
3584,-0.445,0.14,
3585,-0.45,0.13,
3586,-0.45,0.145,
3587,-0.445,0.15,
3588,-0.46,0.15,
3589,-0.455,0.145,
3590,-0.465,0.125,
3591,-0.47,0.125,
3592,-0.445,0.15,
3593,-0.435,0.155,
3594,-0.435,0.15,
3595,-0.43,0.15,
3596,-0.445,0.135,
3597,-0.435,0.135,
3598,-0.435,0.135,
3599,-0.415,0.145,
3600,-0.4,0.15,
3601,-0.405,0.135,
3602,-0.42,0.135,
3603,-0.435,0.145,
3604,-0.425,0.14,
3605,-0.42,0.145,
3606,-0.43,0.14,
3607,-0.435,0.145,
3608,-0.45,0.135,
3609,-0.45,0.145,
3610,-0.435,0.145,
3611,-0.425,0.165,
3612,-0.415,0.165,
3613,-0.425,0.155,
3614,-0.445,0.125,
3615,-0.46,0.13,
3616,-0.455,0.15,
3617,-0.43,0.155,
3618,-0.43,0.16,
3619,-0.43,0.155,
3620,-0.435,0.145,
3621,-0.445,0.155,
3622,-0.44,0.16,
3623,-0.425,0.18,
3624,-0.425,0.165,
3625,-0.44,0.17,
3626,-0.435,0.16,
3627,-0.455,0.165,
3628,-0.445,0.17,
3629,-0.435,0.195,
3630,-0.43,0.195,
3631,-0.43,0.185,
3632,-0.42,0.165,
3633,-0.43,0.16,
3634,-0.425,0.175,
3635,-0.425,0.195,
3636,-0.41,0.185,
3637,-0.405,0.175,
3638,-0.4,0.175,
3639,-0.395,0.17,
3640,-0.385,0.175,
3641,-0.355,0.185,
3642,-0.36,0.185,
3643,-0.34,0.18,
3644,-0.34,0.17,
3645,-0.34,0.165,
3646,-0.33,0.175,
3647,-0.31,0.19,
3648,-0.3,0.175,
3649,-0.29,0.17,
3650,-0.285,0.16,
3651,-0.28,0.17,
3652,-0.25,0.185,
3653,-0.235,0.19,
3654,-0.2,0.195,
3655,-0.19,0.175,
3656,-0.19,0.17,
3657,-0.185,0.165,
3658,-0.165,0.16,
3659,-0.155,0.16,
3660,-0.13,0.16,
3661,-0.12,0.155,
3662,-0.125,0.15,
3663,-0.125,0.155,
3664,-0.115,0.15,
3665,-0.115,0.16,
3666,-0.11,0.145,
3667,-0.105,0.14,
3668,-0.115,0.13,
3669,-0.125,0.13,
3670,-0.14,0.135,
3671,-0.135,0.145,
3672,-0.135,0.14,
3673,-0.16,0.125,
3674,-0.175,0.115,
3675,-0.175,0.11,
3676,-0.165,0.13,
3677,-0.17,0.125,
3678,-0.18,0.125,
3679,-0.175,0.125,
3680,-0.195,0.13,
3681,-0.21,0.115,
3682,-0.2,0.125,
3683,-0.195,0.125,
3684,-0.195,0.125,
3685,-0.205,0.125,
3686,-0.21,0.11,
3687,-0.23,0.11,
3688,-0.225,0.12,
3689,-0.22,0.135,
3690,-0.21,0.125,
3691,-0.22,0.12,
3692,-0.23,0.115,
3693,-0.255,0.11,
3694,-0.23,0.115,
3695,-0.23,0.13,
3696,-0.22,0.115,
3697,-0.225,0.13,
3698,-0.23,0.11,
3699,-0.245,0.1,
3700,-0.245,0.105,
3701,-0.245,0.115,
3702,-0.235,0.12,
3703,-0.24,0.105,
3704,-0.24,0.095,
3705,-0.235,0.085,
3706,-0.245,0.105,
3707,-0.23,0.115,
3708,-0.225,0.12,
3709,-0.225,0.095,
3710,-0.24,0.085,
3711,-0.25,0.08,
3712,-0.23,0.085,
3713,-0.23,0.095,
3714,-0.215,0.095,
3715,-0.24,0.08,
3716,-0.245,0.08,
3717,-0.245,0.085,
3718,-0.225,0.08,
3719,-0.225,0.09,
3720,-0.225,0.075,
3721,-0.225,0.075,
3722,-0.235,0.07,
3723,-0.24,0.075,
3724,-0.23,0.085,
3725,-0.23,0.095,
3726,-0.22,0.09,
3727,-0.225,0.075,
3728,-0.23,0.06,
3729,-0.255,0.065,
3730,-0.24,0.08,
3731,-0.24,0.08,
3732,-0.235,0.085,
3733,-0.235,0.085,
3734,-0.245,0.065,
3735,-0.26,0.07,
3736,-0.24,0.07,
3737,-0.225,0.08,
3738,-0.225,0.075,
3739,-0.23,0.065,
3740,-0.26,0.07,
3741,-0.235,0.065,
3742,-0.24,0.075,
3743,-0.235,0.08,
3744,-0.24,0.075,
3745,-0.24,0.075,
3746,-0.225,0.05,
3747,-0.23,0.065,
3748,-0.23,0.075,
3749,-0.215,0.08,
3750,-0.23,0.095,
3751,-0.23,0.075,
3752,-0.24,0.065,
3753,-0.25,0.06,
3754,-0.235,0.065,
3755,-0.235,0.08,
3756,-0.225,0.09,
3757,-0.225,0.09,
3758,-0.23,0.105,
3759,-0.23,0.13,
3760,-0.21,0.145,
3761,-0.215,0.175,
3762,-0.165,0.16,
3763,-0.16,0.165,
3764,-0.13,0.145,
3765,-0.14,0.145,
3766,-0.14,0.16,
3767,-0.16,0.165,
3768,-0.145,0.145,
3769,-0.13,0.12,
3770,-0.115,0.105,
3771,-0.115,0.095,
3772,-0.09,0.1,
3773,-0.075,0.11,
3774,-0.06,0.1,
3775,-0.06,0.095,
3776,-0.055,0.08,
3777,-0.055,0.065,
3778,-0.04,0.06,
3779,-0.025,0.075,
3780,-0.035,0.07,
3781,-0.055,0.065,
3782,-0.07,0.06,
3783,-0.09,0.06,
3784,-0.095,0.065,
3785,-0.1,0.06,
3786,-0.12,0.05,
3787,-0.16,0.04,
3788,-0.225,0.035,
3789,-0.285,0.025,
3790,-0.3,0.03,
3791,-0.3,0.045,
3792,-0.29,0.05,
3793,-0.29,0.03,
3794,-0.3,0.025,
3795,-0.315,0.025,
3796,-0.335,0.03,
3797,-0.32,0.02,
3798,-0.32,0.03,
3799,-0.305,0.015,
3800,-0.31,0.025,
3801,-0.325,0.015,
3802,-0.305,0.025,
3803,-0.3,0.04,
3804,-0.3,0.035,
3805,-0.305,0.035,
3806,-0.31,0.015,
3807,-0.32,0.01,
3808,-0.315,0.04,
3809,-0.3,0.045,
3810,-0.28,0.035,
3811,-0.28,0.03,
3812,-0.29,0.025,
3813,-0.295,0.03,
3814,-0.295,0.035,
3815,-0.285,0.03,
3816,-0.255,0.02,
3817,-0.27,0.0,
3818,-0.275,-0.02,
3819,-0.29,-0.025,
3820,-0.275,-0.025,
3821,-0.27,-0.02,
3822,-0.275,-0.03,
3823,-0.265,-0.075,
3824,-0.23,-0.13,
3825,-0.155,-0.18,
3826,-0.015,-0.23,
3827,0.15,-0.315,
3828,0.335,-0.395,
3829,0.52,-0.46,
3830,0.705,-0.495,
3831,0.875,-0.47,
3832,1.035,-0.4,
3833,1.145,-0.33,
3834,1.22,-0.3,
3835,1.235,-0.31,N
3836,1.165,-0.315,
3837,1.035,-0.285,
3838,0.935,-0.225,
3839,0.865,-0.18,
3840,0.79,-0.16,
3841,0.69,-0.13,
3842,0.56,-0.1,
3843,0.395,-0.07,
3844,0.265,-0.04,
3845,0.195,0.0,
3846,0.145,0.01,
3847,0.06,0.01,
3848,-0.045,0.025,
3849,-0.125,0.035,
3850,-0.18,0.045,
3851,-0.23,0.09,
3852,-0.28,0.095,
3853,-0.33,0.11,
3854,-0.38,0.095,
3855,-0.42,0.095,
3856,-0.42,0.105,
3857,-0.435,0.12,
3858,-0.45,0.115,
3859,-0.465,0.1,
3860,-0.48,0.09,
3861,-0.485,0.09,
3862,-0.475,0.095,
3863,-0.46,0.115,
3864,-0.465,0.11,
3865,-0.475,0.105,
3866,-0.475,0.085,
3867,-0.48,0.09,
3868,-0.465,0.1,
3869,-0.445,0.11,
3870,-0.445,0.11,
3871,-0.445,0.11,
3872,-0.455,0.1,
3873,-0.465,0.1,
3874,-0.46,0.12,
3875,-0.445,0.125,
3876,-0.435,0.12,
3877,-0.455,0.11,
3878,-0.46,0.105,
3879,-0.47,0.11,
3880,-0.46,0.12,
3881,-0.445,0.145,
3882,-0.445,0.135,
3883,-0.435,0.13,
3884,-0.445,0.115,
3885,-0.455,0.115,
3886,-0.46,0.12,
3887,-0.445,0.13,
3888,-0.44,0.13,
3889,-0.445,0.12,
3890,-0.445,0.13,
3891,-0.455,0.125,
3892,-0.465,0.13,
3893,-0.46,0.135,
3894,-0.45,0.14,
3895,-0.45,0.14,
3896,-0.465,0.13,
3897,-0.47,0.14,
3898,-0.45,0.15,
3899,-0.46,0.16,
3900,-0.455,0.16,
3901,-0.46,0.15,
3902,-0.46,0.14,
3903,-0.465,0.15,
3904,-0.465,0.16,
3905,-0.445,0.165,
3906,-0.44,0.17,
3907,-0.44,0.16,
3908,-0.445,0.16,
3909,-0.445,0.155,
3910,-0.445,0.16,
3911,-0.425,0.175,
3912,-0.415,0.16,
3913,-0.41,0.16,
3914,-0.41,0.145,
3915,-0.415,0.16,
3916,-0.38,0.17,
3917,-0.36,0.185,
3918,-0.35,0.175,
3919,-0.33,0.16,
3920,-0.32,0.155,
3921,-0.32,0.16,
3922,-0.3,0.175,
3923,-0.275,0.195,
3924,-0.255,0.17,
3925,-0.245,0.16,
3926,-0.24,0.16,
3927,-0.235,0.15,
3928,-0.23,0.16,
3929,-0.215,0.17,
3930,-0.19,0.155,
3931,-0.175,0.145,
3932,-0.175,0.14,
3933,-0.16,0.135,
3934,-0.145,0.14,
3935,-0.13,0.135,
3936,-0.115,0.135,
3937,-0.12,0.12,
3938,-0.125,0.115,
3939,-0.14,0.12,
3940,-0.13,0.125,
3941,-0.135,0.125,
3942,-0.14,0.115,
3943,-0.14,0.1,
3944,-0.155,0.095,
3945,-0.17,0.1,
3946,-0.17,0.105,
3947,-0.165,0.11,
3948,-0.175,0.12,
3949,-0.185,0.11,
3950,-0.2,0.1,
3951,-0.205,0.09,
3952,-0.205,0.1,
3953,-0.205,0.11,
3954,-0.21,0.115,
3955,-0.22,0.095,
3956,-0.24,0.1,
3957,-0.255,0.11,
3958,-0.25,0.115,
3959,-0.24,0.12,
3960,-0.245,0.115,
3961,-0.245,0.095,
3962,-0.245,0.105,
3963,-0.265,0.105,
3964,-0.255,0.11,
3965,-0.25,0.12,
3966,-0.245,0.11,
3967,-0.25,0.11,
3968,-0.255,0.1,
3969,-0.275,0.11,
3970,-0.265,0.11,
3971,-0.27,0.125,
3972,-0.285,0.11,
3973,-0.265,0.1,
3974,-0.27,0.095,
3975,-0.28,0.095,
3976,-0.275,0.095,
3977,-0.275,0.115,
3978,-0.26,0.095,
3979,-0.27,0.095,
3980,-0.275,0.085,
3981,-0.29,0.085,
3982,-0.27,0.09,
3983,-0.275,0.1,
3984,-0.27,0.085,
3985,-0.275,0.075,
3986,-0.28,0.075,
3987,-0.28,0.06,
3988,-0.285,0.075,
3989,-0.27,0.08,
3990,-0.27,0.085,
3991,-0.265,0.075,
3992,-0.275,0.07,
3993,-0.295,0.07,
3994,-0.27,0.075,
3995,-0.26,0.08,
3996,-0.26,0.075,
3997,-0.265,0.07,
3998,-0.275,0.065,
3999,-0.295,0.07,
4000,-0.28,0.075,
4001,-0.26,0.085,
4002,-0.25,0.075,
4003,-0.265,0.06,
4004,-0.27,0.05,
4005,-0.285,0.055,
4006,-0.285,0.07,
4007,-0.275,0.085,
4008,-0.255,0.085,
4009,-0.265,0.07,
4010,-0.275,0.06,
4011,-0.285,0.065,
4012,-0.29,0.07,
4013,-0.28,0.08,
4014,-0.275,0.08,
4015,-0.27,0.07,
4016,-0.265,0.065,
4017,-0.28,0.065,
4018,-0.27,0.07,
4019,-0.26,0.08,
4020,-0.265,0.075,
4021,-0.26,0.065,
4022,-0.25,0.065,
4023,-0.26,0.07,
4024,-0.265,0.095,
4025,-0.255,0.11,
4026,-0.255,0.13,
4027,-0.235,0.135,
4028,-0.22,0.145,
4029,-0.21,0.16,
4030,-0.175,0.175,
4031,-0.15,0.18,
4032,-0.15,0.17,
4033,-0.17,0.16,
4034,-0.175,0.165,
4035,-0.205,0.155,
4036,-0.195,0.15,
4037,-0.17,0.145,
4038,-0.135,0.125,
4039,-0.115,0.115,
4040,-0.12,0.105,
4041,-0.1,0.115,
4042,-0.1,0.13,
4043,-0.08,0.13,
4044,-0.06,0.095,
4045,-0.06,0.085,
4046,-0.07,0.085,
4047,-0.09,0.085,
4048,-0.095,0.1,
4049,-0.09,0.1,
4050,-0.09,0.1,
4051,-0.105,0.08,
4052,-0.13,0.055,
4053,-0.165,0.045,
4054,-0.2,0.05,
4055,-0.24,0.06,
4056,-0.275,0.07,
4057,-0.315,0.06,
4058,-0.33,0.055,
4059,-0.34,0.05,
4060,-0.335,0.06,
4061,-0.325,0.05,
4062,-0.33,0.05,
4063,-0.325,0.04,
4064,-0.345,0.04,
4065,-0.355,0.025,
4066,-0.33,0.04,
4067,-0.325,0.055,
4068,-0.32,0.06,
4069,-0.325,0.03,
4070,-0.315,0.045,
4071,-0.335,0.03,
4072,-0.325,0.04,
4073,-0.315,0.065,
4074,-0.325,0.065,
4075,-0.32,0.04,
4076,-0.32,0.035,
4077,-0.32,0.045,
4078,-0.31,0.04,
4079,-0.295,0.055,
4080,-0.3,0.05,
4081,-0.3,0.03,
4082,-0.295,0.015,
4083,-0.315,0.02,
4084,-0.3,0.03,
4085,-0.285,0.035,
4086,-0.28,0.02,
4087,-0.29,0.005,
4088,-0.31,-0.01,
4089,-0.3,-0.04,
4090,-0.255,-0.07,
4091,-0.16,-0.105,
4092,-0.03,-0.17,
4093,0.115,-0.255,
4094,0.29,-0.345,
4095,0.47,-0.41,
4096,0.65,-0.46,
4097,0.81,-0.46,
4098,0.945,-0.445,
4099,1.03,-0.4,
4100,1.105,-0.345,
4101,1.17,-0.3,
4102,1.23,-0.275,N
4103,1.16,-0.24,
4104,1.04,-0.21,
4105,0.9,-0.175,
4106,0.78,-0.155,
4107,0.645,-0.115,
4108,0.515,-0.05,
4109,0.375,-0.005,
4110,0.255,0.0,
4111,0.175,0.03,
4112,0.1,0.035,
4113,0.01,0.05,
4114,-0.08,0.065,
4115,-0.15,0.085,
4116,-0.215,0.095,
4117,-0.275,0.1,
4118,-0.33,0.11,
4119,-0.38,0.125,
4120,-0.42,0.15,
4121,-0.43,0.155,
4122,-0.44,0.14,
4123,-0.465,0.125,
4124,-0.485,0.12,
4125,-0.5,0.105,
4126,-0.525,0.125,
4127,-0.52,0.14,
4128,-0.51,0.14,
4129,-0.5,0.14,
4130,-0.515,0.13,
4131,-0.525,0.13,
4132,-0.525,0.125,
4133,-0.51,0.15,
4134,-0.5,0.14,
4135,-0.49,0.15,
4136,-0.495,0.135,
4137,-0.505,0.13,
4138,-0.5,0.16,
4139,-0.49,0.165,
4140,-0.48,0.15,
4141,-0.49,0.165,
4142,-0.5,0.14,
4143,-0.49,0.14,
4144,-0.49,0.17,
4145,-0.485,0.18,
4146,-0.48,0.16,
4147,-0.49,0.17,
4148,-0.48,0.16,
4149,-0.495,0.15,
4150,-0.495,0.155,
4151,-0.485,0.17,
4152,-0.48,0.175,
4153,-0.48,0.17,
4154,-0.48,0.165,
4155,-0.505,0.165,
4156,-0.51,0.185,
4157,-0.495,0.195,
4158,-0.485,0.18,
4159,-0.485,0.18,
4160,-0.495,0.16,
4161,-0.51,0.17,
4162,-0.52,0.19,
4163,-0.495,0.21,
4164,-0.5,0.205,
4165,-0.485,0.19,
4166,-0.49,0.18,
4167,-0.495,0.17,
4168,-0.5,0.18,
4169,-0.485,0.195,
4170,-0.485,0.2,
4171,-0.49,0.19,
4172,-0.5,0.19,
4173,-0.495,0.195,
4174,-0.48,0.21,
4175,-0.48,0.205,
4176,-0.475,0.195,
4177,-0.475,0.185,
4178,-0.475,0.18,
4179,-0.485,0.19,
4180,-0.46,0.22,
4181,-0.445,0.215,
4182,-0.425,0.21,
4183,-0.43,0.21,
4184,-0.425,0.185,
4185,-0.42,0.195,
4186,-0.395,0.2,
4187,-0.38,0.21,
4188,-0.375,0.2,
4189,-0.365,0.21,
4190,-0.36,0.21,
4191,-0.355,0.195,
4192,-0.335,0.2,
4193,-0.305,0.21,
4194,-0.285,0.21,
4195,-0.275,0.2,
4196,-0.265,0.195,
4197,-0.255,0.19,
4198,-0.24,0.195,
4199,-0.215,0.195,
4200,-0.195,0.185,
4201,-0.18,0.185,
4202,-0.175,0.175,
4203,-0.195,0.17,
4204,-0.18,0.155,
4205,-0.18,0.18,
4206,-0.155,0.175,
4207,-0.155,0.18,
4208,-0.165,0.155,
4209,-0.18,0.155,
4210,-0.18,0.17,
4211,-0.2,0.185,
4212,-0.21,0.155,
4213,-0.22,0.16,
4214,-0.22,0.14,
4215,-0.23,0.15,
4216,-0.225,0.16,
4217,-0.235,0.16,
4218,-0.25,0.15,
4219,-0.26,0.145,
4220,-0.27,0.135,
4221,-0.28,0.14,
4222,-0.27,0.15,
4223,-0.27,0.175,
4224,-0.27,0.165,
4225,-0.28,0.155,
4226,-0.3,0.14,
4227,-0.31,0.145,
4228,-0.305,0.155,
4229,-0.285,0.155,
4230,-0.29,0.16,
4231,-0.3,0.16,
4232,-0.33,0.15,
4233,-0.34,0.145,
4234,-0.33,0.155,
4235,-0.31,0.165,
4236,-0.3,0.15,
4237,-0.31,0.15,
4238,-0.32,0.145,
4239,-0.335,0.125,
4240,-0.33,0.14,
4241,-0.32,0.16,
4242,-0.325,0.145,
4243,-0.33,0.135,
4244,-0.33,0.12,
4245,-0.355,0.12,
4246,-0.345,0.14,
4247,-0.345,0.15,
4248,-0.345,0.145,
4249,-0.335,0.135,
4250,-0.345,0.125,
4251,-0.35,0.125,
4252,-0.345,0.13,
4253,-0.335,0.135,
4254,-0.33,0.14,
4255,-0.335,0.13,
4256,-0.34,0.125,
4257,-0.34,0.135,
4258,-0.335,0.14,
4259,-0.345,0.135,
4260,-0.33,0.135,
4261,-0.34,0.12,
4262,-0.355,0.105,
4263,-0.355,0.12,
4264,-0.345,0.12,
4265,-0.33,0.135,
4266,-0.345,0.135,
4267,-0.335,0.125,
4268,-0.335,0.11,
4269,-0.34,0.115,
4270,-0.345,0.125,
4271,-0.335,0.14,
4272,-0.325,0.13,
4273,-0.33,0.125,
4274,-0.335,0.11,
4275,-0.35,0.11,
4276,-0.34,0.115,
4277,-0.335,0.125,
4278,-0.315,0.13,
4279,-0.31,0.12,
4280,-0.335,0.11,
4281,-0.345,0.105,
4282,-0.34,0.12,
4283,-0.335,0.125,
4284,-0.335,0.125,
4285,-0.335,0.12,
4286,-0.345,0.105,
4287,-0.355,0.105,
4288,-0.34,0.115,
4289,-0.33,0.13,
4290,-0.32,0.13,
4291,-0.325,0.13,
4292,-0.33,0.12,
4293,-0.34,0.12,
4294,-0.335,0.13,
4295,-0.33,0.15,
4296,-0.325,0.165,
4297,-0.325,0.185,
4298,-0.325,0.19,
4299,-0.305,0.185,
4300,-0.285,0.205,
4301,-0.25,0.22,
4302,-0.24,0.2,
4303,-0.24,0.185,
4304,-0.25,0.165,
4305,-0.26,0.165,
4306,-0.24,0.17,
4307,-0.205,0.18,
4308,-0.18,0.16,
4309,-0.175,0.15,
4310,-0.175,0.155,
4311,-0.18,0.145,
4312,-0.16,0.15,
4313,-0.145,0.17,
4314,-0.135,0.135,
4315,-0.13,0.13,
4316,-0.135,0.125,
4317,-0.15,0.115,
4318,-0.16,0.14,
4319,-0.17,0.14,
4320,-0.16,0.115,
4321,-0.165,0.115,
4322,-0.18,0.1,
4323,-0.23,0.09,
4324,-0.27,0.105,
4325,-0.315,0.11,
4326,-0.355,0.11,
4327,-0.365,0.11,
4328,-0.39,0.085,
4329,-0.405,0.09,
4330,-0.395,0.085,
4331,-0.39,0.09,
4332,-0.395,0.09,
4333,-0.39,0.075,
4334,-0.39,0.08,
4335,-0.4,0.08,
4336,-0.39,0.085,
4337,-0.385,0.1,
4338,-0.38,0.095,
4339,-0.375,0.07,
4340,-0.395,0.075,
4341,-0.405,0.085,
4342,-0.39,0.09,
4343,-0.38,0.1,
4344,-0.36,0.085,
4345,-0.365,0.07,
4346,-0.365,0.06,
4347,-0.38,0.07,
4348,-0.37,0.08,
4349,-0.36,0.08,
4350,-0.345,0.075,
4351,-0.345,0.07,
4352,-0.35,0.05,
4353,-0.365,0.03,
4354,-0.35,0.03,
4355,-0.355,0.04,
4356,-0.35,0.03,
4357,-0.355,0.04,
4358,-0.36,0.035,
4359,-0.35,0.03,
4360,-0.285,0.01,
4361,-0.185,-0.025,
4362,-0.03,-0.11,
4363,0.16,-0.195,
4364,0.33,-0.285,
4365,0.515,-0.355,
4366,0.715,-0.355,
4367,0.9,-0.315,
4368,1.04,-0.245,
4369,1.135,-0.19,
4370,1.175,-0.185,
4371,1.125,-0.19,N
4372,1.0,-0.2,
4373,0.875,-0.145,
4374,0.785,-0.115,
4375,0.695,-0.1,
4376,0.63,-0.08,
4377,0.495,-0.045,
4378,0.33,-0.005,
4379,0.18,0.035,
4380,0.095,0.035,
4381,0.02,0.035,
4382,-0.065,0.05,
4383,-0.17,0.075,
4384,-0.25,0.105,
4385,-0.31,0.12,
4386,-0.345,0.135,
4387,-0.41,0.14,
4388,-0.465,0.135,
4389,-0.51,0.125,
4390,-0.51,0.13,
4391,-0.51,0.145,
4392,-0.515,0.14,
4393,-0.535,0.145,
4394,-0.55,0.135,
4395,-0.565,0.135,
4396,-0.565,0.135,
4397,-0.545,0.155,
4398,-0.54,0.14,
4399,-0.54,0.14,
4400,-0.545,0.14,
4401,-0.56,0.145,
4402,-0.545,0.15,
4403,-0.535,0.16,
4404,-0.505,0.15,
4405,-0.515,0.15,
4406,-0.525,0.13,
4407,-0.53,0.13,
4408,-0.535,0.15,
4409,-0.52,0.16,
4410,-0.515,0.165,
4411,-0.505,0.155,
4412,-0.51,0.135,
4413,-0.515,0.14,
4414,-0.515,0.145,
4415,-0.51,0.16,
4416,-0.515,0.145,
4417,-0.52,0.145,
4418,-0.53,0.14,
4419,-0.53,0.14,
4420,-0.525,0.155,
4421,-0.525,0.155,
4422,-0.52,0.145,
4423,-0.535,0.13,
4424,-0.55,0.125,
4425,-0.55,0.13,
4426,-0.54,0.15,
4427,-0.52,0.16,
4428,-0.51,0.135,
4429,-0.52,0.135,
4430,-0.53,0.135,
4431,-0.535,0.14,
4432,-0.53,0.155,
4433,-0.525,0.165,
4434,-0.525,0.16,
4435,-0.52,0.165,
4436,-0.53,0.15,
4437,-0.535,0.15,
4438,-0.54,0.165,
4439,-0.53,0.16,
4440,-0.52,0.165,
4441,-0.51,0.165,
4442,-0.525,0.175,
4443,-0.53,0.17,
4444,-0.51,0.18,
4445,-0.5,0.19,
4446,-0.48,0.18,
4447,-0.48,0.18,
4448,-0.475,0.165,
4449,-0.465,0.17,
4450,-0.44,0.19,
4451,-0.425,0.195,
4452,-0.405,0.185,
4453,-0.39,0.165,
4454,-0.375,0.17,
4455,-0.38,0.165,
4456,-0.365,0.18,
4457,-0.355,0.19,
4458,-0.34,0.18,
4459,-0.33,0.175,
4460,-0.325,0.15,
4461,-0.305,0.155,
4462,-0.28,0.155,
4463,-0.255,0.165,
4464,-0.235,0.155,
4465,-0.215,0.15,
4466,-0.22,0.135,
4467,-0.23,0.15,
4468,-0.21,0.15,
4469,-0.21,0.155,
4470,-0.195,0.155,
4471,-0.205,0.135,
4472,-0.21,0.12,
4473,-0.215,0.12,
4474,-0.22,0.14,
4475,-0.225,0.145,
4476,-0.225,0.155,
4477,-0.24,0.13,
4478,-0.25,0.12,
4479,-0.25,0.13,
4480,-0.26,0.125,
4481,-0.265,0.145,
4482,-0.255,0.135,
4483,-0.27,0.125,
4484,-0.28,0.13,
4485,-0.285,0.135,
4486,-0.29,0.14,
4487,-0.285,0.145,
4488,-0.295,0.135,
4489,-0.29,0.14,
4490,-0.3,0.115,
4491,-0.31,0.12,
4492,-0.32,0.135,
4493,-0.295,0.155,
4494,-0.285,0.14,
4495,-0.29,0.13,
4496,-0.3,0.11,
4497,-0.32,0.115,
4498,-0.305,0.125,
4499,-0.3,0.13,
4500,-0.31,0.14,
4501,-0.31,0.125,
4502,-0.325,0.12,
4503,-0.325,0.115,
4504,-0.31,0.12,
4505,-0.315,0.135,
4506,-0.305,0.115,
4507,-0.31,0.115,
4508,-0.305,0.105,
4509,-0.315,0.105,
4510,-0.305,0.115,
4511,-0.315,0.125,
4512,-0.305,0.115,
4513,-0.305,0.095,
4514,-0.31,0.095,
4515,-0.315,0.085,
4516,-0.31,0.105,
4517,-0.31,0.12,
4518,-0.305,0.115,
4519,-0.31,0.1,
4520,-0.31,0.09,
4521,-0.31,0.095,
4522,-0.295,0.095,
4523,-0.285,0.11,
4524,-0.295,0.09,
4525,-0.295,0.09,
4526,-0.315,0.09,
4527,-0.325,0.08,
4528,-0.315,0.09,
4529,-0.295,0.09,
4530,-0.29,0.105,
4531,-0.295,0.075,
4532,-0.305,0.075,
4533,-0.315,0.075,
4534,-0.31,0.095,
4535,-0.305,0.1,
4536,-0.295,0.09,
4537,-0.295,0.09,
4538,-0.305,0.075,
4539,-0.325,0.075,
4540,-0.325,0.075,
4541,-0.32,0.095,
4542,-0.315,0.085,
4543,-0.305,0.085,
4544,-0.305,0.075,
4545,-0.32,0.08,
4546,-0.31,0.075,
4547,-0.295,0.09,
4548,-0.295,0.08,
4549,-0.29,0.08,
4550,-0.295,0.075,
4551,-0.305,0.075,
4552,-0.3,0.095,
4553,-0.29,0.105,
4554,-0.29,0.08,
4555,-0.29,0.08,
4556,-0.295,0.08,
4557,-0.32,0.07,
4558,-0.32,0.08,
4559,-0.295,0.11,
4560,-0.27,0.1,
4561,-0.285,0.12,
4562,-0.27,0.125,
4563,-0.27,0.125,
4564,-0.265,0.16,
4565,-0.235,0.165,
4566,-0.22,0.16,
4567,-0.195,0.15,
4568,-0.205,0.145,
4569,-0.215,0.135,
4570,-0.22,0.15,
4571,-0.195,0.165,
4572,-0.18,0.125,
4573,-0.16,0.11,
4574,-0.145,0.09,
4575,-0.14,0.1,
4576,-0.14,0.105,
4577,-0.115,0.1,
4578,-0.1,0.1,
4579,-0.08,0.075,
4580,-0.075,0.065,
4581,-0.095,0.055,
4582,-0.11,0.07,
4583,-0.11,0.09,
4584,-0.11,0.075,
4585,-0.11,0.065,
4586,-0.125,0.05,
4587,-0.125,0.05,
4588,-0.14,0.05,
4589,-0.17,0.045,
4590,-0.225,0.045,
4591,-0.27,0.035,
4592,-0.315,0.03,
4593,-0.345,0.04,
4594,-0.335,0.04,
4595,-0.34,0.06,
4596,-0.34,0.055,
4597,-0.365,0.035,
4598,-0.37,0.03,
4599,-0.375,0.02,
4600,-0.355,0.03,
4601,-0.335,0.05,
4602,-0.33,0.055,
4603,-0.34,0.035,
4604,-0.345,0.035,
4605,-0.355,0.03,
4606,-0.345,0.045,
4607,-0.34,0.055,
4608,-0.335,0.035,
4609,-0.33,0.03,
4610,-0.33,0.03,
4611,-0.33,0.035,
4612,-0.345,0.035,
4613,-0.32,0.055,
4614,-0.31,0.035,
4615,-0.315,0.01,
4616,-0.315,0.005,
4617,-0.32,-0.005,
4618,-0.315,0.0,
4619,-0.305,0.01,
4620,-0.325,0.005,
4621,-0.315,-0.01,
4622,-0.325,-0.03,
4623,-0.3,-0.05,
4624,-0.24,-0.085,
4625,-0.145,-0.105,
4626,-0.015,-0.145,
4627,0.12,-0.2,
4628,0.27,-0.3,
4629,0.395,-0.385,
4630,0.56,-0.45,
4631,0.725,-0.46,
4632,0.88,-0.43,
4633,1.02,-0.38,
4634,1.11,-0.325,
4635,1.165,-0.305,N
4636,1.145,-0.28,
4637,1.055,-0.225,
4638,0.91,-0.19,
4639,0.785,-0.17,
4640,0.675,-0.145,
4641,0.535,-0.115,
4642,0.395,-0.065,
4643,0.275,-0.035,
4644,0.195,-0.02,
4645,0.115,-0.015,
4646,0.02,0.0,
4647,-0.09,0.025,
4648,-0.175,0.035,
4649,-0.225,0.06,
4650,-0.27,0.065,
4651,-0.305,0.08,
4652,-0.345,0.085,
4653,-0.39,0.11,
4654,-0.425,0.115,
4655,-0.455,0.12,
4656,-0.47,0.11,
4657,-0.48,0.105,
4658,-0.515,0.095,
4659,-0.54,0.095,
4660,-0.53,0.1,
4661,-0.52,0.12,
4662,-0.52,0.11,
4663,-0.505,0.11,
4664,-0.525,0.11,
4665,-0.535,0.09,
4666,-0.52,0.115,
4667,-0.515,0.125,
4668,-0.495,0.125,
4669,-0.49,0.115,
4670,-0.495,0.11,
4671,-0.495,0.11,
4672,-0.495,0.115,
4673,-0.5,0.14,
4674,-0.5,0.13,
4675,-0.505,0.12,
4676,-0.51,0.115,
4677,-0.515,0.11,
4678,-0.515,0.115,
4679,-0.5,0.13,
4680,-0.49,0.125,
4681,-0.5,0.12,
4682,-0.505,0.115,
4683,-0.51,0.11,
4684,-0.515,0.115,
4685,-0.495,0.125,
4686,-0.51,0.125,
4687,-0.515,0.12,
4688,-0.515,0.125,
4689,-0.54,0.12,
4690,-0.525,0.135,
4691,-0.505,0.145,
4692,-0.5,0.135,
4693,-0.515,0.125,
4694,-0.515,0.115,
4695,-0.52,0.125,
4696,-0.515,0.135,
4697,-0.51,0.15,
4698,-0.49,0.15,
4699,-0.515,0.135,
4700,-0.515,0.14,
4701,-0.52,0.12,
4702,-0.515,0.135,
4703,-0.49,0.145,
4704,-0.495,0.155,
4705,-0.515,0.155,
4706,-0.505,0.145,
4707,-0.515,0.145,
4708,-0.5,0.145,
4709,-0.475,0.165,
4710,-0.47,0.15,
4711,-0.455,0.16,
4712,-0.455,0.14,
4713,-0.45,0.14,
4714,-0.445,0.165,
4715,-0.43,0.17,
4716,-0.415,0.165,
4717,-0.4,0.165,
4718,-0.385,0.155,
4719,-0.385,0.145,
4720,-0.375,0.16,
4721,-0.36,0.17,
4722,-0.335,0.17,
4723,-0.34,0.15,
4724,-0.315,0.14,
4725,-0.295,0.14,
4726,-0.28,0.15,
4727,-0.255,0.15,
4728,-0.23,0.145,
4729,-0.23,0.13,
4730,-0.22,0.12,
4731,-0.23,0.12,
4732,-0.19,0.12,
4733,-0.175,0.125,
4734,-0.17,0.11,
4735,-0.18,0.105,
4736,-0.185,0.09,
4737,-0.19,0.095,
4738,-0.18,0.11,
4739,-0.18,0.125,
4740,-0.17,0.115,
4741,-0.185,0.1,
4742,-0.195,0.085,
4743,-0.21,0.085,
4744,-0.215,0.1,
4745,-0.21,0.095,
4746,-0.22,0.1,
4747,-0.23,0.09,
4748,-0.245,0.085,
4749,-0.26,0.075,
4750,-0.26,0.09,
4751,-0.26,0.095,
4752,-0.255,0.105,
4753,-0.26,0.095,
4754,-0.265,0.085,
4755,-0.285,0.095,
4756,-0.28,0.105,
4757,-0.275,0.105,
4758,-0.265,0.095,
4759,-0.275,0.08,
4760,-0.28,0.085,
4761,-0.295,0.085,
4762,-0.29,0.115,
4763,-0.29,0.105,
4764,-0.285,0.1,
4765,-0.3,0.095,
4766,-0.31,0.095,
4767,-0.31,0.075,
4768,-0.305,0.09,
4769,-0.285,0.105,
4770,-0.29,0.105,
4771,-0.29,0.085,
4772,-0.305,0.08,
4773,-0.305,0.075,
4774,-0.305,0.08,
4775,-0.295,0.095,
4776,-0.305,0.085,
4777,-0.32,0.08,
4778,-0.315,0.065,
4779,-0.315,0.06,
4780,-0.31,0.075,
4781,-0.315,0.08,
4782,-0.3,0.07,
4783,-0.3,0.06,
4784,-0.315,0.05,
4785,-0.315,0.055,
4786,-0.315,0.065,
4787,-0.305,0.075,
4788,-0.3,0.065,
4789,-0.3,0.05,
4790,-0.315,0.055,
4791,-0.325,0.05,
4792,-0.32,0.055,
4793,-0.305,0.075,
4794,-0.31,0.065,
4795,-0.29,0.06,
4796,-0.3,0.06,
4797,-0.3,0.06,
4798,-0.29,0.07,
4799,-0.29,0.075,
4800,-0.285,0.06,
4801,-0.29,0.06,
4802,-0.29,0.05,
4803,-0.3,0.045,
4804,-0.31,0.055,
4805,-0.305,0.07,
4806,-0.305,0.055,
4807,-0.285,0.06,
4808,-0.31,0.05,
4809,-0.305,0.045,
4810,-0.295,0.055,
4811,-0.29,0.065,
4812,-0.285,0.07,
4813,-0.31,0.055,
4814,-0.295,0.055,
4815,-0.305,0.05,
4816,-0.295,0.06,
4817,-0.31,0.07,
4818,-0.3,0.065,
4819,-0.295,0.065,
4820,-0.3,0.05,
4821,-0.305,0.06,
4822,-0.285,0.075,
4823,-0.27,0.085,
4824,-0.27,0.085,
4825,-0.27,0.095,
4826,-0.285,0.1,
4827,-0.295,0.115,
4828,-0.265,0.145,
4829,-0.24,0.165,
4830,-0.205,0.155,
4831,-0.185,0.135,
4832,-0.18,0.135,
4833,-0.195,0.13,
4834,-0.21,0.13,
4835,-0.195,0.13,
4836,-0.17,0.115,
4837,-0.155,0.09,
4838,-0.15,0.08,
4839,-0.135,0.09,
4840,-0.13,0.105,
4841,-0.11,0.115,
4842,-0.1,0.09,
4843,-0.09,0.08,
4844,-0.08,0.065,
4845,-0.095,0.055,
4846,-0.1,0.07,
4847,-0.095,0.075,
4848,-0.095,0.085,
4849,-0.11,0.08,
4850,-0.125,0.055,
4851,-0.135,0.06,
4852,-0.15,0.06,
4853,-0.17,0.045,
4854,-0.2,0.05,
4855,-0.26,0.035,
4856,-0.3,0.035,
4857,-0.34,0.03,
4858,-0.35,0.035,
4859,-0.35,0.04,
4860,-0.35,0.02,
4861,-0.355,0.025,
4862,-0.365,0.02,
4863,-0.365,0.035,
4864,-0.35,0.045,
4865,-0.34,0.04,
4866,-0.33,0.05,
4867,-0.335,0.04,
4868,-0.34,0.035,
4869,-0.345,0.025,
4870,-0.34,0.025,
4871,-0.335,0.04,
4872,-0.32,0.035,
4873,-0.33,0.03,
4874,-0.335,0.04,
4875,-0.35,0.035,
4876,-0.34,0.035,
4877,-0.32,0.05,
4878,-0.31,0.035,
4879,-0.305,0.02,
4880,-0.31,0.01,
4881,-0.325,0.005,
4882,-0.325,0.01,
4883,-0.315,0.015,
4884,-0.31,0.005,
4885,-0.32,0.005,
4886,-0.34,-0.01,
4887,-0.365,-0.015,
4888,-0.335,-0.03,
4889,-0.285,-0.045,
4890,-0.215,-0.1,
4891,-0.15,-0.165,
4892,-0.025,-0.255,
4893,0.115,-0.34,
4894,0.305,-0.41,
4895,0.505,-0.455,
4896,0.695,-0.47,
4897,0.87,-0.43,
4898,1.015,-0.37,
4899,1.125,-0.32,
4900,1.205,-0.285,
4901,1.175,-0.25,N
4902,1.05,-0.205,
4903,0.905,-0.18,
4904,0.755,-0.16,
4905,0.645,-0.135,
4906,0.525,-0.085,
4907,0.375,-0.025,
4908,0.26,-0.01,
4909,0.18,0.0,
4910,0.11,0.0,
4911,0.045,0.015,
4912,-0.045,0.04,
4913,-0.11,0.07,
4914,-0.16,0.07,
4915,-0.215,0.095,
4916,-0.275,0.1,
4917,-0.35,0.115,
4918,-0.4,0.135,
4919,-0.425,0.13,
4920,-0.445,0.115,
4921,-0.46,0.11,
4922,-0.48,0.11,
4923,-0.505,0.105,
4924,-0.5,0.115,
4925,-0.49,0.12,
4926,-0.495,0.11,
4927,-0.495,0.105,
4928,-0.5,0.1,
4929,-0.505,0.095,
4930,-0.49,0.135,
4931,-0.48,0.145,
4932,-0.475,0.135,
4933,-0.48,0.115,
4934,-0.495,0.11,
4935,-0.505,0.125,
4936,-0.5,0.12,
4937,-0.485,0.13,
4938,-0.47,0.145,
4939,-0.475,0.14,
4940,-0.485,0.135,
4941,-0.495,0.13,
4942,-0.49,0.145,
4943,-0.48,0.145,
4944,-0.485,0.125,
4945,-0.485,0.12,
4946,-0.485,0.14,
4947,-0.5,0.13,
4948,-0.505,0.14,
4949,-0.49,0.145,
4950,-0.485,0.14,
4951,-0.475,0.125,
4952,-0.485,0.13,
4953,-0.51,0.13,
4954,-0.495,0.135,
4955,-0.49,0.15,
4956,-0.49,0.16,
4957,-0.485,0.155,
4958,-0.49,0.15,
4959,-0.5,0.16,
4960,-0.5,0.155,
4961,-0.5,0.165,
4962,-0.495,0.17,
4963,-0.495,0.16,
4964,-0.5,0.155,
4965,-0.515,0.165,
4966,-0.5,0.17,
4967,-0.49,0.19,
4968,-0.48,0.18,
4969,-0.48,0.17,
4970,-0.47,0.15,
4971,-0.475,0.165,
4972,-0.465,0.175,
4973,-0.445,0.19,
4974,-0.44,0.175,
4975,-0.435,0.165,
4976,-0.44,0.16,
4977,-0.42,0.165,
4978,-0.41,0.18,
4979,-0.385,0.2,
4980,-0.365,0.195,
4981,-0.34,0.19,
4982,-0.345,0.17,
4983,-0.335,0.165,
4984,-0.315,0.165,
4985,-0.295,0.18,
4986,-0.275,0.18,
4987,-0.26,0.165,
4988,-0.25,0.155,
4989,-0.24,0.15,
4990,-0.205,0.155,
4991,-0.19,0.165,
4992,-0.17,0.165,
4993,-0.17,0.155,
4994,-0.18,0.13,
4995,-0.195,0.135,
4996,-0.19,0.14,
4997,-0.175,0.15,
4998,-0.165,0.145,
4999,-0.17,0.13,
5000,-0.185,0.12,
5001,-0.2,0.11,
5002,-0.2,0.115,
5003,-0.2,0.125,
5004,-0.195,0.13,
5005,-0.205,0.105,
5006,-0.23,0.1,
5007,-0.245,0.11,
5008,-0.255,0.11,
5009,-0.24,0.13,
5010,-0.24,0.11,
5011,-0.255,0.1,
5012,-0.265,0.095,
5013,-0.28,0.1,
5014,-0.285,0.12,
5015,-0.275,0.13,
5016,-0.27,0.11,
5017,-0.27,0.105,
5018,-0.28,0.1,
5019,-0.295,0.1,
5020,-0.3,0.105,
5021,-0.3,0.12,
5022,-0.3,0.115,
5023,-0.305,0.09,
5024,-0.315,0.095,
5025,-0.315,0.085,
5026,-0.32,0.105,
5027,-0.315,0.13,
5028,-0.31,0.125,
5029,-0.315,0.105,
5030,-0.33,0.11,
5031,-0.325,0.1,
5032,-0.325,0.1,
5033,-0.32,0.095,
5034,-0.315,0.09,
5035,-0.32,0.1,
5036,-0.32,0.09,
5037,-0.32,0.09,
5038,-0.325,0.1,
5039,-0.32,0.11,
5040,-0.325,0.095,
5041,-0.33,0.09,
5042,-0.335,0.075,
5043,-0.335,0.09,
5044,-0.315,0.1,
5045,-0.305,0.11,
5046,-0.305,0.105,
5047,-0.32,0.085,
5048,-0.33,0.075,
5049,-0.355,0.075,
5050,-0.345,0.1,
5051,-0.315,0.115,
5052,-0.305,0.095,
5053,-0.305,0.1,
5054,-0.325,0.08,
5055,-0.335,0.07,
5056,-0.335,0.095,
5057,-0.32,0.075,
5058,-0.32,0.08,
5059,-0.32,0.08,
5060,-0.33,0.08,
5061,-0.325,0.08,
5062,-0.33,0.085,
5063,-0.32,0.09,
5064,-0.31,0.085,
5065,-0.305,0.09,
5066,-0.315,0.08,
5067,-0.33,0.065,
5068,-0.325,0.075,
5069,-0.31,0.09,
5070,-0.315,0.095,
5071,-0.315,0.075,
5072,-0.315,0.075,
5073,-0.325,0.065,
5074,-0.32,0.08,
5075,-0.305,0.085,
5076,-0.29,0.095,
5077,-0.3,0.095,
5078,-0.29,0.08,
5079,-0.305,0.08,
5080,-0.3,0.09,
5081,-0.3,0.105,
5082,-0.3,0.095,
5083,-0.305,0.115,
5084,-0.305,0.13,
5085,-0.285,0.15,
5086,-0.25,0.155,
5087,-0.23,0.165,
5088,-0.215,0.155,
5089,-0.215,0.14,
5090,-0.23,0.135,
5091,-0.26,0.135,
5092,-0.235,0.135,
5093,-0.205,0.14,
5094,-0.185,0.13,
5095,-0.165,0.11,
5096,-0.165,0.095,
5097,-0.17,0.1,
5098,-0.135,0.1,
5099,-0.11,0.12,
5100,-0.095,0.1,
5101,-0.105,0.075,
5102,-0.115,0.075,
5103,-0.145,0.085,
5104,-0.15,0.085,
5105,-0.14,0.1,
5106,-0.15,0.09,
5107,-0.145,0.065,
5108,-0.17,0.045,
5109,-0.22,0.05,
5110,-0.26,0.065,
5111,-0.31,0.07,
5112,-0.34,0.06,
5113,-0.345,0.045,
5114,-0.37,0.04,
5115,-0.38,0.04,
5116,-0.375,0.05,
5117,-0.375,0.065,
5118,-0.37,0.045,
5119,-0.38,0.035,
5120,-0.375,0.045,
5121,-0.385,0.03,
5122,-0.365,0.05,
5123,-0.36,0.055,
5124,-0.345,0.05,
5125,-0.345,0.04,
5126,-0.345,0.035,
5127,-0.365,0.04,
5128,-0.365,0.03,
5129,-0.355,0.05,
5130,-0.34,0.045,
5131,-0.35,0.04,
5132,-0.345,0.035,
5133,-0.345,0.035,
5134,-0.325,0.045,
5135,-0.325,0.065,
5136,-0.32,0.03,
5137,-0.315,0.015,
5138,-0.315,-0.005,
5139,-0.325,-0.005,
5140,-0.32,0.015,
5141,-0.32,0.015,
5142,-0.31,0.025,
5143,-0.31,-0.005,
5144,-0.27,-0.04,
5145,-0.165,-0.105,
5146,-0.005,-0.16,
5147,0.175,-0.23,
5148,0.37,-0.325,
5149,0.565,-0.38,
5150,0.765,-0.395,
5151,0.92,-0.36,
5152,1.055,-0.29,
5153,1.155,-0.245,
5154,1.16,-0.26,N
5155,1.09,-0.27,
5156,0.935,-0.245,
5157,0.795,-0.2,
5158,0.725,-0.145,
5159,0.67,-0.125,
5160,0.585,-0.105,
5161,0.46,-0.075,
5162,0.28,-0.06,
5163,0.135,-0.025,
5164,0.05,-0.01,
5165,-0.005,0.015,
5166,-0.09,0.035,
5167,-0.175,0.04,
5168,-0.265,0.06,
5169,-0.325,0.065,
5170,-0.37,0.095,
5171,-0.41,0.1,
5172,-0.43,0.11,
5173,-0.455,0.105,
5174,-0.46,0.09,
5175,-0.485,0.095,
5176,-0.49,0.11,
5177,-0.495,0.12,
5178,-0.495,0.11,
5179,-0.5,0.095,
5180,-0.5,0.09,
5181,-0.51,0.1,
5182,-0.51,0.115,
5183,-0.505,0.13,
5184,-0.495,0.115,
5185,-0.495,0.115,
5186,-0.5,0.085,
5187,-0.505,0.105,
5188,-0.5,0.11,
5189,-0.485,0.12,
5190,-0.475,0.115,
5191,-0.47,0.11,
5192,-0.48,0.095,
5193,-0.48,0.1,
5194,-0.49,0.095,
5195,-0.485,0.1,
5196,-0.47,0.1,
5197,-0.465,0.095,
5198,-0.475,0.095,
5199,-0.5,0.115,
5200,-0.485,0.115,
5201,-0.475,0.11,
5202,-0.47,0.105,
5203,-0.48,0.09,
5204,-0.49,0.095,
5205,-0.49,0.09,
5206,-0.49,0.105,
5207,-0.49,0.12,
5208,-0.49,0.11,
5209,-0.48,0.11,
5210,-0.505,0.1,
5211,-0.51,0.11,
5212,-0.5,0.115,
5213,-0.5,0.125,
5214,-0.5,0.11,
5215,-0.515,0.11,
5216,-0.51,0.12,
5217,-0.51,0.12,
5218,-0.49,0.12,
5219,-0.475,0.13,
5220,-0.47,0.12,
5221,-0.48,0.11,
5222,-0.495,0.115,
5223,-0.5,0.115,
5224,-0.49,0.125,
5225,-0.47,0.15,
5226,-0.455,0.145,
5227,-0.46,0.13,
5228,-0.455,0.115,
5229,-0.465,0.12,
5230,-0.445,0.14,
5231,-0.43,0.155,
5232,-0.4,0.125,
5233,-0.4,0.125,
5234,-0.405,0.115,
5235,-0.41,0.105,
5236,-0.385,0.12,
5237,-0.36,0.125,
5238,-0.33,0.115,
5239,-0.32,0.115,
5240,-0.315,0.12,
5241,-0.315,0.12,
5242,-0.295,0.13,
5243,-0.28,0.135,
5244,-0.26,0.135,
5245,-0.25,0.115,
5246,-0.23,0.105,
5247,-0.225,0.105,
5248,-0.205,0.11,
5249,-0.195,0.105,
5250,-0.175,0.115,
5251,-0.175,0.09,
5252,-0.17,0.085,
5253,-0.185,0.08,
5254,-0.18,0.085,
5255,-0.175,0.095,
5256,-0.165,0.095,
5257,-0.18,0.095,
5258,-0.18,0.085,
5259,-0.2,0.07,
5260,-0.195,0.09,
5261,-0.195,0.1,
5262,-0.205,0.085,
5263,-0.22,0.085,
5264,-0.23,0.065,
5265,-0.245,0.065,
5266,-0.24,0.075,
5267,-0.23,0.085,
5268,-0.225,0.075,
5269,-0.245,0.075,
5270,-0.255,0.065,
5271,-0.255,0.075,
5272,-0.25,0.085,
5273,-0.255,0.095,
5274,-0.255,0.09,
5275,-0.275,0.08,
5276,-0.28,0.07,
5277,-0.285,0.06,
5278,-0.275,0.075,
5279,-0.265,0.075,
5280,-0.265,0.08,
5281,-0.275,0.075,
5282,-0.285,0.06,
5283,-0.295,0.07,
5284,-0.295,0.065,
5285,-0.295,0.085,
5286,-0.28,0.075,
5287,-0.285,0.05,
5288,-0.295,0.045,
5289,-0.31,0.045,
5290,-0.305,0.06,
5291,-0.285,0.055,
5292,-0.275,0.05,
5293,-0.29,0.055,
5294,-0.295,0.035,
5295,-0.295,0.035,
5296,-0.29,0.045,
5297,-0.29,0.05,
5298,-0.285,0.04,
5299,-0.275,0.03,
5300,-0.285,0.01,
5301,-0.29,0.015,
5302,-0.285,0.025,
5303,-0.275,0.035,
5304,-0.27,0.025,
5305,-0.27,0.035,
5306,-0.285,0.02,
5307,-0.3,0.025,
5308,-0.3,0.05,
5309,-0.285,0.045,
5310,-0.275,0.03,
5311,-0.29,0.025,
5312,-0.29,0.02,
5313,-0.305,0.015,
5314,-0.285,0.02,
5315,-0.29,0.03,
5316,-0.275,0.02,
5317,-0.285,0.025,
5318,-0.295,0.015,
5319,-0.305,0.0,
5320,-0.285,0.015,
5321,-0.275,0.03,
5322,-0.275,0.025,
5323,-0.27,0.02,
5324,-0.28,0.015,
5325,-0.295,0.015,
5326,-0.29,0.02,
5327,-0.275,0.03,
5328,-0.265,0.015,
5329,-0.27,0.015,
5330,-0.285,0.015,
5331,-0.29,0.0,
5332,-0.28,0.02,
5333,-0.265,0.035,
5334,-0.26,0.03,
5335,-0.26,0.02,
5336,-0.27,0.025,
5337,-0.275,0.035,
5338,-0.27,0.045,
5339,-0.25,0.085,
5340,-0.245,0.085,
5341,-0.24,0.09,
5342,-0.225,0.09,
5343,-0.215,0.085,
5344,-0.19,0.095,
5345,-0.175,0.1,
5346,-0.16,0.09,
5347,-0.17,0.08,
5348,-0.195,0.065,
5349,-0.195,0.06,
5350,-0.155,0.05,
5351,-0.115,0.07,
5352,-0.1,0.06,
5353,-0.08,0.05,
5354,-0.075,0.045,
5355,-0.08,0.025,
5356,-0.07,0.01,
5357,-0.06,0.03,
5358,-0.075,0.03,
5359,-0.085,0.045,
5360,-0.11,0.04,
5361,-0.135,0.02,
5362,-0.11,0.02,
5363,-0.115,0.025,
5364,-0.13,0.0,
5365,-0.185,-0.005,
5366,-0.245,-0.02,
5367,-0.3,-0.015,
5368,-0.33,0.005,
5369,-0.335,0.01,
5370,-0.325,-0.005,
5371,-0.335,-0.005,
5372,-0.335,-0.015,
5373,-0.335,-0.01,
5374,-0.33,-0.015,
5375,-0.315,0.005,
5376,-0.32,0.0,
5377,-0.32,-0.01,
5378,-0.32,-0.015,
5379,-0.325,-0.02,
5380,-0.32,-0.005,
5381,-0.305,0.0,
5382,-0.305,-0.01,
5383,-0.305,-0.005,
5384,-0.31,-0.005,
5385,-0.3,-0.005,
5386,-0.29,0.005,
5387,-0.285,0.005,
5388,-0.285,0.005,
5389,-0.295,-0.015,
5390,-0.295,-0.035,
5391,-0.305,-0.045,
5392,-0.29,-0.04,
5393,-0.275,-0.025,
5394,-0.29,-0.02,
5395,-0.285,-0.035,
5396,-0.27,-0.055,
5397,-0.215,-0.08,
5398,-0.09,-0.125,
5399,0.065,-0.175,
5400,0.2,-0.26,
5401,0.35,-0.36,
5402,0.53,-0.445,
5403,0.73,-0.47,
5404,0.945,-0.425,
5405,1.09,-0.35,
5406,1.175,-0.305,
5407,1.19,-0.305,N
5408,1.135,-0.285,
5409,0.96,-0.235,
5410,0.81,-0.195,
5411,0.7,-0.155,
5412,0.58,-0.13,
5413,0.415,-0.09,
5414,0.25,-0.065,
5415,0.15,-0.06,
5416,0.1,-0.04,
5417,0.04,-0.015,
5418,-0.045,0.0,
5419,-0.125,0.005,
5420,-0.19,0.015,
5421,-0.26,0.03,
5422,-0.305,0.065,
5423,-0.345,0.09,
5424,-0.38,0.09,
5425,-0.405,0.07,
5426,-0.445,0.06,
5427,-0.47,0.06,
5428,-0.485,0.07,
5429,-0.48,0.085,
5430,-0.46,0.075,
5431,-0.465,0.075,
5432,-0.475,0.075,
5433,-0.485,0.07,
5434,-0.465,0.065,
5435,-0.45,0.09,
5436,-0.455,0.085,
5437,-0.45,0.08,
5438,-0.45,0.075,
5439,-0.47,0.07,
5440,-0.46,0.095,
5441,-0.46,0.095,
5442,-0.45,0.085,
5443,-0.44,0.08,
5444,-0.445,0.07,
5445,-0.47,0.075,
5446,-0.46,0.085,
5447,-0.45,0.095,
5448,-0.445,0.085,
5449,-0.435,0.085,
5450,-0.46,0.06,
5451,-0.47,0.075,
5452,-0.465,0.075,
5453,-0.46,0.1,
5454,-0.435,0.1,
5455,-0.445,0.08,
5456,-0.46,0.075,
5457,-0.46,0.075,
5458,-0.455,0.075,
5459,-0.47,0.095,
5460,-0.46,0.095,
5461,-0.465,0.1,
5462,-0.465,0.08,
5463,-0.475,0.09,
5464,-0.465,0.09,
5465,-0.465,0.105,
5466,-0.465,0.1,
5467,-0.46,0.09,
5468,-0.475,0.09,
5469,-0.48,0.09,
5470,-0.475,0.11,
5471,-0.455,0.125,
5472,-0.46,0.11,
5473,-0.45,0.105,
5474,-0.445,0.09,
5475,-0.44,0.095,
5476,-0.425,0.1,
5477,-0.41,0.12,
5478,-0.4,0.1,
5479,-0.405,0.11,
5480,-0.4,0.095,
5481,-0.395,0.09,
5482,-0.38,0.09,
5483,-0.355,0.12,
5484,-0.335,0.105,
5485,-0.33,0.105,
5486,-0.315,0.09,
5487,-0.315,0.08,
5488,-0.285,0.105,
5489,-0.26,0.115,
5490,-0.24,0.105,
5491,-0.23,0.105,
5492,-0.225,0.095,
5493,-0.21,0.085,
5494,-0.175,0.09,
5495,-0.15,0.09,
5496,-0.135,0.09,
5497,-0.15,0.075,
5498,-0.16,0.055,
5499,-0.145,0.05,
5500,-0.145,0.06,
5501,-0.13,0.065,
5502,-0.135,0.055,
5503,-0.13,0.045,
5504,-0.145,0.05,
5505,-0.16,0.035,
5506,-0.15,0.04,
5507,-0.16,0.05,
5508,-0.15,0.05,
5509,-0.17,0.04,
5510,-0.19,0.025,
5511,-0.205,0.035,
5512,-0.19,0.035,
5513,-0.2,0.05,
5514,-0.195,0.04,
5515,-0.195,0.03,
5516,-0.195,0.035,
5517,-0.21,0.03,
5518,-0.225,0.04,
5519,-0.215,0.055,
5520,-0.215,0.04,
5521,-0.22,0.035,
5522,-0.24,0.035,
5523,-0.245,0.015,
5524,-0.24,0.045,
5525,-0.235,0.045,
5526,-0.225,0.06,
5527,-0.235,0.035,
5528,-0.23,0.03,
5529,-0.25,0.025,
5530,-0.25,0.025,
5531,-0.255,0.02,
5532,-0.26,0.02,
5533,-0.27,0.005,
5534,-0.27,-0.015,
5535,-0.295,-0.02,
5536,-0.3,-0.015,
5537,-0.29,-0.03,
5538,-0.28,-0.05,
5539,-0.275,-0.095,
5540,-0.275,-0.115,
5541,-0.27,-0.135,
5542,-0.255,-0.135,
5543,-0.25,-0.12,
5544,-0.22,-0.13,
5545,-0.185,-0.175,
5546,-0.15,-0.2,
5547,-0.08,-0.265,
5548,0.025,-0.32,
5549,0.115,-0.375,
5550,0.23,-0.415,
5551,0.375,-0.415,
5552,0.52,-0.395,
5553,0.665,-0.355,
5554,0.78,-0.3,
5555,0.895,-0.245,
5556,1.05,-0.18,
5557,1.195,-0.075,
5558,1.34,0.045,
5559,1.455,0.2,
5560,1.58,0.37,
5561,1.695,0.525,V
5562,1.77,0.65,
5563,1.765,0.73,
5564,1.59,0.745,
5565,1.295,0.69,
5566,0.97,0.615,
5567,0.715,0.56,
5568,0.46,0.445,
5569,0.18,0.355,
5570,-0.08,0.275,
5571,-0.295,0.23,
5572,-0.43,0.175,
5573,-0.51,0.135,
5574,-0.535,0.08,
5575,-0.56,0.03,
5576,-0.585,-0.005,
5577,-0.6,0.0,
5578,-0.59,0.01,
5579,-0.575,0.015,
5580,-0.57,0.0,
5581,-0.585,-0.015,
5582,-0.585,-0.025,
5583,-0.605,-0.035,
5584,-0.585,-0.03,
5585,-0.585,-0.035,
5586,-0.58,-0.035,
5587,-0.59,-0.055,
5588,-0.605,-0.055,
5589,-0.625,-0.05,
5590,-0.635,-0.045,
5591,-0.63,-0.03,
5592,-0.645,-0.055,
5593,-0.65,-0.075,
5594,-0.675,-0.08,
5595,-0.705,-0.09,
5596,-0.71,-0.08,
5597,-0.7,-0.095,
5598,-0.67,-0.11,
5599,-0.64,-0.13,
5600,-0.635,-0.14,
5601,-0.635,-0.135,
5602,-0.63,-0.12,
5603,-0.63,-0.105,
5604,-0.635,-0.105,
5605,-0.635,-0.11,
5606,-0.615,-0.105,
5607,-0.625,-0.09,
5608,-0.61,-0.055,
5609,-0.6,-0.03,
5610,-0.595,-0.035,
5611,-0.59,-0.04,
5612,-0.59,-0.045,
5613,-0.615,-0.055,
5614,-0.625,-0.035,
5615,-0.63,-0.02,
5616,-0.59,-0.015,
5617,-0.605,-0.025,
5618,-0.61,-0.035,
5619,-0.625,-0.04,
5620,-0.63,-0.035,
5621,-0.625,-0.025,
5622,-0.615,-0.025,
5623,-0.615,-0.02,
5624,-0.63,-0.025,
5625,-0.635,-0.035,
5626,-0.635,-0.02,
5627,-0.635,-0.015,
5628,-0.63,-0.015,
5629,-0.62,-0.025,
5630,-0.625,-0.03,
5631,-0.61,-0.01,
5632,-0.605,-0.005,
5633,-0.6,0.01,
5634,-0.575,0.0,
5635,-0.575,-0.005,
5636,-0.565,-0.025,
5637,-0.565,-0.02,
5638,-0.545,-0.005,
5639,-0.525,0.01,
5640,-0.505,-0.005,
5641,-0.49,0.0,
5642,-0.495,-0.015,
5643,-0.485,-0.015,
5644,-0.47,0.0,
5645,-0.435,0.01,
5646,-0.42,0.01,
5647,-0.4,0.01,
5648,-0.385,0.015,
5649,-0.375,0.015,
5650,-0.345,0.025,
5651,-0.315,0.03,
5652,-0.285,0.03,
5653,-0.275,0.025,
5654,-0.28,0.035,
5655,-0.275,0.045,
5656,-0.25,0.05,
5657,-0.245,0.06,
5658,-0.235,0.055,
5659,-0.215,0.05,
5660,-0.225,0.035,
5661,-0.225,0.035,
5662,-0.225,0.045,
5663,-0.21,0.07,
5664,-0.205,0.05,
5665,-0.21,0.04,
5666,-0.205,0.035,
5667,-0.225,0.045,
5668,-0.22,0.055,
5669,-0.205,0.065,
5670,-0.195,0.055,
5671,-0.205,0.05,
5672,-0.205,0.035,
5673,-0.22,0.04,
5674,-0.225,0.04,
5675,-0.22,0.05,
5676,-0.21,0.045,
5677,-0.2,0.04,
5678,-0.21,0.04,
5679,-0.21,0.03,
5680,-0.215,0.045,
5681,-0.21,0.055,
5682,-0.2,0.04,
5683,-0.21,0.035,
5684,-0.205,0.025,
5685,-0.22,0.015,
5686,-0.21,0.045,
5687,-0.215,0.04,
5688,-0.205,0.03,
5689,-0.205,0.02,
5690,-0.215,0.01,
5691,-0.225,0.01,
5692,-0.225,0.015,
5693,-0.215,0.03,
5694,-0.22,0.03,
5695,-0.225,0.03,
5696,-0.235,0.025,
5697,-0.25,0.01,
5698,-0.25,0.025,
5699,-0.235,0.02,
5700,-0.22,0.02,
5701,-0.215,0.005,
5702,-0.225,0.0,
5703,-0.245,-0.005,
5704,-0.25,0.005,
5705,-0.24,0.02,
5706,-0.245,0.01,
5707,-0.245,-0.005,
5708,-0.255,-0.005,
5709,-0.275,-0.01,
5710,-0.25,0.005,
5711,-0.245,0.015,
5712,-0.24,0.005,
5713,-0.25,-0.005,
5714,-0.265,-0.03,
5715,-0.275,-0.025,
5716,-0.26,-0.015,
5717,-0.25,-0.005,
5718,-0.245,0.0,
5719,-0.25,-0.005,
5720,-0.26,-0.005,
5721,-0.27,-0.015,
5722,-0.27,0.0,
5723,-0.27,-0.01,
5724,-0.275,0.0,
5725,-0.27,-0.025,
5726,-0.27,-0.035,
5727,-0.29,-0.015,
5728,-0.265,-0.02,
5729,-0.255,-0.02,
5730,-0.255,-0.02,
5731,-0.26,-0.035,
5732,-0.28,-0.045,
5733,-0.275,-0.035,
5734,-0.275,-0.025,
5735,-0.27,-0.01,
5736,-0.255,-0.02,
5737,-0.26,-0.015,
5738,-0.27,-0.035,
5739,-0.29,-0.035,
5740,-0.275,-0.03,
5741,-0.26,-0.015,
5742,-0.26,-0.02,
5743,-0.26,-0.03,
5744,-0.275,-0.04,
5745,-0.28,-0.04,
5746,-0.28,-0.025,
5747,-0.27,-0.01,
5748,-0.27,-0.025,
5749,-0.26,-0.025,
5750,-0.28,-0.035,
5751,-0.29,-0.03,
5752,-0.285,-0.025,
5753,-0.275,-0.005,
5754,-0.27,-0.01,
5755,-0.27,-0.02,
5756,-0.27,-0.03,
5757,-0.29,-0.035,
5758,-0.27,-0.01,
5759,-0.27,-0.015,
5760,-0.28,-0.01,
5761,-0.28,-0.01,
5762,-0.28,-0.03,
5763,-0.29,-0.02,
5764,-0.275,-0.015,
5765,-0.26,-0.02,
5766,-0.26,-0.025,
5767,-0.27,-0.03,
5768,-0.27,-0.04,
5769,-0.285,-0.025,
5770,-0.265,-0.005,
5771,-0.27,0.0,
5772,-0.255,-0.01,
5773,-0.255,-0.025,
5774,-0.27,-0.035,
5775,-0.275,-0.04,
5776,-0.275,-0.03,
5777,-0.265,-0.01,
5778,-0.265,-0.02,
5779,-0.27,-0.02,
5780,-0.275,-0.02,
5781,-0.285,-0.03,
5782,-0.295,-0.03,
5783,-0.285,-0.02,
5784,-0.26,-0.03,
5785,-0.25,-0.03,
5786,-0.275,-0.04,
5787,-0.28,-0.035,
5788,-0.275,-0.03,
5789,-0.28,-0.015,
5790,-0.255,-0.03,
5791,-0.255,-0.04,
5792,-0.265,-0.04,
5793,-0.28,-0.045,
5794,-0.275,-0.03,
5795,-0.265,-0.02,
5796,-0.26,-0.025,
5797,-0.275,-0.035,
5798,-0.27,-0.035,
5799,-0.275,-0.04,
5800,-0.28,-0.04,
5801,-0.26,-0.03,
5802,-0.26,-0.02,
5803,-0.265,-0.04,
5804,-0.265,-0.035,
5805,-0.265,-0.035,
5806,-0.245,-0.025,
5807,-0.235,-0.015,
5808,-0.235,-0.015,
5809,-0.25,-0.035,
5810,-0.27,-0.04,
5811,-0.28,-0.04,
5812,-0.275,-0.015,
5813,-0.26,-0.01,
5814,-0.25,-0.025,
5815,-0.25,-0.035,
5816,-0.26,-0.035,
5817,-0.265,-0.065,
5818,-0.27,-0.035,
5819,-0.25,-0.03,
5820,-0.24,-0.025,
5821,-0.26,-0.03,
5822,-0.26,-0.04,
5823,-0.28,-0.04,
5824,-0.27,-0.03,
5825,-0.265,-0.01,
5826,-0.255,-0.02,
5827,-0.255,-0.03,
5828,-0.26,-0.03,
5829,-0.265,-0.045,
5830,-0.265,-0.03,
5831,-0.25,-0.01,
5832,-0.26,-0.02,
5833,-0.265,-0.03,
5834,-0.27,-0.04,
5835,-0.275,-0.045,
5836,-0.255,-0.03,
5837,-0.25,-0.02,
5838,-0.245,-0.02,
5839,-0.26,-0.03,
5840,-0.255,-0.03,
5841,-0.265,-0.04,
5842,-0.255,-0.03,
5843,-0.255,-0.01,
5844,-0.255,-0.03,
5845,-0.265,-0.035,
5846,-0.255,-0.04,
5847,-0.265,-0.035,
5848,-0.26,-0.025,
5849,-0.245,0.01,
5850,-0.22,0.02,
5851,-0.22,0.02,
5852,-0.225,0.03,
5853,-0.21,0.045,
5854,-0.195,0.035,
5855,-0.17,0.05,
5856,-0.16,0.035,
5857,-0.15,0.04,
5858,-0.18,0.03,
5859,-0.175,0.02,
5860,-0.16,0.005,
5861,-0.125,-0.005,
5862,-0.1,-0.015,
5863,-0.1,-0.02,
5864,-0.1,-0.04,
5865,-0.105,-0.035,
5866,-0.095,-0.01,
5867,-0.085,0.0,
5868,-0.08,-0.015,
5869,-0.08,-0.035,
5870,-0.07,-0.035,
5871,-0.08,-0.04,
5872,-0.09,-0.03,
5873,-0.095,0.0,
5874,-0.105,-0.005,
5875,-0.1,-0.02,
5876,-0.11,-0.045,
5877,-0.16,-0.055,
5878,-0.18,-0.055,
5879,-0.225,-0.04,
5880,-0.275,-0.045,
5881,-0.31,-0.04,
5882,-0.32,-0.045,
5883,-0.315,-0.05,
5884,-0.315,-0.035,
5885,-0.31,-0.035,
5886,-0.3,-0.05,
5887,-0.315,-0.05,
5888,-0.33,-0.065,
5889,-0.335,-0.065,
5890,-0.32,-0.05,
5891,-0.315,-0.03,
5892,-0.315,-0.025,
5893,-0.315,-0.055,
5894,-0.325,-0.06,
5895,-0.33,-0.05,
5896,-0.335,-0.045,
5897,-0.315,-0.025,
5898,-0.31,-0.025,
5899,-0.3,-0.035,
5900,-0.3,-0.06,
5901,-0.295,-0.055,
5902,-0.295,-0.05,
5903,-0.29,-0.045,
5904,-0.265,-0.055,
5905,-0.275,-0.075,
5906,-0.295,-0.075,
5907,-0.305,-0.075,
5908,-0.3,-0.055,
5909,-0.3,-0.045,
5910,-0.295,-0.055,
5911,-0.27,-0.085,
5912,-0.225,-0.145,
5913,-0.13,-0.185,
5914,0.03,-0.265,
5915,0.2,-0.33,
5916,0.37,-0.425,
5917,0.555,-0.495,
5918,0.755,-0.54,
5919,0.91,-0.5,
5920,1.055,-0.44,
5921,1.15,-0.39,
5922,1.215,-0.36,
5923,1.18,-0.375,N
5924,1.06,-0.37,
5925,0.895,-0.315,
5926,0.785,-0.255,
5927,0.71,-0.22,
5928,0.64,-0.185,
5929,0.505,-0.145,
5930,0.345,-0.125,
5931,0.2,-0.105,
5932,0.11,-0.065,
5933,0.035,-0.03,
5934,-0.06,-0.02,
5935,-0.165,-0.01,
5936,-0.25,0.005,
5937,-0.32,0.005,
5938,-0.37,0.045,
5939,-0.4,0.06,
5940,-0.43,0.065,
5941,-0.46,0.05,
5942,-0.47,0.06,
5943,-0.495,0.045,
5944,-0.52,0.05,
5945,-0.52,0.065,
5946,-0.535,0.05,
5947,-0.51,0.055,
5948,-0.525,0.045,
5949,-0.53,0.04,
5950,-0.54,0.055,
5951,-0.53,0.07,
5952,-0.51,0.065,
5953,-0.51,0.055,
5954,-0.51,0.055,
5955,-0.505,0.05,
5956,-0.51,0.065,
5957,-0.515,0.075,
5958,-0.5,0.065,
5959,-0.505,0.065,
5960,-0.495,0.06,
5961,-0.51,0.05,
5962,-0.495,0.06,
5963,-0.5,0.07,
5964,-0.485,0.07,
5965,-0.505,0.065,
5966,-0.51,0.055,
5967,-0.52,0.06,
5968,-0.51,0.075,
5969,-0.51,0.085,
5970,-0.475,0.08,
5971,-0.49,0.06,
5972,-0.495,0.06,
5973,-0.51,0.065,
5974,-0.505,0.07,
5975,-0.485,0.08,
5976,-0.49,0.07,
5977,-0.485,0.075,
5978,-0.485,0.065,
5979,-0.495,0.065,
5980,-0.49,0.08,
5981,-0.47,0.1,
5982,-0.47,0.09,
5983,-0.46,0.09,
5984,-0.465,0.09,
5985,-0.475,0.09,
5986,-0.465,0.105,
5987,-0.45,0.1,
5988,-0.45,0.105,
5989,-0.45,0.09,
5990,-0.455,0.09,
5991,-0.46,0.09,
5992,-0.435,0.105,
5993,-0.42,0.115,
5994,-0.4,0.115,
5995,-0.405,0.105,
5996,-0.41,0.095,
5997,-0.4,0.095,
5998,-0.375,0.12,
5999,-0.35,0.145,
6000,-0.32,0.13,
6001,-0.32,0.125,
6002,-0.32,0.115,
6003,-0.33,0.105,
6004,-0.29,0.12,
6005,-0.27,0.13,
6006,-0.255,0.115,
6007,-0.245,0.12,
6008,-0.235,0.115,
6009,-0.23,0.125,
6010,-0.21,0.125,
6011,-0.18,0.14,
6012,-0.165,0.125,
6013,-0.145,0.125,
6014,-0.135,0.115,
6015,-0.135,0.12,
6016,-0.12,0.135,
6017,-0.105,0.14,
6018,-0.09,0.14,
6019,-0.08,0.125,
6020,-0.08,0.1,
6021,-0.08,0.1,
6022,-0.055,0.105,
6023,-0.04,0.125,
6024,-0.04,0.115,
6025,-0.035,0.11,
6026,-0.045,0.085,
6027,-0.055,0.085,
6028,-0.055,0.09,
6029,-0.045,0.1,
6030,-0.07,0.095,
6031,-0.07,0.08,
6032,-0.085,0.075,
6033,-0.095,0.065,
6034,-0.1,0.08,
6035,-0.1,0.09,
6036,-0.11,0.075,
6037,-0.125,0.05,
6038,-0.145,0.05,
6039,-0.17,0.05,
6040,-0.175,0.055,
6041,-0.175,0.07,
6042,-0.18,0.07,
6043,-0.19,0.055,
6044,-0.2,0.055,
6045,-0.225,0.065,
6046,-0.225,0.07,
6047,-0.225,0.085,
6048,-0.23,0.07,
6049,-0.24,0.055,
6050,-0.25,0.055,
6051,-0.26,0.045,
6052,-0.275,0.065,
6053,-0.28,0.055,
6054,-0.28,0.055,
6055,-0.28,0.055,
6056,-0.285,0.03,
6057,-0.305,0.03,
6058,-0.3,0.04,
6059,-0.3,0.06,
6060,-0.3,0.055,
6061,-0.31,0.05,
6062,-0.32,0.03,
6063,-0.315,0.04,
6064,-0.32,0.045,
6065,-0.31,0.045,
6066,-0.325,0.03,
6067,-0.345,0.025,
6068,-0.335,0.015,
6069,-0.325,0.015,
6070,-0.32,0.02,
6071,-0.32,0.015,
6072,-0.32,0.01,
6073,-0.33,0.015,
6074,-0.33,0.0,
6075,-0.35,0.0,
6076,-0.33,0.005,
6077,-0.325,0.015,
6078,-0.325,0.0,
6079,-0.33,0.005,
6080,-0.34,-0.01,
6081,-0.345,-0.005,
6082,-0.345,-0.02,
6083,-0.33,0.015,
6084,-0.325,-0.005,
6085,-0.345,0.0,
6086,-0.345,-0.005,
6087,-0.345,-0.02,
6088,-0.345,-0.01,
6089,-0.325,0.01,
6090,-0.33,-0.005,
6091,-0.335,-0.02,
6092,-0.335,-0.025,
6093,-0.345,-0.015,
6094,-0.335,-0.005,
6095,-0.325,0.015,
6096,-0.315,-0.005,
6097,-0.325,-0.005,
6098,-0.32,-0.015,
6099,-0.32,-0.025,
6100,-0.32,-0.015,
6101,-0.32,0.01,
6102,-0.32,-0.015,
6103,-0.325,-0.015,
6104,-0.325,-0.03,
6105,-0.325,-0.02,
6106,-0.315,-0.01,
6107,-0.305,0.0,
6108,-0.31,0.0,
6109,-0.32,-0.015,
6110,-0.32,-0.02,
6111,-0.335,-0.015,
6112,-0.325,-0.015,
6113,-0.315,0.01,
6114,-0.3,-0.005,
6115,-0.31,0.0,
6116,-0.315,0.0,
6117,-0.31,0.01,
6118,-0.305,0.03,
6119,-0.275,0.05,
6120,-0.26,0.055,
6121,-0.25,0.055,
6122,-0.24,0.05,
6123,-0.235,0.04,
6124,-0.235,0.055,
6125,-0.23,0.06,
6126,-0.22,0.05,
6127,-0.205,0.035,
6128,-0.185,0.015,
6129,-0.18,0.015,
6130,-0.175,0.01,
6131,-0.145,0.025,
6132,-0.145,0.02,
6133,-0.135,0.02,
6134,-0.12,-0.005,
6135,-0.115,-0.02,
6136,-0.1,-0.02,
6137,-0.095,-0.02,
6138,-0.1,-0.01,
6139,-0.105,-0.015,
6140,-0.135,-0.025,
6141,-0.14,-0.02,
6142,-0.16,-0.03,
6143,-0.135,-0.035,
6144,-0.15,-0.035,
6145,-0.185,-0.055,
6146,-0.23,-0.06,
6147,-0.29,-0.065,
6148,-0.32,-0.05,
6149,-0.33,-0.035,
6150,-0.335,-0.04,
6151,-0.34,-0.05,
6152,-0.36,-0.05,
6153,-0.385,-0.045,
6154,-0.38,-0.045,
6155,-0.375,-0.04,
6156,-0.36,-0.055,
6157,-0.36,-0.055,
6158,-0.37,-0.065,
6159,-0.375,-0.065,
6160,-0.37,-0.055,
6161,-0.37,-0.045,
6162,-0.375,-0.05,
6163,-0.36,-0.06,
6164,-0.355,-0.065,
6165,-0.37,-0.06,
6166,-0.355,-0.05,
6167,-0.35,-0.055,
6168,-0.34,-0.05,
6169,-0.34,-0.055,
6170,-0.335,-0.07,
6171,-0.345,-0.065,
6172,-0.345,-0.06,
6173,-0.32,-0.055,
6174,-0.32,-0.055,
6175,-0.315,-0.075,
6176,-0.34,-0.095,
6177,-0.34,-0.1,
6178,-0.34,-0.09,
6179,-0.335,-0.08,
6180,-0.335,-0.09,
6181,-0.34,-0.09,
6182,-0.33,-0.1,
6183,-0.31,-0.12,
6184,-0.23,-0.14,
6185,-0.09,-0.18,
6186,0.06,-0.255,
6187,0.215,-0.32,
6188,0.38,-0.4,
6189,0.56,-0.47,
6190,0.735,-0.485,
6191,0.91,-0.475,
6192,1.015,-0.43,
6193,1.11,-0.38,
6194,1.155,-0.345,
6195,1.18,-0.33,N
6196,1.135,-0.325,
6197,1.02,-0.29,
6198,0.865,-0.265,
6199,0.74,-0.24,
6200,0.64,-0.235,
6201,0.525,-0.195,
6202,0.37,-0.15,
6203,0.21,-0.125,
6204,0.11,-0.12,
6205,0.04,-0.105,
6206,-0.025,-0.1,
6207,-0.115,-0.075,
6208,-0.195,-0.055,
6209,-0.255,-0.035,
6210,-0.295,-0.03,
6211,-0.335,-0.025,
6212,-0.39,-0.005,
6213,-0.425,0.0,
6214,-0.46,0.015,
6215,-0.465,0.035,
6216,-0.485,0.025,
6217,-0.505,0.0,
6218,-0.52,0.0,
6219,-0.54,0.0,
6220,-0.54,0.01,
6221,-0.54,0.01,
6222,-0.545,0.015,
6223,-0.53,-0.01,
6224,-0.54,-0.015,
6225,-0.54,-0.005,
6226,-0.54,0.01,
6227,-0.515,0.01,
6228,-0.51,0.015,
6229,-0.51,0.005,
6230,-0.52,-0.015,
6231,-0.53,-0.015,
6232,-0.535,0.0,
6233,-0.53,0.005,
6234,-0.51,0.005,
6235,-0.505,-0.005,
6236,-0.52,-0.005,
6237,-0.535,0.0,
6238,-0.51,0.02,
6239,-0.51,0.03,
6240,-0.5,0.01,
6241,-0.5,0.015,
6242,-0.52,0.005,
6243,-0.525,-0.005,
6244,-0.525,0.01,
6245,-0.49,0.025,
6246,-0.485,0.025,
6247,-0.5,0.015,
6248,-0.505,0.005,
6249,-0.51,0.0,
6250,-0.515,0.01,
6251,-0.505,0.02,
6252,-0.5,0.015,
6253,-0.505,0.025,
6254,-0.525,0.015,
6255,-0.535,0.005,
6256,-0.52,0.03,
6257,-0.52,0.035,
6258,-0.53,0.05,
6259,-0.515,0.04,
6260,-0.52,0.02,
6261,-0.52,0.035,
6262,-0.51,0.045,
6263,-0.505,0.055,
6264,-0.505,0.05,
6265,-0.5,0.035,
6266,-0.505,0.035,
6267,-0.52,0.035,
6268,-0.51,0.05,
6269,-0.495,0.055,
6270,-0.475,0.05,
6271,-0.475,0.05,
6272,-0.48,0.05,
6273,-0.49,0.045,
6274,-0.48,0.06,
6275,-0.475,0.055,
6276,-0.455,0.055,
6277,-0.455,0.05,
6278,-0.45,0.055,
6279,-0.43,0.05,
6280,-0.42,0.06,
6281,-0.4,0.065,
6282,-0.385,0.075,
6283,-0.37,0.06,
6284,-0.375,0.055,
6285,-0.38,0.04,
6286,-0.35,0.06,
6287,-0.325,0.06,
6288,-0.305,0.06,
6289,-0.3,0.05,
6290,-0.28,0.04,
6291,-0.295,0.04,
6292,-0.27,0.035,
6293,-0.255,0.04,
6294,-0.23,0.04,
6295,-0.225,0.025,
6296,-0.215,0.025,
6297,-0.23,0.035,
6298,-0.205,0.035,
6299,-0.2,0.04,
6300,-0.205,0.025,
6301,-0.21,0.015,
6302,-0.215,0.01,
6303,-0.215,0.015,
6304,-0.22,0.03,
6305,-0.22,0.035,
6306,-0.225,0.035,
6307,-0.23,0.015,
6308,-0.255,0.015,
6309,-0.255,0.01,
6310,-0.255,0.015,
6311,-0.245,0.02,
6312,-0.245,0.02,
6313,-0.25,0.02,
6314,-0.275,0.015,
6315,-0.295,0.02,
6316,-0.285,0.015,
6317,-0.285,0.025,
6318,-0.275,0.025,
6319,-0.28,0.01,
6320,-0.29,0.0,
6321,-0.315,0.005,
6322,-0.305,0.02,
6323,-0.3,0.03,
6324,-0.29,0.02,
6325,-0.295,0.015,
6326,-0.295,0.0,
6327,-0.3,0.01,
6328,-0.295,0.005,
6329,-0.28,0.02,
6330,-0.275,0.01,
6331,-0.285,0.01,
6332,-0.29,0.01,
6333,-0.305,-0.01,
6334,-0.3,0.015,
6335,-0.29,0.015,
6336,-0.3,0.005,
6337,-0.305,-0.005,
6338,-0.3,-0.005,
6339,-0.31,-0.025,
6340,-0.3,0.005,
6341,-0.29,0.01,
6342,-0.295,0.0,
6343,-0.29,0.0,
6344,-0.295,-0.01,
6345,-0.3,-0.02,
6346,-0.29,-0.02,
6347,-0.285,-0.005,
6348,-0.28,-0.015,
6349,-0.28,-0.015,
6350,-0.29,-0.025,
6351,-0.295,-0.015,
6352,-0.295,-0.02,
6353,-0.29,-0.01,
6354,-0.285,-0.02,
6355,-0.285,-0.03,
6356,-0.29,-0.03,
6357,-0.305,-0.03,
6358,-0.305,-0.015,
6359,-0.29,-0.01,
6360,-0.29,-0.015,
6361,-0.29,-0.025,
6362,-0.3,-0.03,
6363,-0.305,-0.03,
6364,-0.31,-0.025,
6365,-0.285,-0.01,
6366,-0.295,-0.02,
6367,-0.3,-0.03,
6368,-0.29,-0.035,
6369,-0.295,-0.03,
6370,-0.28,-0.025,
6371,-0.285,-0.025,
6372,-0.28,-0.025,
6373,-0.29,-0.035,
6374,-0.295,-0.035,
6375,-0.29,-0.035,
6376,-0.28,-0.02,
6377,-0.285,-0.015,
6378,-0.295,-0.025,
6379,-0.3,-0.025,
6380,-0.3,-0.04,
6381,-0.3,-0.035,
6382,-0.285,-0.03,
6383,-0.27,-0.02,
6384,-0.27,-0.02,
6385,-0.27,-0.03,
6386,-0.285,-0.025,
6387,-0.3,-0.035,
6388,-0.3,-0.03,
6389,-0.305,-0.02,
6390,-0.3,-0.02,
6391,-0.29,-0.02,
6392,-0.28,-0.005,
6393,-0.285,0.005,
6394,-0.265,0.04,
6395,-0.245,0.065,
6396,-0.23,0.065,
6397,-0.21,0.065,
6398,-0.19,0.035,
6399,-0.195,0.035,
6400,-0.185,0.045,
6401,-0.195,0.065,
6402,-0.195,0.055,
6403,-0.19,0.02,
6404,-0.165,0.005,
6405,-0.16,-0.01,
6406,-0.13,0.005,
6407,-0.105,0.02,
6408,-0.1,0.015,
6409,-0.1,0.005,
6410,-0.1,-0.025,
6411,-0.09,-0.025,
6412,-0.085,-0.02,
6413,-0.08,-0.005,
6414,-0.085,-0.005,
6415,-0.09,-0.02,
6416,-0.115,-0.03,
6417,-0.12,-0.025,
6418,-0.14,-0.02,
6419,-0.14,-0.02,
6420,-0.18,-0.02,
6421,-0.22,-0.04,
6422,-0.27,-0.04,
6423,-0.325,-0.05,
6424,-0.35,-0.05,
6425,-0.34,-0.045,
6426,-0.335,-0.055,
6427,-0.345,-0.055,
6428,-0.355,-0.07,
6429,-0.375,-0.055,
6430,-0.365,-0.045,
6431,-0.35,-0.035,
6432,-0.335,-0.045,
6433,-0.335,-0.045,
6434,-0.34,-0.05,
6435,-0.36,-0.06,
6436,-0.35,-0.05,
6437,-0.345,-0.03,
6438,-0.335,-0.04,
6439,-0.33,-0.055,
6440,-0.335,-0.065,
6441,-0.345,-0.06,
6442,-0.34,-0.04,
6443,-0.33,-0.04,
6444,-0.32,-0.025,
6445,-0.325,-0.04,
6446,-0.325,-0.05,
6447,-0.33,-0.05,
6448,-0.33,-0.055,
6449,-0.315,-0.04,
6450,-0.315,-0.065,
6451,-0.31,-0.09,
6452,-0.315,-0.1,
6453,-0.33,-0.105,
6454,-0.34,-0.09,
6455,-0.34,-0.095,
6456,-0.31,-0.115,
6457,-0.275,-0.16,
6458,-0.21,-0.225,
6459,-0.09,-0.305,
6460,0.08,-0.37,
6461,0.265,-0.43,
6462,0.47,-0.52,
6463,0.68,-0.55,
6464,0.845,-0.545,
6465,0.965,-0.51,
6466,1.085,-0.45,
6467,1.16,-0.375,
6468,1.21,-0.375,N
6469,1.195,-0.375,
6470,1.08,-0.355,
6471,0.94,-0.305,
6472,0.84,-0.27,
6473,0.76,-0.225,
6474,0.675,-0.195,
6475,0.54,-0.18,
6476,0.38,-0.14,
6477,0.245,-0.125,
6478,0.175,-0.09,
6479,0.115,-0.065,
6480,0.04,-0.05,
6481,-0.065,-0.045,
6482,-0.17,-0.04,
6483,-0.255,-0.02,
6484,-0.305,-0.005,
6485,-0.33,0.035,
6486,-0.375,0.04,
6487,-0.425,0.045,
6488,-0.46,0.04,
6489,-0.48,0.055,
6490,-0.485,0.05,
6491,-0.5,0.055,
6492,-0.51,0.055,
6493,-0.54,0.03,
6494,-0.535,0.025,
6495,-0.55,0.02,
6496,-0.545,0.045,
6497,-0.535,0.055,
6498,-0.535,0.055,
6499,-0.53,0.04,
6500,-0.55,0.04,
6501,-0.55,0.05,
6502,-0.535,0.05,
6503,-0.525,0.065,
6504,-0.515,0.065,
6505,-0.52,0.045,
6506,-0.525,0.045,
6507,-0.535,0.045,
6508,-0.525,0.065,
6509,-0.51,0.065,
6510,-0.505,0.06,
6511,-0.5,0.05,
6512,-0.51,0.05,
6513,-0.53,0.055,
6514,-0.505,0.07,
6515,-0.52,0.07,
6516,-0.505,0.065,
6517,-0.515,0.065,
6518,-0.53,0.05,
6519,-0.54,0.05,
6520,-0.525,0.055,
6521,-0.52,0.07,
6522,-0.51,0.07,
6523,-0.515,0.06,
6524,-0.52,0.055,
6525,-0.53,0.055,
6526,-0.515,0.075,
6527,-0.51,0.075,
6528,-0.515,0.07,
6529,-0.535,0.055,
6530,-0.54,0.055,
6531,-0.54,0.055,
6532,-0.535,0.075,
6533,-0.505,0.095,
6534,-0.51,0.08,
6535,-0.52,0.07,
6536,-0.525,0.065,
6537,-0.545,0.065,
6538,-0.545,0.09,
6539,-0.525,0.085,
6540,-0.505,0.095,
6541,-0.5,0.095,
6542,-0.505,0.085,
6543,-0.52,0.08,
6544,-0.51,0.095,
6545,-0.5,0.105,
6546,-0.485,0.105,
6547,-0.48,0.08,
6548,-0.475,0.085,
6549,-0.47,0.085,
6550,-0.445,0.105,
6551,-0.435,0.12,
6552,-0.41,0.095,
6553,-0.415,0.1,
6554,-0.41,0.1,
6555,-0.415,0.095,
6556,-0.39,0.11,
6557,-0.37,0.115,
6558,-0.355,0.11,
6559,-0.35,0.09,
6560,-0.345,0.095,
6561,-0.335,0.1,
6562,-0.3,0.105,
6563,-0.285,0.115,
6564,-0.25,0.1,
6565,-0.245,0.09,
6566,-0.25,0.08,
6567,-0.245,0.08,
6568,-0.225,0.09,
6569,-0.205,0.1,
6570,-0.175,0.08,
6571,-0.17,0.07,
6572,-0.17,0.06,
6573,-0.175,0.055,
6574,-0.17,0.055,
6575,-0.16,0.06,
6576,-0.18,0.05,
6577,-0.17,0.05,
6578,-0.185,0.04,
6579,-0.2,0.035,
6580,-0.2,0.035,
6581,-0.2,0.035,
6582,-0.2,0.025,
6583,-0.2,0.02,
6584,-0.22,0.025,
6585,-0.22,0.03,
6586,-0.23,0.04,
6587,-0.235,0.045,
6588,-0.235,0.035,
6589,-0.255,0.04,
6590,-0.25,0.01,
6591,-0.265,0.01,
6592,-0.265,0.015,
6593,-0.245,0.03,
6594,-0.245,0.025,
6595,-0.265,0.03,
6596,-0.285,0.01,
6597,-0.295,0.015,
6598,-0.3,0.03,
6599,-0.28,0.045,
6600,-0.285,0.04,
6601,-0.285,0.035,
6602,-0.3,0.02,
6603,-0.31,0.015,
6604,-0.3,0.035,
6605,-0.295,0.035,
6606,-0.29,0.03,
6607,-0.305,0.03,
6608,-0.315,0.015,
6609,-0.32,0.025,
6610,-0.295,0.035,
6611,-0.285,0.04,
6612,-0.28,0.03,
6613,-0.29,0.02,
6614,-0.31,0.01,
6615,-0.315,-0.005,
6616,-0.315,0.01,
6617,-0.31,0.03,
6618,-0.31,0.015,
6619,-0.325,0.01,
6620,-0.31,0.005,
6621,-0.335,0.0,
6622,-0.32,0.01,
6623,-0.3,0.01,
6624,-0.295,0.0,
6625,-0.32,-0.005,
6626,-0.33,-0.015,
6627,-0.335,-0.01,
6628,-0.33,0.0,
6629,-0.31,0.005,
6630,-0.32,0.0,
6631,-0.315,0.0,
6632,-0.335,-0.015,
6633,-0.33,-0.02,
6634,-0.32,0.0,
6635,-0.305,0.0,
6636,-0.305,0.0,
6637,-0.305,0.005,
6638,-0.32,-0.01,
6639,-0.33,-0.01,
6640,-0.33,-0.005,
6641,-0.32,0.0,
6642,-0.3,0.0,
6643,-0.31,0.0,
6644,-0.315,-0.005,
6645,-0.325,-0.01,
6646,-0.3,-0.005,
6647,-0.3,0.01,
6648,-0.3,0.01,
6649,-0.31,0.0,
6650,-0.315,-0.005,
6651,-0.325,-0.02,
6652,-0.325,0.0,
6653,-0.29,0.01,
6654,-0.29,0.015,
6655,-0.305,0.0,
6656,-0.3,-0.01,
6657,-0.315,-0.015,
6658,-0.315,-0.005,
6659,-0.295,0.0,
6660,-0.285,-0.005,
6661,-0.29,0.005,
6662,-0.305,0.01,
6663,-0.3,0.025,
6664,-0.29,0.055,
6665,-0.27,0.085,
6666,-0.255,0.09,
6667,-0.24,0.095,
6668,-0.215,0.085,
6669,-0.215,0.085,
6670,-0.21,0.075,
6671,-0.205,0.105,
6672,-0.205,0.08,
6673,-0.21,0.06,
6674,-0.205,0.03,
6675,-0.19,0.015,
6676,-0.155,0.03,
6677,-0.135,0.055,
6678,-0.125,0.055,
6679,-0.115,0.045,
6680,-0.115,0.01,
6681,-0.115,-0.005,
6682,-0.105,-0.02,
6683,-0.1,0.01,
6684,-0.11,0.02,
6685,-0.12,0.025,
6686,-0.13,0.01,
6687,-0.145,0.0,
6688,-0.14,0.0,
6689,-0.135,0.005,
6690,-0.17,-0.015,
6691,-0.22,-0.015,
6692,-0.285,-0.03,
6693,-0.345,-0.03,
6694,-0.36,-0.01,
6695,-0.36,-0.005,
6696,-0.355,-0.02,
6697,-0.36,-0.025,
6698,-0.365,-0.035,
6699,-0.38,-0.04,
6700,-0.38,-0.025,
6701,-0.365,0.005,
6702,-0.35,-0.015,
6703,-0.35,-0.01,
6704,-0.36,-0.03,
6705,-0.37,-0.025,
6706,-0.36,-0.02,
6707,-0.345,-0.005,
6708,-0.345,-0.02,
6709,-0.355,-0.025,
6710,-0.355,-0.02,
6711,-0.36,-0.015,
6712,-0.35,-0.02,
6713,-0.345,-0.005,
6714,-0.345,-0.025,
6715,-0.34,-0.035,
6716,-0.335,-0.05,
6717,-0.325,-0.055,
6718,-0.33,-0.045,
6719,-0.325,-0.045,
6720,-0.33,-0.05,
6721,-0.345,-0.055,
6722,-0.35,-0.055,
6723,-0.36,-0.065,
6724,-0.345,-0.06,
6725,-0.315,-0.07,
6726,-0.25,-0.105,
6727,-0.14,-0.17,
6728,-0.01,-0.255,
6729,0.16,-0.35,
6730,0.36,-0.425,
6731,0.555,-0.475,
6732,0.76,-0.495,
6733,0.94,-0.455,
