,MLII,V1,symbol
0,-0.31,0.195,
1,-0.31,0.195,
2,-0.31,0.195,
3,-0.31,0.195,
4,-0.31,0.195,
5,-0.31,0.195,
6,-0.31,0.195,
7,-0.31,0.195,
8,-0.29,0.195,
9,-0.285,0.175,
10,-0.295,0.175,
11,-0.315,0.17,
12,-0.305,0.17,
13,-0.3,0.185,
14,-0.28,0.185,
15,-0.275,0.175,
16,-0.275,0.17,
17,-0.27,0.17,
18,-0.26,0.195,
19,-0.24,0.21,
20,-0.225,0.205,
21,-0.215,0.205,
22,-0.205,0.16,
23,-0.22,0.12,
24,-0.205,0.115,
25,-0.17,0.12,
26,-0.15,0.145,
27,-0.155,0.145,
28,-0.14,0.145,
29,-0.13,0.125,
30,-0.115,0.12,
31,-0.075,0.14,
32,-0.05,0.135,
33,-0.06,0.13,
34,-0.05,0.13,
35,-0.04,0.125,
36,-0.015,0.145,
37,0.005,0.145,
38,0.03,0.15,
39,0.045,0.125,
40,0.07,0.11,
41,0.08,0.12,
42,0.105,0.145,
43,0.13,0.17,
44,0.185,0.17,
45,0.225,0.165,
46,0.255,0.155,
47,0.27,0.13,
48,0.305,0.12,
49,0.345,0.12,
50,0.4,0.115,
51,0.43,0.105,
52,0.46,0.08,
53,0.46,0.065,
54,0.475,0.085,
55,0.52,0.09,
56,0.555,0.11,
57,0.585,0.1,
58,0.575,0.095,
59,0.575,0.095,
60,0.565,0.105,
61,0.57,0.125,
62,0.56,0.115,
63,0.55,0.12,
64,0.53,0.115,
65,0.485,0.125,
66,0.48,0.14,
67,0.465,0.155,
68,0.46,0.15,
69,0.42,0.11,
70,0.385,0.105,
71,0.355,0.085,
72,0.305,0.08,
73,0.285,0.1,
74,0.255,0.1,
75,0.21,0.115,
76,0.165,0.115,
77,0.12,0.13,
78,0.105,0.15,
79,0.085,0.17,
80,0.075,0.16,
81,0.04,0.135,
82,0.005,0.115,
83,-0.04,0.1,~
84,-0.045,0.09,
85,-0.055,0.1,
86,-0.04,0.105,
87,-0.07,0.105,
88,-0.1,0.105,
89,-0.125,0.115,
90,-0.135,0.15,
91,-0.14,0.175,
92,-0.155,0.145,
93,-0.19,0.12,
94,-0.19,0.095,
95,-0.195,0.1,
96,-0.205,0.135,
97,-0.2,0.145,
98,-0.215,0.165,
99,-0.25,0.15,
100,-0.285,0.12,
101,-0.295,0.105,
102,-0.29,0.115,
103,-0.285,0.14,
104,-0.265,0.145,
105,-0.27,0.135,
106,-0.285,0.12,
107,-0.33,0.13,
108,-0.35,0.135,
109,-0.35,0.165,
110,-0.31,0.17,
111,-0.3,0.17,
112,-0.305,0.165,
113,-0.33,0.15,
114,-0.35,0.145,
115,-0.34,0.14,
116,-0.335,0.13,
117,-0.335,0.11,
118,-0.33,0.1,
119,-0.34,0.115,
120,-0.345,0.12,
121,-0.335,0.15,
122,-0.335,0.17,
123,-0.33,0.2,
124,-0.325,0.19,
125,-0.34,0.175,
126,-0.34,0.165,
127,-0.335,0.17,
128,-0.315,0.165,
129,-0.31,0.15,
130,-0.315,0.105,
131,-0.33,0.11,
132,-0.32,0.11,
133,-0.315,0.125,
134,-0.28,0.12,
135,-0.275,0.11,
136,-0.28,0.095,
137,-0.28,0.115,
138,-0.275,0.155,
139,-0.25,0.195,
140,-0.23,0.18,
141,-0.23,0.15,
142,-0.245,0.115,
143,-0.26,0.085,
144,-0.25,0.095,
145,-0.235,0.105,
146,-0.215,0.125,
147,-0.21,0.1,
148,-0.25,0.105,
149,-0.285,0.11,
150,-0.28,0.135,
151,-0.245,0.16,
152,-0.235,0.145,
153,-0.235,0.125,
154,-0.26,0.08,
155,-0.255,0.075,
156,-0.26,0.1,
157,-0.245,0.125,
158,-0.215,0.125,
159,-0.23,0.13,
160,-0.245,0.125,
161,-0.275,0.13,
162,-0.295,0.145,
163,-0.28,0.16,
164,-0.255,0.145,
165,-0.25,0.135,
166,-0.265,0.11,
167,-0.3,0.1,
168,-0.29,0.115,
169,-0.29,0.135,
170,-0.26,0.145,
171,-0.265,0.11,
172,-0.275,0.1,
173,-0.28,0.095,
174,-0.285,0.09,
175,-0.265,0.115,
176,-0.24,0.125,
177,-0.265,0.14,
178,-0.295,0.14,
179,-0.33,0.13,
180,-0.34,0.13,
181,-0.295,0.115,
182,-0.285,0.105,
183,-0.295,0.12,
184,-0.33,0.095,
185,-0.345,0.105,
186,-0.345,0.12,
187,-0.32,0.12,
188,-0.31,0.105,
189,-0.335,0.085,
190,-0.34,0.075,
191,-0.35,0.08,
192,-0.34,0.115,
193,-0.35,0.155,
194,-0.315,0.16,
195,-0.335,0.16,
196,-0.345,0.13,
197,-0.325,0.095,
198,-0.32,0.07,
199,-0.3,0.095,
200,-0.305,0.105,
201,-0.305,0.105,
202,-0.325,0.09,
203,-0.355,0.08,
204,-0.37,0.1,
205,-0.35,0.105,
206,-0.345,0.12,
207,-0.325,0.115,
208,-0.355,0.1,
209,-0.365,0.09,
210,-0.355,0.105,
211,-0.365,0.12,
212,-0.35,0.14,
213,-0.345,0.13,
214,-0.34,0.12,
215,-0.355,0.11,
216,-0.35,0.1,
217,-0.34,0.085,
218,-0.345,0.095,
219,-0.345,0.09,
220,-0.36,0.09,
221,-0.36,0.09,
222,-0.355,0.09,
223,-0.34,0.095,
224,-0.33,0.1,
225,-0.34,0.09,
226,-0.35,0.085,
227,-0.37,0.065,
228,-0.36,0.1,
229,-0.345,0.105,+
230,-0.36,0.11,
231,-0.37,0.115,
232,-0.37,0.11,
233,-0.37,0.105,
234,-0.375,0.11,
235,-0.36,0.125,
236,-0.355,0.115,
237,-0.355,0.11,
238,-0.365,0.09,
239,-0.39,0.095,
240,-0.39,0.095,
241,-0.38,0.12,
242,-0.365,0.125,
243,-0.385,0.11,
244,-0.38,0.105,
245,-0.375,0.1,
246,-0.375,0.09,
247,-0.355,0.09,
248,-0.34,0.1,
249,-0.335,0.08,
250,-0.335,0.06,
251,-0.35,0.05,
252,-0.365,0.06,
253,-0.375,0.09,
254,-0.365,0.095,
255,-0.37,0.1,
256,-0.375,0.095,
257,-0.395,0.105,
258,-0.4,0.12,
259,-0.38,0.135,
260,-0.35,0.125,
261,-0.345,0.105,
262,-0.345,0.075,
263,-0.35,0.065,
264,-0.36,0.085,
265,-0.355,0.11,
266,-0.345,0.115,
267,-0.365,0.11,
268,-0.395,0.075,
269,-0.4,0.05,
270,-0.395,0.05,
271,-0.35,0.065,
272,-0.325,0.07,
273,-0.335,0.075,
274,-0.35,0.075,
275,-0.385,0.09,
276,-0.37,0.11,
277,-0.36,0.135,
278,-0.345,0.145,
279,-0.33,0.12,
280,-0.335,0.09,
281,-0.34,0.055,
282,-0.36,0.065,
283,-0.34,0.065,
284,-0.335,0.06,
285,-0.345,0.075,
286,-0.39,0.09,
287,-0.4,0.075,
288,-0.395,0.08,
289,-0.36,0.075,
290,-0.345,0.095,
291,-0.345,0.09,
292,-0.345,0.09,
293,-0.34,0.1,
294,-0.35,0.12,
295,-0.315,0.12,
296,-0.29,0.09,
297,-0.3,0.07,
298,-0.32,0.055,
299,-0.325,0.06,
300,-0.305,0.07,
301,-0.31,0.1,
302,-0.28,0.11,
303,-0.265,0.14,
304,-0.245,0.175,
305,-0.235,0.175,
306,-0.185,0.16,
307,-0.1,0.125,
308,-0.005,0.06,
309,0.035,0.01,
310,0.01,-0.015,
311,-0.03,0.0,
312,-0.07,0.04,
313,-0.09,0.075,
314,-0.1,0.095,
315,-0.115,0.09,
316,-0.135,0.065,
317,-0.16,0.06,
318,-0.185,0.065,
319,-0.18,0.065,
320,-0.185,0.075,
321,-0.225,0.07,
322,-0.235,0.04,
323,-0.26,0.035,
324,-0.29,0.04,
325,-0.305,0.06,
326,-0.315,0.085,
327,-0.36,0.085,
328,-0.385,0.09,
329,-0.385,0.08,
330,-0.38,0.095,
331,-0.355,0.11,
332,-0.335,0.105,
333,-0.32,0.09,
334,-0.32,0.065,
335,-0.335,0.045,
336,-0.33,0.04,
337,-0.335,0.07,
338,-0.33,0.075,
339,-0.34,0.045,
340,-0.37,0.04,
341,-0.425,0.005,
342,-0.465,0.025,
343,-0.46,0.055,
344,-0.32,0.09,
345,-0.035,0.075,
346,0.4,0.035,
347,0.895,0.015,
348,1.335,0.035,
349,1.685,0.1,
350,1.9,0.165,
351,2.01,0.2,N
352,1.98,0.215,
353,1.815,0.195,
354,1.47,0.16,
355,0.94,0.1,
356,0.3,0.08,
357,-0.34,0.05,
358,-0.765,-0.01,
359,-0.725,-0.075,
360,-0.55,-0.115,
361,-0.45,-0.145,
362,-0.445,-0.14,
363,-0.46,-0.105,
364,-0.455,-0.075,
365,-0.435,-0.04,
366,-0.415,0.0,
367,-0.39,0.03,
368,-0.395,0.05,
369,-0.415,0.045,
370,-0.435,0.05,
371,-0.45,0.06,
372,-0.44,0.075,
373,-0.415,0.08,
374,-0.405,0.07,
375,-0.415,0.05,
376,-0.425,0.035,
377,-0.43,0.045,
378,-0.43,0.055,
379,-0.435,0.07,
380,-0.425,0.08,
381,-0.42,0.08,
382,-0.42,0.065,
383,-0.415,0.085,
384,-0.41,0.085,
385,-0.41,0.09,
386,-0.39,0.09,
387,-0.39,0.08,
388,-0.415,0.075,
389,-0.43,0.08,
390,-0.455,0.095,
391,-0.41,0.12,
392,-0.385,0.145,
393,-0.38,0.16,
394,-0.39,0.15,
395,-0.385,0.12,
396,-0.38,0.075,
397,-0.385,0.035,
398,-0.355,0.04,
399,-0.355,0.05,
400,-0.35,0.035,
401,-0.35,0.05,
402,-0.36,0.055,
403,-0.345,0.07,
404,-0.315,0.075,
405,-0.29,0.065,
406,-0.29,0.05,
407,-0.32,0.05,
408,-0.3,0.085,
409,-0.275,0.11,
410,-0.255,0.11,
411,-0.245,0.11,
412,-0.255,0.09,
413,-0.25,0.075,
414,-0.225,0.085,
415,-0.215,0.1,
416,-0.22,0.095,
417,-0.19,0.085,
418,-0.16,0.05,
419,-0.115,0.035,
420,-0.075,0.03,
421,-0.07,0.055,
422,-0.085,0.065,
423,-0.095,0.075,
424,-0.095,0.07,
425,-0.07,0.055,
426,-0.02,0.065,
427,0.01,0.07,
428,0.035,0.06,
429,0.015,0.055,
430,0.015,0.05,
431,0.04,0.06,
432,0.1,0.065,
433,0.145,0.07,
434,0.195,0.07,
435,0.235,0.06,
436,0.25,0.025,
437,0.27,0.045,
438,0.3,0.055,
439,0.355,0.07,
440,0.42,0.07,
441,0.465,0.035,
442,0.495,0.0,
443,0.515,-0.015,
444,0.525,0.015,
445,0.555,0.035,
446,0.6,0.035,
447,0.64,0.04,
448,0.65,0.005,
449,0.625,0.005,
450,0.615,0.02,
451,0.605,0.045,
452,0.645,0.05,
453,0.64,0.065,
454,0.6,0.08,
455,0.535,0.12,
456,0.525,0.165,
457,0.55,0.175,
458,0.565,0.135,
459,0.54,0.08,
460,0.52,0.0,
461,0.49,-0.055,
462,0.45,-0.06,
463,0.415,-0.03,
464,0.365,0.0,
465,0.295,0.03,
466,0.26,0.03,
467,0.245,0.03,
468,0.215,0.035,
469,0.165,0.075,
470,0.15,0.075,
471,0.115,0.08,
472,0.085,0.05,
473,0.06,0.05,
474,0.025,0.07,
475,0.03,0.125,
476,0.03,0.125,
477,0.0,0.115,
478,-0.04,0.1,
479,-0.06,0.065,
480,-0.095,0.055,
481,-0.075,0.05,
482,-0.07,0.03,
483,-0.075,0.005,
484,-0.105,-0.015,
485,-0.13,-0.03,
486,-0.14,0.005,
487,-0.15,0.04,
488,-0.135,0.07,
489,-0.17,0.055,
490,-0.195,0.04,
491,-0.21,0.05,
492,-0.21,0.055,
493,-0.195,0.055,
494,-0.21,0.055,
495,-0.21,0.055,
496,-0.225,0.065,
497,-0.245,0.095,
498,-0.26,0.125,
499,-0.25,0.12,
500,-0.24,0.105,
501,-0.24,0.055,
502,-0.245,0.035,
503,-0.25,0.05,
504,-0.255,0.075,
505,-0.25,0.095,
506,-0.23,0.095,
507,-0.225,0.06,
508,-0.225,0.03,
509,-0.205,0.01,
510,-0.2,0.01,
511,-0.215,0.03,
512,-0.25,0.06,
513,-0.285,0.07,
514,-0.275,0.065,
515,-0.255,0.045,
516,-0.245,0.045,
517,-0.22,0.065,
518,-0.21,0.09,
519,-0.235,0.085,
520,-0.26,0.07,
521,-0.265,0.07,
522,-0.26,0.08,
523,-0.23,0.105,
524,-0.185,0.1,
525,-0.16,0.065,
526,-0.19,0.065,
527,-0.19,0.06,
528,-0.175,0.065,
529,-0.16,0.065,
530,-0.145,0.07,
531,-0.145,0.075,
532,-0.155,0.085,
533,-0.16,0.07,
534,-0.15,0.07,
535,-0.14,0.075,
536,-0.135,0.08,
537,-0.13,0.065,
538,-0.14,0.04,
539,-0.155,0.035,
540,-0.17,0.035,
541,-0.16,0.05,
542,-0.155,0.055,
543,-0.165,0.05,
544,-0.17,0.035,
545,-0.17,0.015,
546,-0.165,0.025,
547,-0.155,0.035,
548,-0.125,0.045,
549,-0.13,0.03,
550,-0.17,0.03,
551,-0.205,0.05,
552,-0.22,0.055,
553,-0.21,0.07,
554,-0.195,0.075,
555,-0.205,0.075,
556,-0.21,0.05,
557,-0.21,0.045,
558,-0.185,0.07,
559,-0.175,0.07,
560,-0.18,0.095,
561,-0.195,0.09,
562,-0.2,0.08,
563,-0.215,0.07,
564,-0.235,0.075,
565,-0.225,0.075,
566,-0.21,0.08,
567,-0.225,0.08,
568,-0.245,0.075,
569,-0.245,0.06,
570,-0.25,0.05,
571,-0.255,0.075,
572,-0.245,0.1,
573,-0.27,0.125,
574,-0.27,0.125,
575,-0.25,0.12,
576,-0.255,0.105,
577,-0.245,0.075,
578,-0.215,0.035,
579,-0.215,0.01,
580,-0.245,0.005,
581,-0.27,0.005,
582,-0.29,0.025,
583,-0.285,0.03,
584,-0.24,0.03,
585,-0.235,0.01,
586,-0.255,0.015,
587,-0.275,0.035,
588,-0.32,0.03,
589,-0.305,0.045,
590,-0.265,0.045,
591,-0.255,0.04,
592,-0.26,0.025,
593,-0.29,0.045,
594,-0.335,0.055,
595,-0.31,0.07,
596,-0.265,0.075,
597,-0.27,0.075,
598,-0.305,0.09,
599,-0.335,0.08,
600,-0.335,0.075,
601,-0.315,0.07,
602,-0.295,0.055,
603,-0.29,0.035,
604,-0.3,0.03,
605,-0.31,0.02,
606,-0.31,0.05,
607,-0.3,0.065,
608,-0.295,0.07,
609,-0.285,0.07,
610,-0.29,0.07,
611,-0.31,0.07,
612,-0.32,0.095,
613,-0.3,0.115,
614,-0.285,0.11,
615,-0.295,0.095,
616,-0.3,0.075,
617,-0.32,0.07,
618,-0.345,0.07,
619,-0.3,0.07,
620,-0.295,0.07,
621,-0.3,0.065,
622,-0.305,0.055,
623,-0.305,0.045,
624,-0.315,0.055,
625,-0.31,0.085,
626,-0.295,0.095,
627,-0.29,0.085,
628,-0.32,0.065,
629,-0.31,0.045,
630,-0.315,0.05,
631,-0.285,0.065,
632,-0.27,0.07,
633,-0.265,0.05,
634,-0.275,0.03,
635,-0.28,0.035,
636,-0.3,0.065,
637,-0.335,0.095,
638,-0.325,0.115,
639,-0.325,0.1,
640,-0.325,0.07,
641,-0.33,0.075,
642,-0.34,0.105,
643,-0.31,0.12,
644,-0.295,0.11,
645,-0.29,0.09,
646,-0.29,0.055,
647,-0.28,0.05,
648,-0.275,0.065,
649,-0.27,0.085,
650,-0.26,0.105,
651,-0.27,0.09,
652,-0.295,0.07,
653,-0.31,0.075,
654,-0.31,0.09,
655,-0.295,0.105,
656,-0.275,0.11,
657,-0.285,0.1,
658,-0.315,0.085,
659,-0.315,0.08,
660,-0.31,0.085,
661,-0.295,0.085,
662,-0.28,0.075,
663,-0.28,0.055,
664,-0.285,0.045,
665,-0.29,0.025,
666,-0.295,0.04,
667,-0.285,0.06,
668,-0.285,0.085,
669,-0.26,0.08,
670,-0.275,0.085,
671,-0.29,0.09,
672,-0.28,0.115,
673,-0.285,0.165,
674,-0.235,0.165,
675,-0.21,0.15,
676,-0.185,0.13,
677,-0.175,0.12,
678,-0.15,0.13,
679,-0.11,0.14,
680,-0.085,0.15,
681,-0.025,0.125,
682,0.025,0.07,
683,0.06,0.04,
684,0.05,0.03,
685,0.03,0.035,
686,-0.005,0.06,
687,-0.045,0.085,
688,-0.095,0.09,
689,-0.115,0.085,
690,-0.11,0.065,
691,-0.11,0.05,
692,-0.09,0.04,
693,-0.1,0.03,
694,-0.135,0.035,
695,-0.18,0.05,
696,-0.225,0.065,
697,-0.24,0.085,
698,-0.23,0.075,
699,-0.255,0.07,
700,-0.285,0.055,
701,-0.31,0.055,
702,-0.31,0.05,
703,-0.28,0.065,
704,-0.26,0.065,
705,-0.27,0.07,
706,-0.285,0.07,
707,-0.32,0.085,
708,-0.32,0.085,
709,-0.3,0.09,
710,-0.26,0.1,
711,-0.265,0.085,
712,-0.3,0.08,
713,-0.37,0.065,
714,-0.415,0.055,
715,-0.45,0.055,
716,-0.435,0.06,
717,-0.345,0.07,
718,-0.13,0.055,
719,0.28,0.03,
720,0.79,0.01,
721,1.29,0.03,
722,1.65,0.09,
723,1.865,0.145,
724,1.995,0.185,N
725,2.03,0.225,
726,1.97,0.25,
727,1.805,0.24,
728,1.44,0.185,
729,0.8,0.115,
730,0.16,0.035,
731,-0.48,-0.04,
732,-0.74,-0.085,
733,-0.535,-0.13,
734,-0.355,-0.16,
735,-0.33,-0.17,
736,-0.36,-0.13,
737,-0.39,-0.08,
738,-0.365,-0.015,
739,-0.34,0.025,
740,-0.295,0.06,
741,-0.32,0.065,
742,-0.365,0.06,
743,-0.42,0.085,
744,-0.425,0.1,
745,-0.41,0.115,
746,-0.395,0.11,
747,-0.395,0.1,
748,-0.405,0.095,
749,-0.415,0.105,
750,-0.42,0.105,
751,-0.41,0.125,
752,-0.395,0.13,
753,-0.405,0.12,
754,-0.405,0.105,
755,-0.415,0.12,
756,-0.4,0.135,
757,-0.37,0.145,
758,-0.36,0.145,
759,-0.355,0.125,
760,-0.365,0.12,
761,-0.39,0.125,
762,-0.39,0.15,
763,-0.375,0.165,
764,-0.335,0.175,
765,-0.325,0.14,
766,-0.34,0.105,
767,-0.365,0.08,
768,-0.37,0.095,
769,-0.34,0.115,
770,-0.315,0.125,
771,-0.3,0.125,
772,-0.31,0.11,
773,-0.305,0.09,
774,-0.3,0.095,
775,-0.29,0.125,
776,-0.265,0.145,
777,-0.255,0.125,
778,-0.26,0.11,
779,-0.26,0.115,
780,-0.255,0.13,
781,-0.275,0.165,
782,-0.255,0.17,
783,-0.24,0.17,
784,-0.245,0.14,
785,-0.22,0.125,
786,-0.2,0.115,
787,-0.16,0.12,
788,-0.15,0.12,
789,-0.15,0.115,
790,-0.145,0.145,
791,-0.135,0.14,
792,-0.115,0.135,
793,-0.1,0.135,
794,-0.08,0.11,
795,-0.045,0.095,
796,-0.025,0.075,
797,-0.01,0.075,
798,0.015,0.075,
799,0.05,0.095,
800,0.095,0.085,
801,0.12,0.075,
802,0.125,0.055,
803,0.13,0.06,
804,0.165,0.075,
805,0.22,0.1,
806,0.275,0.115,
807,0.31,0.105,
808,0.35,0.085,
809,0.375,0.08,
810,0.395,0.08,
811,0.425,0.095,
812,0.48,0.105,
813,0.545,0.095,
814,0.575,0.07,
815,0.57,0.07,
816,0.575,0.07,
817,0.6,0.075,
818,0.64,0.075,
819,0.635,0.075,
820,0.615,0.06,
821,0.615,0.045,
822,0.605,0.03,
823,0.61,0.02,
824,0.6,0.04,
825,0.575,0.055,
826,0.515,0.04,
827,0.495,0.035,
828,0.44,0.055,
829,0.44,0.08,
830,0.445,0.08,
831,0.41,0.095,
832,0.34,0.09,
833,0.265,0.065,
834,0.245,0.065,
835,0.23,0.09,
836,0.215,0.105,
837,0.175,0.1,
838,0.125,0.11,
839,0.055,0.105,
840,0.035,0.085,
841,0.015,0.11,
842,0.01,0.13,
843,-0.015,0.1,
844,-0.04,0.085,
845,-0.045,0.055,
846,-0.07,0.06,
847,-0.055,0.095,
848,-0.06,0.1,
849,-0.09,0.11,
850,-0.125,0.095,
851,-0.165,0.095,
852,-0.21,0.095,
853,-0.2,0.105,
854,-0.2,0.115,
855,-0.205,0.115,
856,-0.22,0.1,
857,-0.255,0.105,
858,-0.255,0.095,
859,-0.27,0.1,
860,-0.265,0.105,
861,-0.255,0.095,
862,-0.25,0.1,
863,-0.275,0.105,
864,-0.285,0.13,
865,-0.295,0.14,
866,-0.29,0.13,
867,-0.275,0.095,
868,-0.28,0.065,
869,-0.3,0.06,
870,-0.31,0.07,
871,-0.315,0.1,
872,-0.32,0.11,
873,-0.285,0.11,
874,-0.325,0.1,
875,-0.34,0.105,
876,-0.355,0.115,
877,-0.35,0.15,
878,-0.34,0.16,
879,-0.335,0.15,
880,-0.335,0.125,
881,-0.345,0.115,
882,-0.325,0.115,
883,-0.33,0.115,
884,-0.345,0.135,
885,-0.345,0.12,
886,-0.36,0.13,
887,-0.33,0.14,
888,-0.32,0.14,
889,-0.33,0.16,
890,-0.325,0.145,
891,-0.33,0.105,
892,-0.335,0.08,
893,-0.315,0.095,
894,-0.31,0.12,
895,-0.3,0.115,
896,-0.27,0.105,
897,-0.27,0.075,
898,-0.275,0.075,
899,-0.29,0.07,
900,-0.295,0.105,
901,-0.3,0.115,
902,-0.28,0.115,
903,-0.295,0.105,
904,-0.285,0.09,
905,-0.295,0.09,
906,-0.28,0.1,
907,-0.26,0.11,
908,-0.27,0.115,
909,-0.285,0.11,
910,-0.3,0.1,
911,-0.29,0.105,
912,-0.29,0.115,
913,-0.29,0.125,
914,-0.275,0.135,
915,-0.3,0.12,
916,-0.305,0.105,
917,-0.29,0.095,
918,-0.29,0.1,
919,-0.28,0.12,
920,-0.28,0.125,
921,-0.27,0.13,
922,-0.295,0.115,
923,-0.305,0.12,
924,-0.32,0.135,
925,-0.32,0.14,
926,-0.3,0.135,
927,-0.29,0.12,
928,-0.285,0.11,
929,-0.3,0.095,
930,-0.305,0.095,
931,-0.305,0.11,
932,-0.3,0.11,
933,-0.315,0.105,
934,-0.32,0.09,
935,-0.315,0.095,
936,-0.325,0.105,
937,-0.305,0.125,
938,-0.27,0.12,
939,-0.275,0.115,
940,-0.29,0.09,
941,-0.32,0.1,
942,-0.32,0.1,
943,-0.285,0.11,
944,-0.26,0.115,
945,-0.3,0.12,
946,-0.335,0.125,
947,-0.355,0.14,
948,-0.34,0.16,
949,-0.31,0.14,
950,-0.295,0.135,
951,-0.295,0.12,
952,-0.31,0.1,
953,-0.33,0.105,
954,-0.355,0.11,
955,-0.33,0.105,
956,-0.325,0.105,
957,-0.315,0.08,
958,-0.33,0.07,
959,-0.34,0.08,
960,-0.34,0.1,
961,-0.3,0.12,
962,-0.275,0.125,
963,-0.295,0.1,
964,-0.33,0.095,
965,-0.365,0.075,
966,-0.36,0.085,
967,-0.33,0.105,
968,-0.315,0.1,
969,-0.31,0.11,
970,-0.315,0.095,
971,-0.335,0.09,
972,-0.34,0.115,
973,-0.325,0.13,
974,-0.32,0.13,
975,-0.31,0.12,
976,-0.32,0.115,
977,-0.305,0.095,
978,-0.31,0.09,
979,-0.31,0.09,
980,-0.315,0.085,
981,-0.315,0.075,
982,-0.325,0.075,
983,-0.33,0.075,
984,-0.345,0.105,
985,-0.32,0.13,
986,-0.3,0.13,
987,-0.3,0.135,
988,-0.305,0.135,
989,-0.32,0.15,
990,-0.32,0.165,
991,-0.305,0.165,
992,-0.31,0.145,
993,-0.34,0.095,
994,-0.365,0.075,
995,-0.365,0.085,
996,-0.34,0.115,
997,-0.325,0.15,
998,-0.325,0.17,
999,-0.31,0.095,
1000,-0.315,0.04,
1001,-0.305,0.015,
1002,-0.29,0.025,
1003,-0.285,0.025,
1004,-0.285,0.025,
1005,-0.31,0.03,
1006,-0.32,0.035,
1007,-0.3,0.065,
1008,-0.29,0.09,
1009,-0.285,0.105,
1010,-0.33,0.1,
1011,-0.35,0.095,
1012,-0.355,0.095,
1013,-0.34,0.115,
1014,-0.32,0.115,
1015,-0.32,0.12,
1016,-0.315,0.115,
1017,-0.33,0.115,
1018,-0.33,0.09,
1019,-0.325,0.08,
1020,-0.295,0.055,
1021,-0.29,0.045,
1022,-0.295,0.04,
1023,-0.28,0.045,
1024,-0.33,0.06,
1025,-0.33,0.1,
1026,-0.33,0.115,
1027,-0.3,0.11,
1028,-0.29,0.085,
1029,-0.29,0.06,
1030,-0.295,0.05,
1031,-0.315,0.07,
1032,-0.325,0.085,
1033,-0.285,0.095,
1034,-0.28,0.085,
1035,-0.26,0.095,
1036,-0.265,0.105,
1037,-0.25,0.12,
1038,-0.205,0.135,
1039,-0.165,0.155,
1040,-0.14,0.165,
1041,-0.135,0.155,
1042,-0.14,0.13,
1043,-0.105,0.125,
1044,-0.075,0.13,
1045,0.01,0.145,
1046,0.035,0.15,
1047,0.035,0.115,
1048,0.025,0.075,
1049,-0.01,0.04,
1050,-0.03,0.045,
1051,-0.07,0.05,
1052,-0.105,0.055,
1053,-0.115,0.055,
1054,-0.125,0.05,
1055,-0.16,0.065,
1056,-0.165,0.085,
1057,-0.17,0.105,
1058,-0.185,0.105,
1059,-0.21,0.105,
1060,-0.25,0.11,
1061,-0.265,0.095,
1062,-0.275,0.09,
1063,-0.275,0.085,
1064,-0.305,0.07,
1065,-0.285,0.065,
1066,-0.275,0.075,
1067,-0.25,0.075,
1068,-0.245,0.075,
1069,-0.26,0.075,
1070,-0.295,0.075,
1071,-0.305,0.08,
1072,-0.325,0.075,
1073,-0.34,0.09,
1074,-0.345,0.1,
1075,-0.36,0.115,
1076,-0.39,0.095,
1077,-0.435,0.06,
1078,-0.43,0.025,
1079,-0.285,0.02,
1080,0.02,0.06,
1081,0.47,0.075,
1082,1.005,0.1,
1083,1.47,0.11,
1084,1.77,0.135,
1085,1.95,0.17,
1086,2.03,0.195,N
1087,2.01,0.215,
1088,1.865,0.215,
1089,1.535,0.17,
1090,0.95,0.1,
1091,0.31,0.05,
1092,-0.33,-0.02,
1093,-0.75,-0.07,
1094,-0.615,-0.13,
1095,-0.415,-0.17,
1096,-0.355,-0.165,
1097,-0.385,-0.125,
1098,-0.405,-0.045,
1099,-0.365,0.015,
1100,-0.33,0.05,
1101,-0.335,0.075,
1102,-0.35,0.075,
1103,-0.39,0.1,
1104,-0.41,0.13,
1105,-0.41,0.15,
1106,-0.415,0.15,
1107,-0.39,0.125,
1108,-0.39,0.095,
1109,-0.38,0.085,
1110,-0.385,0.105,
1111,-0.38,0.125,
1112,-0.395,0.125,
1113,-0.415,0.105,
1114,-0.435,0.105,
1115,-0.425,0.12,
1116,-0.405,0.145,
1117,-0.385,0.175,
1118,-0.39,0.155,
1119,-0.395,0.15,
1120,-0.4,0.115,
1121,-0.405,0.125,
1122,-0.39,0.125,
1123,-0.375,0.125,
1124,-0.385,0.11,
1125,-0.37,0.11,
1126,-0.36,0.11,
1127,-0.355,0.12,
1128,-0.335,0.12,
1129,-0.315,0.125,
1130,-0.33,0.13,
1131,-0.36,0.115,
1132,-0.355,0.105,
1133,-0.35,0.125,
1134,-0.345,0.135,
1135,-0.305,0.135,
1136,-0.295,0.135,
1137,-0.26,0.115,
1138,-0.295,0.115,
1139,-0.3,0.135,
1140,-0.29,0.17,
1141,-0.265,0.185,
1142,-0.255,0.165,
1143,-0.24,0.12,
1144,-0.25,0.105,
1145,-0.25,0.12,
1146,-0.235,0.16,
1147,-0.22,0.17,
1148,-0.185,0.145,
1149,-0.165,0.105,
1150,-0.15,0.07,
1151,-0.155,0.075,
1152,-0.13,0.105,
1153,-0.12,0.15,
1154,-0.105,0.155,
1155,-0.095,0.13,
1156,-0.06,0.1,
1157,-0.04,0.09,
1158,0.0,0.11,
1159,0.02,0.105,
1160,0.03,0.09,
1161,0.05,0.07,
1162,0.06,0.06,
1163,0.095,0.07,
1164,0.125,0.085,
1165,0.17,0.11,
1166,0.2,0.105,
1167,0.245,0.09,
1168,0.255,0.085,
1169,0.285,0.095,
1170,0.33,0.1,
1171,0.375,0.095,
1172,0.4,0.085,
1173,0.42,0.075,
1174,0.42,0.055,
1175,0.455,0.055,
1176,0.5,0.07,
1177,0.54,0.07,
1178,0.56,0.08,
1179,0.56,0.08,
1180,0.58,0.085,
1181,0.58,0.075,
1182,0.585,0.07,
1183,0.595,0.075,
1184,0.585,0.07,
1185,0.56,0.055,
1186,0.525,0.05,
1187,0.49,0.085,
1188,0.475,0.12,
1189,0.455,0.125,
1190,0.435,0.1,
1191,0.41,0.06,
1192,0.355,0.035,
1193,0.285,0.04,
1194,0.245,0.08,
1195,0.205,0.1,
1196,0.175,0.085,
1197,0.15,0.075,
1198,0.145,0.075,
1199,0.12,0.095,
1200,0.06,0.125,
1201,0.03,0.165,
1202,-0.005,0.145,
1203,-0.05,0.125,
1204,-0.065,0.09,
1205,-0.06,0.085,
1206,-0.065,0.075,
1207,-0.08,0.085,
1208,-0.095,0.075,
1209,-0.125,0.075,
1210,-0.15,0.065,
1211,-0.16,0.09,
1212,-0.16,0.09,
1213,-0.16,0.095,
1214,-0.185,0.095,
1215,-0.22,0.08,
1216,-0.25,0.085,
1217,-0.245,0.12,
1218,-0.245,0.13,
1219,-0.245,0.14,
1220,-0.265,0.14,
1221,-0.27,0.12,
1222,-0.275,0.105,
1223,-0.26,0.1,
1224,-0.255,0.11,
1225,-0.26,0.105,
1226,-0.3,0.125,
1227,-0.335,0.11,
1228,-0.345,0.115,
1229,-0.325,0.11,
1230,-0.315,0.125,
1231,-0.29,0.12,
1232,-0.29,0.1,
1233,-0.31,0.08,
1234,-0.33,0.075,
1235,-0.34,0.09,
1236,-0.335,0.09,
1237,-0.32,0.115,
1238,-0.32,0.1,
1239,-0.33,0.08,
1240,-0.335,0.075,
1241,-0.34,0.085,
1242,-0.32,0.11,
1243,-0.285,0.12,
1244,-0.265,0.115,
1245,-0.28,0.12,
1246,-0.29,0.095,
1247,-0.315,0.095,
1248,-0.305,0.11,
1249,-0.28,0.11,
1250,-0.29,0.115,
1251,-0.3,0.115,
1252,-0.305,0.11,
1253,-0.29,0.13,
1254,-0.275,0.13,
1255,-0.27,0.15,
1256,-0.28,0.185,
1257,-0.295,0.16,
1258,-0.315,0.145,
1259,-0.28,0.12,
1260,-0.24,0.11,
1261,-0.225,0.11,
1262,-0.245,0.11,
1263,-0.255,0.105,
1264,-0.26,0.085,
1265,-0.265,0.075,
1266,-0.27,0.09,
1267,-0.25,0.11,
1268,-0.245,0.12,
1269,-0.25,0.125,
1270,-0.25,0.11,
1271,-0.255,0.1,
1272,-0.255,0.11,
1273,-0.225,0.1,
1274,-0.215,0.1,
1275,-0.25,0.075,
1276,-0.255,0.095,
1277,-0.255,0.095,
1278,-0.245,0.12,
1279,-0.23,0.11,
1280,-0.225,0.115,
1281,-0.235,0.105,
1282,-0.245,0.11,
1283,-0.24,0.1,
1284,-0.25,0.095,
1285,-0.265,0.095,
1286,-0.275,0.08,
1287,-0.29,0.08,
1288,-0.295,0.075,
1289,-0.31,0.075,
1290,-0.3,0.095,
1291,-0.29,0.11,
1292,-0.285,0.125,
1293,-0.29,0.12,
1294,-0.305,0.095,
1295,-0.3,0.08,
1296,-0.29,0.08,
1297,-0.295,0.075,
1298,-0.305,0.09,
1299,-0.31,0.105,
1300,-0.315,0.095,
1301,-0.32,0.1,
1302,-0.285,0.105,
1303,-0.275,0.12,
1304,-0.28,0.095,
1305,-0.295,0.075,
1306,-0.3,0.055,
1307,-0.31,0.045,
1308,-0.295,0.05,
1309,-0.29,0.075,
1310,-0.305,0.09,
1311,-0.32,0.1,
1312,-0.335,0.11,
1313,-0.32,0.1,
1314,-0.31,0.11,
1315,-0.305,0.095,
1316,-0.3,0.085,
1317,-0.315,0.07,
1318,-0.33,0.06,
1319,-0.345,0.085,
1320,-0.335,0.1,
1321,-0.32,0.11,
1322,-0.31,0.1,
1323,-0.325,0.08,
1324,-0.345,0.08,
1325,-0.37,0.085,
1326,-0.345,0.105,
1327,-0.325,0.12,
1328,-0.325,0.12,
1329,-0.325,0.105,
1330,-0.335,0.09,
1331,-0.335,0.095,
1332,-0.315,0.09,
1333,-0.3,0.095,
1334,-0.315,0.065,
1335,-0.31,0.055,
1336,-0.315,0.05,
1337,-0.33,0.08,
1338,-0.32,0.1,
1339,-0.3,0.12,
1340,-0.315,0.12,
1341,-0.325,0.095,
1342,-0.335,0.075,
1343,-0.325,0.09,
1344,-0.315,0.125,
1345,-0.315,0.15,
1346,-0.31,0.11,
1347,-0.35,0.09,
1348,-0.36,0.075,
1349,-0.345,0.065,
1350,-0.32,0.065,
1351,-0.295,0.08,
1352,-0.29,0.07,
1353,-0.295,0.06,
1354,-0.32,0.035,
1355,-0.325,0.045,
1356,-0.325,0.08,
1357,-0.32,0.095,
1358,-0.34,0.105,
1359,-0.33,0.095,
1360,-0.33,0.075,
1361,-0.335,0.075,
1362,-0.305,0.075,
1363,-0.31,0.085,
1364,-0.295,0.075,
1365,-0.325,0.075,
1366,-0.34,0.075,
1367,-0.34,0.095,
1368,-0.315,0.12,
1369,-0.305,0.14,
1370,-0.31,0.13,
1371,-0.32,0.1,
1372,-0.33,0.095,
1373,-0.325,0.1,
1374,-0.31,0.11,
1375,-0.29,0.085,
1376,-0.295,0.035,
1377,-0.31,0.005,
1378,-0.305,-0.01,
1379,-0.305,0.015,
1380,-0.295,0.05,
1381,-0.285,0.075,
1382,-0.29,0.07,
1383,-0.285,0.07,
1384,-0.295,0.06,
1385,-0.31,0.06,
1386,-0.315,0.06,
1387,-0.315,0.08,
1388,-0.33,0.055,
1389,-0.325,0.065,
1390,-0.335,0.05,
1391,-0.32,0.06,
1392,-0.3,0.075,
1393,-0.275,0.095,
1394,-0.26,0.08,
1395,-0.265,0.07,
1396,-0.295,0.075,
1397,-0.3,0.095,
1398,-0.29,0.13,
1399,-0.235,0.17,
1400,-0.225,0.165,
1401,-0.19,0.15,
1402,-0.19,0.14,
1403,-0.155,0.13,
1404,-0.085,0.115,
1405,-0.02,0.1,
1406,0.055,0.065,
1407,0.07,0.035,
1408,0.025,0.015,
1409,0.005,0.01,
1410,-0.02,0.015,
1411,-0.06,0.035,
1412,-0.08,0.045,
1413,-0.085,0.04,
1414,-0.115,0.04,
1415,-0.135,0.04,
1416,-0.14,0.06,
1417,-0.175,0.065,
1418,-0.21,0.08,
1419,-0.235,0.075,
1420,-0.265,0.065,
1421,-0.285,0.055,
1422,-0.295,0.055,
1423,-0.305,0.075,
1424,-0.33,0.08,
1425,-0.325,0.065,
1426,-0.325,0.08,
1427,-0.33,0.065,
1428,-0.31,0.04,
1429,-0.31,0.04,
1430,-0.315,0.04,
1431,-0.345,0.06,
1432,-0.35,0.065,
1433,-0.335,0.05,
1434,-0.315,0.055,
1435,-0.31,0.05,
1436,-0.325,0.05,
1437,-0.39,0.03,
1438,-0.48,0.02,
1439,-0.5,0.015,
1440,-0.445,0.02,
1441,-0.265,0.035,
1442,0.02,0.025,
1443,0.455,0.03,
1444,0.94,0.05,
1445,1.42,0.1,
1446,1.73,0.125,
1447,1.92,0.145,
1448,2.01,0.135,N
1449,1.99,0.15,
1450,1.825,0.18,
1451,1.48,0.175,
1452,0.95,0.15,
1453,0.31,0.1,
1454,-0.33,0.01,
1455,-0.755,-0.085,
1456,-0.7,-0.155,
1457,-0.51,-0.195,
1458,-0.42,-0.185,
1459,-0.41,-0.16,
1460,-0.415,-0.105,
1461,-0.39,-0.08,
1462,-0.405,-0.055,
1463,-0.405,-0.015,
1464,-0.425,0.035,
1465,-0.41,0.075,
1466,-0.41,0.06,
1467,-0.41,0.07,
1468,-0.425,0.055,
1469,-0.435,0.04,
1470,-0.43,0.045,
1471,-0.425,0.06,
1472,-0.43,0.07,
1473,-0.435,0.07,
1474,-0.45,0.08,
1475,-0.465,0.1,
1476,-0.445,0.12,
1477,-0.435,0.095,
1478,-0.43,0.06,
1479,-0.45,0.035,
1480,-0.465,0.045,
1481,-0.47,0.085,
1482,-0.455,0.09,
1483,-0.42,0.095,
1484,-0.42,0.1,
1485,-0.41,0.09,
1486,-0.425,0.065,
1487,-0.415,0.06,
1488,-0.395,0.08,
1489,-0.375,0.07,
1490,-0.39,0.07,
1491,-0.405,0.055,
1492,-0.4,0.06,
1493,-0.4,0.07,
1494,-0.395,0.09,
1495,-0.405,0.11,
1496,-0.38,0.09,
1497,-0.35,0.065,
1498,-0.345,0.06,
1499,-0.345,0.07,
1500,-0.32,0.085,
1501,-0.3,0.085,
1502,-0.32,0.085,
1503,-0.34,0.075,
1504,-0.355,0.07,
1505,-0.35,0.07,
1506,-0.33,0.07,
1507,-0.285,0.095,
1508,-0.265,0.07,
1509,-0.28,0.075,
1510,-0.285,0.08,
1511,-0.275,0.085,
1512,-0.245,0.09,
1513,-0.215,0.095,
1514,-0.205,0.055,
1515,-0.2,0.03,
1516,-0.185,0.015,
1517,-0.18,0.03,
1518,-0.16,0.05,
1519,-0.14,0.05,
1520,-0.125,0.03,
1521,-0.115,0.02,
1522,-0.105,0.02,
1523,-0.1,0.03,
1524,-0.08,0.04,
1525,-0.045,0.065,
1526,-0.045,0.065,
1527,-0.03,0.07,
1528,0.005,0.055,
1529,0.035,0.05,
1530,0.09,0.045,
1531,0.13,0.06,
1532,0.175,0.065,
1533,0.18,0.07,
1534,0.19,0.07,
1535,0.235,0.055,
1536,0.265,0.06,
1537,0.345,0.04,
1538,0.39,0.01,
1539,0.395,-0.005,
1540,0.395,0.0,
1541,0.415,0.025,
1542,0.45,0.03,
1543,0.495,0.025,
1544,0.53,0.02,
1545,0.535,0.0,
1546,0.55,-0.025,
1547,0.54,-0.015,
1548,0.545,0.015,
1549,0.55,0.03,
1550,0.56,0.01,
1551,0.545,-0.02,
1552,0.535,-0.04,
1553,0.515,-0.035,
1554,0.49,-0.015,
1555,0.475,-0.005,
1556,0.43,-0.005,
1557,0.395,-0.015,
1558,0.355,-0.01,
1559,0.31,0.01,
1560,0.28,0.035,
1561,0.255,0.055,
1562,0.225,0.075,
1563,0.175,0.05,
1564,0.15,0.04,
1565,0.12,0.045,
1566,0.105,0.035,
1567,0.1,0.055,
1568,0.05,0.055,
1569,0.025,0.045,
1570,-0.01,0.04,
1571,-0.02,0.04,
1572,-0.035,0.045,
1573,-0.055,0.03,
1574,-0.08,0.02,
1575,-0.09,0.0,
1576,-0.13,-0.005,
1577,-0.155,0.015,
1578,-0.185,0.04,
1579,-0.18,0.06,
1580,-0.19,0.05,
1581,-0.2,0.035,
1582,-0.225,0.025,
1583,-0.245,0.025,
1584,-0.24,0.05,
1585,-0.245,0.045,
1586,-0.25,0.05,
1587,-0.28,0.045,
1588,-0.3,0.045,
1589,-0.325,0.075,
1590,-0.33,0.08,
1591,-0.315,0.07,
1592,-0.335,0.07,
1593,-0.35,0.045,
1594,-0.37,0.04,
1595,-0.36,0.055,
1596,-0.35,0.055,
1597,-0.33,0.06,
1598,-0.325,0.055,
1599,-0.33,0.03,
1600,-0.365,0.025,
1601,-0.39,0.025,
1602,-0.395,0.04,
1603,-0.39,0.055,
1604,-0.365,0.06,
1605,-0.37,0.055,
1606,-0.375,0.055,
1607,-0.38,0.07,
1608,-0.365,0.1,
1609,-0.345,0.09,
1610,-0.355,0.08,
1611,-0.365,0.065,
1612,-0.37,0.07,
1613,-0.39,0.075,
1614,-0.37,0.075,
1615,-0.355,0.09,
1616,-0.35,0.085,
1617,-0.36,0.07,
1618,-0.375,0.05,
1619,-0.37,0.03,
1620,-0.37,0.04,
1621,-0.35,0.06,
1622,-0.345,0.055,
1623,-0.345,0.045,
1624,-0.365,0.055,
1625,-0.35,0.085,
1626,-0.345,0.12,
1627,-0.335,0.12,
1628,-0.33,0.105,
1629,-0.335,0.07,
1630,-0.32,0.055,
1631,-0.315,0.05,
1632,-0.305,0.065,
1633,-0.295,0.075,
1634,-0.305,0.1,
1635,-0.31,0.095,
1636,-0.305,0.08,
1637,-0.295,0.085,
1638,-0.29,0.07,
1639,-0.295,0.05,
1640,-0.31,0.035,
1641,-0.325,0.01,
1642,-0.335,-0.01,
1643,-0.32,0.02,
1644,-0.29,0.035,
1645,-0.295,0.04,
1646,-0.3,0.04,
1647,-0.31,0.035,
1648,-0.32,0.04,
1649,-0.315,0.06,
1650,-0.285,0.08,
1651,-0.26,0.075,
1652,-0.275,0.06,
1653,-0.3,0.025,
1654,-0.315,0.005,
1655,-0.31,0.02,
1656,-0.3,0.04,
1657,-0.29,0.05,
1658,-0.3,0.045,
1659,-0.315,0.025,
1660,-0.315,0.01,
1661,-0.315,0.025,
1662,-0.315,0.055,
1663,-0.31,0.065,
1664,-0.315,0.055,
1665,-0.315,0.015,
1666,-0.34,0.01,
1667,-0.355,0.02,
1668,-0.345,0.04,
1669,-0.33,0.04,
1670,-0.325,0.035,
1671,-0.315,0.03,
1672,-0.35,0.02,
1673,-0.345,0.015,
1674,-0.34,0.025,
1675,-0.335,0.015,
1676,-0.34,0.015,
1677,-0.355,0.0,
1678,-0.375,0.015,
1679,-0.365,0.05,
1680,-0.35,0.07,
1681,-0.335,0.095,
1682,-0.35,0.085,
1683,-0.36,0.075,
1684,-0.37,0.045,
1685,-0.37,0.04,
1686,-0.37,0.03,
1687,-0.355,0.015,
1688,-0.355,0.005,
1689,-0.37,0.0,
1690,-0.385,0.005,
1691,-0.375,0.015,
1692,-0.365,0.035,
1693,-0.34,0.02,
1694,-0.345,0.015,
1695,-0.36,0.015,
1696,-0.37,0.01,
1697,-0.365,0.025,
1698,-0.36,0.02,
1699,-0.365,0.025,
1700,-0.35,0.02,
1701,-0.355,0.025,
1702,-0.38,0.005,
1703,-0.39,0.02,
1704,-0.39,0.045,
1705,-0.365,0.055,
1706,-0.35,0.055,
1707,-0.36,0.035,
1708,-0.4,0.025,
1709,-0.415,0.03,
1710,-0.395,0.025,
1711,-0.385,0.025,
1712,-0.385,0.015,
1713,-0.37,0.01,
1714,-0.385,0.015,
1715,-0.375,0.005,
1716,-0.375,0.02,
1717,-0.365,0.04,
1718,-0.35,0.04,
1719,-0.38,0.025,
1720,-0.39,0.015,
1721,-0.385,0.01,
1722,-0.4,0.03,
1723,-0.365,0.045,
1724,-0.375,0.035,
1725,-0.39,0.01,
1726,-0.41,0.0,
1727,-0.395,0.005,
1728,-0.4,0.015,
1729,-0.4,0.045,
1730,-0.405,0.05,
1731,-0.4,0.025,
1732,-0.385,0.02,
1733,-0.38,0.005,
1734,-0.365,0.005,
1735,-0.39,0.015,
1736,-0.395,0.025,
1737,-0.415,0.025,
1738,-0.43,0.035,
1739,-0.42,0.05,
1740,-0.405,0.055,
1741,-0.39,0.04,
1742,-0.37,0.035,
1743,-0.38,0.01,
1744,-0.38,0.005,
1745,-0.395,0.005,
1746,-0.4,0.015,
1747,-0.395,0.04,
1748,-0.385,0.035,
1749,-0.395,0.03,
1750,-0.405,0.015,
1751,-0.395,0.02,
1752,-0.4,0.035,
1753,-0.385,0.025,
1754,-0.37,0.03,
1755,-0.39,0.02,
1756,-0.395,-0.01,
1757,-0.395,-0.005,
1758,-0.39,0.01,
1759,-0.38,0.035,
1760,-0.395,0.03,
1761,-0.42,0.035,
1762,-0.415,0.025,
1763,-0.385,0.02,
1764,-0.355,0.015,
1765,-0.355,0.01,
1766,-0.355,0.01,
1767,-0.365,0.005,
1768,-0.38,0.005,
1769,-0.375,0.015,
1770,-0.375,0.045,
1771,-0.365,0.055,
1772,-0.37,0.05,
1773,-0.37,0.05,
1774,-0.39,0.06,
1775,-0.385,0.06,
1776,-0.365,0.055,
1777,-0.33,0.075,
1778,-0.32,0.065,
1779,-0.3,0.085,
1780,-0.31,0.065,
1781,-0.29,0.075,
1782,-0.255,0.085,
1783,-0.215,0.075,
1784,-0.14,0.055,
1785,-0.08,0.025,
1786,-0.065,-0.02,
1787,-0.06,-0.03,
1788,-0.085,-0.035,
1789,-0.095,-0.03,
1790,-0.125,-0.03,
1791,-0.175,-0.02,
1792,-0.19,-0.005,
1793,-0.215,0.02,
1794,-0.22,0.025,
1795,-0.2,0.03,
1796,-0.205,0.015,
1797,-0.24,-0.01,
1798,-0.29,-0.02,
1799,-0.29,-0.015,
1800,-0.305,-0.02,
1801,-0.31,-0.01,
1802,-0.36,0.0,
1803,-0.415,0.025,
1804,-0.455,0.035,
1805,-0.445,0.065,
1806,-0.435,0.07,
1807,-0.41,0.06,
1808,-0.4,0.04,
1809,-0.41,0.02,
1810,-0.425,0.005,
1811,-0.435,0.03,
1812,-0.41,0.055,
1813,-0.39,0.04,
1814,-0.37,0.01,
1815,-0.385,-0.03,
1816,-0.405,-0.035,
1817,-0.43,-0.015,
1818,-0.47,0.005,
1819,-0.51,0.01,
1820,-0.53,-0.01,
1821,-0.505,-0.025,
1822,-0.405,-0.03,
1823,-0.15,-0.025,
1824,0.285,-0.01,
1825,0.83,-0.015,
1826,1.33,-0.005,
1827,1.675,0.035,
1828,1.85,0.065,
1829,1.94,0.11,N
1830,1.955,0.165,
1831,1.86,0.21,
1832,1.595,0.185,
1833,1.1,0.11,
1834,0.46,0.045,
1835,-0.18,-0.005,
1836,-0.82,-0.04,
1837,-0.83,-0.08,
1838,-0.65,-0.13,
1839,-0.54,-0.185,
1840,-0.54,-0.23,
1841,-0.545,-0.21,
1842,-0.53,-0.16,
1843,-0.5,-0.105,
1844,-0.505,-0.055,
1845,-0.5,-0.035,
1846,-0.53,-0.01,
1847,-0.51,0.02,
1848,-0.505,0.05,
1849,-0.495,0.06,
1850,-0.48,0.04,
1851,-0.51,-0.005,
1852,-0.525,-0.01,
1853,-0.52,0.01,
1854,-0.505,0.045,
1855,-0.485,0.055,
1856,-0.495,0.03,
1857,-0.515,0.015,
1858,-0.53,0.01,
1859,-0.535,0.04,
1860,-0.525,0.07,
1861,-0.5,0.075,
1862,-0.485,0.075,
1863,-0.52,0.075,
1864,-0.505,0.075,
1865,-0.505,0.085,
1866,-0.485,0.085,
1867,-0.475,0.075,
1868,-0.465,0.035,
1869,-0.475,0.015,
1870,-0.485,0.0,
1871,-0.485,0.015,
1872,-0.46,0.04,
1873,-0.46,0.045,
1874,-0.49,0.035,
1875,-0.5,0.04,
1876,-0.5,0.045,
1877,-0.475,0.045,
1878,-0.455,0.065,
1879,-0.43,0.075,
1880,-0.405,0.07,
1881,-0.415,0.05,
1882,-0.445,0.025,
1883,-0.47,0.01,
1884,-0.44,0.025,
1885,-0.395,0.03,
1886,-0.405,0.035,
1887,-0.415,0.035,
1888,-0.43,0.035,
1889,-0.42,0.03,
1890,-0.41,0.05,
1891,-0.36,0.05,
1892,-0.335,0.07,
1893,-0.34,0.07,
1894,-0.34,0.07,
1895,-0.33,0.055,
1896,-0.305,0.055,
1897,-0.27,0.045,
1898,-0.285,0.025,
1899,-0.29,0.035,
1900,-0.29,0.05,
1901,-0.265,0.05,
1902,-0.225,0.055,
1903,-0.175,0.035,
1904,-0.15,0.005,
1905,-0.125,-0.015,
1906,-0.135,-0.045,
1907,-0.13,-0.025,
1908,-0.135,0.02,
1909,-0.11,0.055,
1910,-0.1,0.05,
1911,-0.065,0.04,
1912,-0.05,0.025,
1913,0.005,0.025,
1914,0.035,0.04,
1915,0.09,0.055,
1916,0.125,0.045,
1917,0.155,0.03,
1918,0.17,0.0,
1919,0.21,-0.005,
1920,0.26,0.0,
1921,0.3,0.01,
1922,0.345,0.0,
1923,0.375,-0.025,
1924,0.405,-0.05,
1925,0.41,-0.04,
1926,0.435,-0.04,
1927,0.47,-0.02,
1928,0.495,-0.02,
1929,0.495,-0.035,
1930,0.49,-0.02,
1931,0.485,0.0,
1932,0.495,0.04,
1933,0.52,0.04,
1934,0.52,0.015,
1935,0.5,-0.02,
1936,0.465,-0.035,
1937,0.415,-0.02,
1938,0.41,0.02,
1939,0.4,0.025,
1940,0.385,0.0,
1941,0.355,0.0,
1942,0.29,-0.01,
1943,0.25,0.01,
1944,0.245,0.035,
1945,0.23,0.04,
1946,0.2,0.02,
1947,0.15,0.01,
1948,0.1,0.02,
1949,0.09,0.035,
1950,0.06,0.05,
1951,0.05,0.045,
1952,0.035,0.01,
1953,0.01,-0.01,
1954,-0.04,-0.015,
1955,-0.08,0.025,
1956,-0.08,0.055,
1957,-0.095,0.075,
1958,-0.105,0.09,
1959,-0.115,0.07,
1960,-0.15,0.05,
1961,-0.175,0.035,
1962,-0.16,0.025,
1963,-0.155,0.015,
1964,-0.165,0.01,
1965,-0.195,0.005,
1966,-0.21,0.01,
1967,-0.23,0.03,
1968,-0.225,0.035,
1969,-0.24,0.065,
1970,-0.255,0.055,
1971,-0.265,0.04,
1972,-0.31,0.03,
1973,-0.32,0.045,
1974,-0.31,0.08,
1975,-0.295,0.1,
1976,-0.3,0.1,
1977,-0.31,0.09,
1978,-0.32,0.075,
1979,-0.33,0.055,
1980,-0.345,0.075,
1981,-0.36,0.065,
1982,-0.345,0.06,
1983,-0.345,0.05,
1984,-0.355,0.06,
1985,-0.35,0.08,
1986,-0.35,0.1,
1987,-0.355,0.105,
1988,-0.34,0.09,
1989,-0.355,0.085,
1990,-0.355,0.065,
1991,-0.36,0.09,
1992,-0.33,0.115,
1993,-0.31,0.135,
1994,-0.32,0.105,
1995,-0.325,0.065,
1996,-0.335,0.055,
1997,-0.35,0.06,
1998,-0.355,0.08,
1999,-0.355,0.105,
2000,-0.33,0.11,
2001,-0.355,0.095,
2002,-0.33,0.075,
2003,-0.335,0.065,
2004,-0.33,0.06,
2005,-0.305,0.075,
2006,-0.28,0.06,
2007,-0.275,0.03,
2008,-0.265,0.005,
2009,-0.27,0.01,
2010,-0.26,0.025,
2011,-0.255,0.05,
2012,-0.255,0.045,
2013,-0.27,0.035,
2014,-0.275,0.03,
2015,-0.265,0.035,
2016,-0.29,0.04,
2017,-0.26,0.075,
2018,-0.245,0.06,
2019,-0.24,0.05,
2020,-0.25,0.045,
2021,-0.255,0.06,
2022,-0.265,0.095,
2023,-0.265,0.11,
2024,-0.275,0.095,
2025,-0.27,0.09,
2026,-0.275,0.08,
2027,-0.27,0.065,
2028,-0.26,0.07,
2029,-0.235,0.055,
2030,-0.245,0.02,
2031,-0.26,0.005,
2032,-0.28,-0.005,
2033,-0.28,0.0,
2034,-0.27,0.015,
2035,-0.24,0.035,
2036,-0.245,0.025,
2037,-0.275,0.03,
2038,-0.285,0.025,
2039,-0.27,0.02,
2040,-0.265,0.03,
2041,-0.255,0.03,
2042,-0.28,0.03,
2043,-0.285,0.02,
2044,-0.3,0.005,
2045,-0.3,0.02,
2046,-0.3,0.045,
2047,-0.305,0.075,
2048,-0.33,0.08,
2049,-0.315,0.08,
2050,-0.335,0.055,
2051,-0.34,0.05,
2052,-0.31,0.065,
2053,-0.305,0.075,
2054,-0.315,0.085,
2055,-0.34,0.08,
2056,-0.355,0.075,
2057,-0.34,0.05,
2058,-0.32,0.03,
2059,-0.315,0.06,
2060,-0.335,0.035,
2061,-0.35,0.055,
2062,-0.355,0.055,
2063,-0.335,0.035,
2064,-0.315,0.01,
2065,-0.305,0.0,
2066,-0.345,-0.005,
2067,-0.36,0.005,
2068,-0.375,0.03,
2069,-0.365,0.045,
2070,-0.36,0.065,
2071,-0.35,0.075,
2072,-0.34,0.055,
2073,-0.34,0.03,
2074,-0.35,0.01,
2075,-0.335,0.015,
2076,-0.315,0.03,
2077,-0.32,0.04,
2078,-0.315,0.025,
2079,-0.34,0.035,
2080,-0.39,0.04,
2081,-0.385,0.065,
2082,-0.365,0.085,
2083,-0.365,0.105,
2084,-0.36,0.1,
2085,-0.36,0.075,
2086,-0.37,0.045,
2087,-0.365,0.045,
2088,-0.35,0.045,
2089,-0.355,0.07,
2090,-0.355,0.055,
2091,-0.36,0.055,
2092,-0.395,0.05,
2093,-0.4,0.05,
2094,-0.395,0.075,
2095,-0.385,0.095,
2096,-0.375,0.1,
2097,-0.36,0.08,
2098,-0.39,0.07,
2099,-0.4,0.055,
2100,-0.395,0.03,
2101,-0.335,0.015,
2102,-0.33,-0.01,
2103,-0.355,-0.01,
2104,-0.38,-0.01,
2105,-0.395,0.02,
2106,-0.39,0.05,
2107,-0.37,0.065,
2108,-0.35,0.065,
2109,-0.355,0.04,
2110,-0.35,0.005,
2111,-0.375,0.01,
2112,-0.365,0.025,
2113,-0.35,0.04,
2114,-0.33,0.04,
2115,-0.365,0.03,
2116,-0.365,0.035,
2117,-0.36,0.035,
2118,-0.35,0.035,
2119,-0.335,0.065,
2120,-0.335,0.045,
2121,-0.365,0.035,
2122,-0.395,0.035,
2123,-0.385,0.035,
2124,-0.37,0.035,
2125,-0.365,0.06,
2126,-0.37,0.065,
2127,-0.4,0.065,
2128,-0.41,0.085,
2129,-0.39,0.095,
2130,-0.4,0.09,
2131,-0.375,0.085,
2132,-0.37,0.07,
2133,-0.37,0.055,
2134,-0.395,0.045,
2135,-0.38,0.055,
2136,-0.375,0.065,
2137,-0.36,0.075,
2138,-0.355,0.055,
2139,-0.35,0.035,
2140,-0.34,0.02,
2141,-0.335,0.045,
2142,-0.34,0.075,
2143,-0.32,0.09,
2144,-0.31,0.08,
2145,-0.31,0.065,
2146,-0.31,0.06,
2147,-0.29,0.085,
2148,-0.255,0.11,
2149,-0.215,0.135,
2150,-0.185,0.125,
2151,-0.15,0.11,
2152,-0.115,0.08,
2153,-0.075,0.05,
2154,-0.05,0.03,
2155,-0.06,0.04,
2156,-0.075,0.02,
2157,-0.12,0.015,
2158,-0.14,0.015,
2159,-0.18,0.02,
2160,-0.19,0.04,
2161,-0.18,0.05,
2162,-0.185,0.055,
2163,-0.205,0.045,
2164,-0.23,0.05,
2165,-0.255,0.065,
2166,-0.265,0.06,
2167,-0.28,0.065,
2168,-0.295,0.035,
2169,-0.315,0.03,
2170,-0.35,0.025,
2171,-0.365,0.05,
2172,-0.365,0.075,
2173,-0.35,0.09,
2174,-0.355,0.065,
2175,-0.38,0.05,
2176,-0.4,0.03,
2177,-0.4,0.045,
2178,-0.38,0.05,
2179,-0.36,0.06,
2180,-0.355,0.05,
2181,-0.365,0.035,
2182,-0.38,0.025,
2183,-0.375,0.05,
2184,-0.39,0.055,
2185,-0.375,0.08,
2186,-0.395,0.07,
2187,-0.45,0.05,
2188,-0.51,0.055,
2189,-0.48,0.05,
2190,-0.34,0.075,
2191,-0.06,0.09,
2192,0.31,0.055,
2193,0.77,0.025,
2194,1.21,0.01,
2195,1.575,0.065,
2196,1.81,0.155,
2197,1.935,0.235,N
2198,1.965,0.275,
2199,1.92,0.28,
2200,1.71,0.235,
2201,1.33,0.165,
2202,0.775,0.12,
2203,0.135,0.085,
2204,-0.495,0.0,
2205,-0.79,-0.06,
2206,-0.72,-0.11,
2207,-0.53,-0.145,
2208,-0.44,-0.135,
2209,-0.44,-0.115,
2210,-0.45,-0.095,
2211,-0.44,-0.08,
2212,-0.42,-0.055,
2213,-0.42,0.0,
2214,-0.43,0.055,
2215,-0.43,0.09,
2216,-0.455,0.09,
2217,-0.445,0.065,
2218,-0.46,0.055,
2219,-0.46,0.05,
2220,-0.47,0.08,
2221,-0.465,0.115,
2222,-0.445,0.115,
2223,-0.445,0.1,
2224,-0.445,0.1,
2225,-0.465,0.1,
2226,-0.46,0.11,
2227,-0.445,0.125,
2228,-0.44,0.11,
2229,-0.465,0.095,
2230,-0.455,0.085,
2231,-0.445,0.075,
2232,-0.43,0.075,
2233,-0.425,0.08,
2234,-0.42,0.095,
2235,-0.41,0.08,
2236,-0.415,0.065,
2237,-0.425,0.07,
2238,-0.415,0.08,
2239,-0.395,0.1,
2240,-0.4,0.1,
2241,-0.41,0.09,
2242,-0.435,0.085,
2243,-0.435,0.085,
2244,-0.4,0.095,
2245,-0.385,0.105,
2246,-0.385,0.1,
2247,-0.395,0.095,
2248,-0.39,0.1,
2249,-0.39,0.105,
2250,-0.36,0.11,
2251,-0.35,0.12,
2252,-0.36,0.09,
2253,-0.385,0.095,
2254,-0.37,0.08,
2255,-0.34,0.115,
2256,-0.325,0.115,
2257,-0.305,0.12,
2258,-0.305,0.125,
2259,-0.295,0.125,
2260,-0.29,0.1,
2261,-0.29,0.105,
2262,-0.275,0.105,
2263,-0.25,0.12,
2264,-0.235,0.135,
2265,-0.245,0.125,
2266,-0.24,0.11,
2267,-0.24,0.105,
2268,-0.2,0.095,
2269,-0.16,0.095,
2270,-0.14,0.095,
2271,-0.135,0.08,
2272,-0.13,0.075,
2273,-0.11,0.075,
2274,-0.09,0.08,
2275,-0.055,0.085,
2276,-0.04,0.09,
2277,-0.04,0.08,
2278,-0.03,0.085,
2279,-0.005,0.07,
2280,0.05,0.07,
2281,0.085,0.07,
2282,0.095,0.065,
2283,0.14,0.065,
2284,0.14,0.065,
2285,0.165,0.08,
2286,0.21,0.105,
2287,0.27,0.11,
2288,0.315,0.095,
2289,0.335,0.085,
2290,0.33,0.08,
2291,0.375,0.085,
2292,0.41,0.105,
2293,0.45,0.115,
2294,0.48,0.105,
2295,0.485,0.09,
2296,0.51,0.095,
2297,0.55,0.085,
2298,0.565,0.07,
2299,0.59,0.07,
2300,0.595,0.04,
2301,0.565,0.025,
2302,0.555,0.045,
2303,0.54,0.07,
2304,0.54,0.09,
2305,0.535,0.105,
2306,0.515,0.09,
2307,0.48,0.07,
2308,0.445,0.06,
2309,0.435,0.045,
2310,0.405,0.07,
2311,0.375,0.085,
2312,0.33,0.085,
2313,0.3,0.075,
2314,0.24,0.055,
2315,0.21,0.075,
2316,0.17,0.08,
2317,0.17,0.09,
2318,0.145,0.08,
2319,0.1,0.07,
2320,0.04,0.055,
2321,0.02,0.07,
2322,0.005,0.085,
2323,-0.01,0.1,
2324,-0.035,0.095,
2325,-0.06,0.09,
2326,-0.105,0.105,
2327,-0.13,0.125,
2328,-0.13,0.12,
2329,-0.12,0.12,
2330,-0.12,0.085,
2331,-0.155,0.065,
2332,-0.185,0.05,
2333,-0.195,0.07,
2334,-0.205,0.075,
2335,-0.2,0.08,
2336,-0.225,0.08,
2337,-0.24,0.075,
2338,-0.265,0.065,
2339,-0.285,0.08,
2340,-0.28,0.085,
2341,-0.285,0.095,
2342,-0.27,0.085,
2343,-0.295,0.08,
2344,-0.315,0.075,
2345,-0.33,0.08,
2346,-0.335,0.1,
2347,-0.335,0.115,
2348,-0.345,0.11,
2349,-0.36,0.1,
2350,-0.375,0.09,
2351,-0.375,0.095,
2352,-0.365,0.115,
2353,-0.36,0.14,
2354,-0.345,0.15,
2355,-0.345,0.13,
2356,-0.365,0.095,
2357,-0.37,0.085,
2358,-0.38,0.1,
2359,-0.355,0.115,
2360,-0.325,0.1,
2361,-0.33,0.095,
2362,-0.355,0.08,
2363,-0.365,0.085,
2364,-0.375,0.095,
2365,-0.355,0.095,
2366,-0.35,0.095,
2367,-0.355,0.085,
2368,-0.36,0.08,
2369,-0.345,0.08,
2370,-0.335,0.09,
2371,-0.31,0.09,
2372,-0.325,0.09,
2373,-0.33,0.065,
2374,-0.35,0.05,
2375,-0.34,0.06,
2376,-0.345,0.08,
2377,-0.345,0.095,
2378,-0.345,0.11,
2379,-0.335,0.095,
2380,-0.35,0.085,
2381,-0.36,0.1,
2382,-0.36,0.115,
2383,-0.335,0.135,
2384,-0.33,0.135,
2385,-0.335,0.125,
2386,-0.335,0.115,
2387,-0.33,0.13,
2388,-0.295,0.145,
2389,-0.28,0.155,
2390,-0.3,0.125,
2391,-0.33,0.09,
2392,-0.35,0.085,
2393,-0.33,0.09,
2394,-0.315,0.125,
2395,-0.295,0.135,
2396,-0.315,0.135,
2397,-0.31,0.115,
2398,-0.305,0.075,
2399,-0.295,0.085,
2400,-0.28,0.085,
2401,-0.265,0.11,
2402,-0.255,0.12,
2403,-0.275,0.1,
2404,-0.295,0.11,
2405,-0.325,0.105,
2406,-0.32,0.11,
2407,-0.275,0.105,
2408,-0.265,0.08,
2409,-0.275,0.05,
2410,-0.3,0.04,
2411,-0.315,0.05,
2412,-0.315,0.08,
2413,-0.285,0.085,
2414,-0.26,0.085,
2415,-0.28,0.08,
2416,-0.3,0.06,
2417,-0.325,0.085,
2418,-0.33,0.095,
2419,-0.315,0.125,
2420,-0.325,0.125,
2421,-0.335,0.115,
2422,-0.34,0.115,
2423,-0.35,0.125,
2424,-0.32,0.12,
2425,-0.31,0.115,
2426,-0.305,0.095,
2427,-0.31,0.09,
2428,-0.345,0.09,
2429,-0.325,0.09,
2430,-0.315,0.085,
2431,-0.3,0.075,
2432,-0.305,0.075,
2433,-0.33,0.055,
2434,-0.355,0.05,
2435,-0.33,0.045,
2436,-0.305,0.07,
2437,-0.31,0.09,
2438,-0.315,0.09,
2439,-0.32,0.09,
2440,-0.34,0.07,
2441,-0.355,0.08,
2442,-0.34,0.095,
2443,-0.325,0.085,
2444,-0.315,0.09,
2445,-0.315,0.065,
2446,-0.335,0.08,
2447,-0.335,0.08,
2448,-0.32,0.09,
2449,-0.29,0.095,
2450,-0.25,0.065,
2451,-0.28,0.035,
2452,-0.325,0.035,
2453,-0.33,0.045,
2454,-0.33,0.07,
2455,-0.32,0.075,
2456,-0.315,0.07,
2457,-0.29,0.055,
2458,-0.255,0.06,
2459,-0.25,0.055,
2460,-0.245,0.055,
2461,-0.275,0.065,
2462,-0.27,0.065,
2463,-0.255,0.045,
2464,-0.245,0.04,
2465,-0.21,0.035,
2466,-0.205,0.07,
2467,-0.18,0.06,
2468,-0.165,0.05,
2469,-0.195,0.05,
2470,-0.23,0.055,
2471,-0.255,0.065,
2472,-0.26,0.07,
2473,-0.27,0.09,
2474,-0.26,0.08,
2475,-0.25,0.065,
2476,-0.235,0.05,
2477,-0.225,0.055,
2478,-0.185,0.05,
2479,-0.16,0.055,
2480,-0.125,0.06,
2481,-0.13,0.035,
2482,-0.155,0.03,
2483,-0.18,0.025,
2484,-0.19,0.055,
2485,-0.17,0.095,
2486,-0.155,0.095,
2487,-0.15,0.07,
2488,-0.13,0.04,
2489,-0.115,0.015,
2490,-0.11,0.01,
2491,-0.11,0.01,
2492,-0.125,0.015,
2493,-0.12,0.005,
2494,-0.145,0.005,
2495,-0.145,0.005,
2496,-0.12,0.015,
2497,-0.12,0.04,
2498,-0.1,0.035,
2499,-0.095,0.015,
2500,-0.11,0.02,
2501,-0.135,0.015,
2502,-0.125,0.035,
2503,-0.1,0.035,
2504,-0.095,0.025,
2505,-0.125,0.02,
2506,-0.15,0.03,
2507,-0.155,0.05,
2508,-0.13,0.05,
2509,-0.11,0.07,
2510,-0.1,0.04,
2511,-0.12,0.025,
2512,-0.12,0.02,
2513,-0.12,0.03,
2514,-0.09,0.04,
2515,-0.05,0.055,
2516,-0.04,0.065,
2517,-0.03,0.05,
2518,-0.015,0.05,
2519,-0.015,0.045,
2520,-0.02,0.08,
2521,-0.005,0.1,
2522,0.025,0.105,
2523,0.05,0.09,
2524,0.045,0.09,
2525,0.1,0.095,
2526,0.17,0.08,
2527,0.21,0.075,
2528,0.215,0.05,
2529,0.2,0.03,
2530,0.155,0.035,
2531,0.165,0.045,
2532,0.195,0.07,
2533,0.2,0.075,
2534,0.165,0.07,
2535,0.115,0.075,
2536,0.09,0.065,
2537,0.075,0.075,
2538,0.065,0.075,
2539,0.05,0.085,
2540,0.0,0.085,
2541,-0.045,0.105,
2542,-0.095,0.105,
2543,-0.09,0.075,
2544,-0.055,0.08,
2545,-0.03,0.075,
2546,-0.05,0.08,
2547,-0.07,0.075,
2548,-0.115,0.065,
2549,-0.155,0.075,
2550,-0.2,0.095,
2551,-0.225,0.115,
2552,-0.22,0.125,
2553,-0.175,0.1,
2554,-0.155,0.1,
2555,-0.15,0.1,
2556,-0.15,0.12,
2557,-0.145,0.13,
2558,-0.165,0.115,
2559,-0.2,0.105,
2560,-0.22,0.09,
2561,-0.235,0.09,
2562,-0.25,0.08,
2563,-0.185,0.085,
2564,-0.02,0.07,
2565,0.24,0.045,
2566,0.605,0.025,
2567,1.09,0.015,
2568,1.545,0.06,
2569,1.875,0.125,
2570,2.03,0.185,
2571,2.075,0.23,N
2572,2.025,0.28,
2573,1.91,0.37,
2574,1.66,0.395,
2575,1.2,0.365,
2576,0.56,0.285,
2577,-0.08,0.17,
2578,-0.51,0.06,
2579,-0.47,-0.01,
2580,-0.26,-0.075,
2581,-0.15,-0.115,
2582,-0.17,-0.135,
2583,-0.21,-0.12,
2584,-0.19,-0.075,
2585,-0.17,-0.015,
2586,-0.13,0.035,
2587,-0.14,0.07,
2588,-0.12,0.06,
2589,-0.13,0.05,
2590,-0.15,0.05,
2591,-0.175,0.06,
2592,-0.165,0.08,
2593,-0.155,0.115,
2594,-0.16,0.105,
2595,-0.19,0.1,
2596,-0.215,0.09,
2597,-0.215,0.11,
2598,-0.22,0.135,
2599,-0.22,0.17,
2600,-0.24,0.175,
2601,-0.25,0.165,
2602,-0.25,0.155,
2603,-0.23,0.15,
2604,-0.22,0.15,
2605,-0.185,0.155,
2606,-0.165,0.14,
2607,-0.175,0.13,
2608,-0.17,0.11,
2609,-0.15,0.125,
2610,-0.145,0.145,
2611,-0.145,0.14,
2612,-0.19,0.12,
2613,-0.22,0.115,
2614,-0.225,0.095,
2615,-0.22,0.09,
2616,-0.165,0.1,
2617,-0.13,0.095,
2618,-0.145,0.08,
2619,-0.175,0.08,
2620,-0.185,0.085,
2621,-0.17,0.1,
2622,-0.14,0.11,
2623,-0.105,0.105,
2624,-0.11,0.11,
2625,-0.125,0.09,
2626,-0.145,0.09,
2627,-0.155,0.095,
2628,-0.095,0.115,
2629,-0.04,0.12,
2630,0.01,0.12,
2631,0.04,0.105,
2632,0.03,0.085,
2633,0.0,0.075,
2634,-0.02,0.085,
2635,-0.04,0.11,
2636,-0.07,0.12,
2637,-0.07,0.115,
2638,-0.06,0.1,
2639,-0.005,0.105,
2640,0.025,0.11,
2641,0.03,0.115,
2642,0.055,0.115,
2643,0.065,0.105,
2644,0.05,0.105,
2645,0.07,0.11,
2646,0.115,0.13,
2647,0.14,0.15,
2648,0.16,0.14,
2649,0.185,0.125,
2650,0.205,0.1,
2651,0.255,0.11,
2652,0.295,0.11,
2653,0.325,0.1,
2654,0.355,0.095,
2655,0.35,0.08,
2656,0.365,0.085,
2657,0.41,0.095,
2658,0.455,0.09,
2659,0.48,0.105,
2660,0.5,0.08,
2661,0.515,0.08,
2662,0.54,0.06,
2663,0.57,0.075,
2664,0.58,0.075,
2665,0.625,0.105,
2666,0.635,0.085,
2667,0.65,0.075,
2668,0.665,0.065,
2669,0.69,0.06,
2670,0.71,0.065,
2671,0.71,0.085,
2672,0.71,0.075,
2673,0.69,0.07,
2674,0.66,0.06,
2675,0.635,0.07,
2676,0.615,0.095,
2677,0.59,0.105,
2678,0.565,0.105,
2679,0.525,0.085,
2680,0.495,0.09,
2681,0.465,0.09,
2682,0.44,0.09,
2683,0.45,0.095,
2684,0.435,0.085,
2685,0.38,0.085,
2686,0.32,0.085,
2687,0.315,0.09,
2688,0.28,0.105,
2689,0.25,0.11,
2690,0.21,0.105,
2691,0.175,0.095,
2692,0.135,0.105,
2693,0.125,0.11,
2694,0.135,0.115,
2695,0.13,0.115,
2696,0.1,0.1,
2697,0.06,0.1,
2698,0.045,0.085,
2699,0.045,0.105,
2700,0.01,0.135,
2701,-0.025,0.16,
2702,-0.075,0.165,
2703,-0.11,0.16,
2704,-0.13,0.135,
2705,-0.14,0.125,
2706,-0.11,0.13,
2707,-0.08,0.135,
2708,-0.08,0.12,
2709,-0.115,0.105,
2710,-0.155,0.11,
2711,-0.175,0.115,
2712,-0.155,0.135,
2713,-0.11,0.15,
2714,-0.105,0.135,
2715,-0.13,0.12,
2716,-0.16,0.12,
2717,-0.19,0.125,
2718,-0.16,0.135,
2719,-0.15,0.155,
2720,-0.165,0.155,
2721,-0.18,0.15,
2722,-0.19,0.15,
2723,-0.17,0.15,
2724,-0.155,0.15,
2725,-0.155,0.13,
2726,-0.145,0.135,
2727,-0.145,0.135,
2728,-0.155,0.125,
2729,-0.165,0.13,
2730,-0.17,0.13,
2731,-0.14,0.145,
2732,-0.155,0.13,
2733,-0.18,0.13,
2734,-0.21,0.14,
2735,-0.205,0.15,
2736,-0.18,0.165,
2737,-0.145,0.155,
2738,-0.15,0.15,
2739,-0.16,0.135,
2740,-0.2,0.125,
2741,-0.21,0.14,
2742,-0.21,0.16,
2743,-0.16,0.175,
2744,-0.14,0.175,
2745,-0.14,0.165,
2746,-0.155,0.145,
2747,-0.145,0.14,
2748,-0.135,0.16,
2749,-0.12,0.165,
2750,-0.115,0.145,
2751,-0.135,0.14,
2752,-0.15,0.13,
2753,-0.16,0.14,
2754,-0.16,0.15,
2755,-0.155,0.155,
2756,-0.155,0.14,
2757,-0.18,0.145,
2758,-0.195,0.115,
2759,-0.18,0.115,
2760,-0.17,0.125,
2761,-0.14,0.155,
2762,-0.15,0.14,
2763,-0.15,0.115,
2764,-0.17,0.105,
2765,-0.185,0.115,
2766,-0.175,0.125,
2767,-0.17,0.135,
2768,-0.165,0.125,
2769,-0.18,0.12,
2770,-0.215,0.12,
2771,-0.21,0.12,
2772,-0.18,0.13,
2773,-0.175,0.135,
2774,-0.185,0.135,
2775,-0.205,0.125,
2776,-0.19,0.12,
2777,-0.18,0.12,
2778,-0.175,0.105,
2779,-0.21,0.13,
2780,-0.225,0.125,
2781,-0.24,0.115,
2782,-0.25,0.1,
2783,-0.255,0.1,
2784,-0.23,0.11,
2785,-0.225,0.125,
2786,-0.24,0.11,
2787,-0.255,0.105,
2788,-0.255,0.085,
2789,-0.255,0.115,
2790,-0.245,0.135,
2791,-0.25,0.15,
2792,-0.265,0.145,
2793,-0.255,0.13,
2794,-0.295,0.105,
2795,-0.285,0.085,
2796,-0.27,0.085,
2797,-0.26,0.09,
2798,-0.275,0.095,
2799,-0.295,0.075,
2800,-0.32,0.08,
2801,-0.315,0.08,
2802,-0.295,0.095,
2803,-0.28,0.105,
2804,-0.305,0.09,
2805,-0.355,0.095,
2806,-0.4,0.09,
2807,-0.385,0.115,
2808,-0.32,0.125,
2809,-0.27,0.135,
2810,-0.26,0.13,
2811,-0.275,0.125,
2812,-0.31,0.11,
2813,-0.325,0.12,
2814,-0.315,0.135,
2815,-0.285,0.145,
2816,-0.285,0.12,
2817,-0.32,0.1,
2818,-0.355,0.095,
2819,-0.355,0.115,
2820,-0.33,0.12,
2821,-0.31,0.135,
2822,-0.285,0.13,
2823,-0.285,0.105,
2824,-0.295,0.105,
2825,-0.305,0.11,
2826,-0.305,0.13,
2827,-0.295,0.13,
2828,-0.315,0.105,
2829,-0.34,0.06,
2830,-0.37,0.05,
2831,-0.4,0.06,
2832,-0.39,0.09,
2833,-0.375,0.11,
2834,-0.345,0.1,
2835,-0.34,0.08,
2836,-0.355,0.065,
2837,-0.335,0.055,
2838,-0.32,0.07,
2839,-0.305,0.09,
2840,-0.33,0.08,
2841,-0.385,0.09,
2842,-0.395,0.08,
2843,-0.37,0.095,
2844,-0.32,0.1,
2845,-0.275,0.1,
2846,-0.265,0.1,
2847,-0.285,0.095,
2848,-0.32,0.085,
2849,-0.335,0.075,
2850,-0.34,0.09,
2851,-0.335,0.085,
2852,-0.345,0.08,
2853,-0.36,0.09,
2854,-0.37,0.085,
2855,-0.365,0.09,
2856,-0.375,0.095,
2857,-0.39,0.115,
2858,-0.385,0.11,
2859,-0.39,0.09,
2860,-0.4,0.075,
2861,-0.405,0.085,
2862,-0.385,0.11,
2863,-0.36,0.12,
2864,-0.325,0.11,
2865,-0.305,0.1,
2866,-0.315,0.1,
2867,-0.295,0.1,
2868,-0.27,0.11,
2869,-0.255,0.14,
2870,-0.21,0.16,
2871,-0.185,0.175,
2872,-0.18,0.18,
2873,-0.135,0.165,
2874,-0.09,0.15,
2875,-0.01,0.115,
2876,0.04,0.085,
2877,0.075,0.065,
2878,0.05,0.025,
2879,0.005,0.01,
2880,-0.04,0.01,
2881,-0.055,0.015,
2882,-0.105,0.015,
2883,-0.165,0.02,
2884,-0.225,0.04,
2885,-0.205,0.06,
2886,-0.165,0.065,
2887,-0.145,0.065,
2888,-0.19,0.07,
2889,-0.28,0.09,
2890,-0.365,0.08,
2891,-0.415,0.095,
2892,-0.395,0.11,
2893,-0.375,0.125,
2894,-0.415,0.11,
2895,-0.46,0.095,
2896,-0.48,0.09,
2897,-0.46,0.095,
2898,-0.445,0.115,
2899,-0.435,0.125,
2900,-0.45,0.13,
2901,-0.42,0.12,
2902,-0.42,0.095,
2903,-0.43,0.1,
2904,-0.495,0.095,
2905,-0.505,0.12,
2906,-0.495,0.115,
2907,-0.495,0.11,
2908,-0.565,0.1,
2909,-0.625,0.11,
2910,-0.615,0.135,
2911,-0.495,0.17,
2912,-0.25,0.175,
2913,0.125,0.15,
2914,0.58,0.11,
2915,1.07,0.095,
2916,1.46,0.11,
2917,1.705,0.17,
2918,1.845,0.19,N
2919,1.9,0.215,
2920,1.83,0.255,
2921,1.625,0.32,
2922,1.175,0.355,
2923,0.535,0.325,
2924,-0.105,0.265,
2925,-0.745,0.17,
2926,-1.035,0.04,
2927,-0.795,-0.075,
2928,-0.595,-0.165,
2929,-0.57,-0.205,
2930,-0.605,-0.175,
2931,-0.62,-0.11,
2932,-0.59,-0.03,
2933,-0.565,0.04,
2934,-0.55,0.085,
2935,-0.55,0.115,
2936,-0.54,0.1,
2937,-0.54,0.05,
2938,-0.53,0.025,
2939,-0.525,0.025,
2940,-0.53,0.015,
2941,-0.55,0.035,
2942,-0.58,0.055,
2943,-0.58,0.09,
2944,-0.61,0.095,
2945,-0.625,0.1,
2946,-0.64,0.1,
2947,-0.645,0.09,
2948,-0.665,0.08,
2949,-0.705,0.095,
2950,-0.725,0.12,
2951,-0.71,0.125,
2952,-0.67,0.135,
2953,-0.645,0.125,
2954,-0.615,0.1,
2955,-0.59,0.07,
2956,-0.555,0.035,
2957,-0.55,0.015,
2958,-0.58,0.025,
2959,-0.6,0.04,
2960,-0.635,0.06,
2961,-0.635,0.07,
2962,-0.64,0.07,
2963,-0.625,0.085,
2964,-0.62,0.095,
2965,-0.61,0.11,
2966,-0.61,0.09,
2967,-0.61,0.075,
2968,-0.595,0.065,
2969,-0.575,0.075,
2970,-0.54,0.08,
2971,-0.53,0.09,
2972,-0.53,0.075,
2973,-0.525,0.055,
2974,-0.525,0.06,
2975,-0.5,0.05,
2976,-0.49,0.055,
2977,-0.495,0.065,
2978,-0.485,0.075,
2979,-0.465,0.06,
2980,-0.475,0.055,
2981,-0.455,0.055,
2982,-0.435,0.07,
2983,-0.38,0.085,
2984,-0.34,0.065,
2985,-0.355,0.055,
2986,-0.41,0.035,
2987,-0.42,0.055,
2988,-0.395,0.085,
2989,-0.34,0.105,
2990,-0.295,0.1,
2991,-0.265,0.065,
2992,-0.25,0.04,
2993,-0.225,0.045,
2994,-0.21,0.07,
2995,-0.2,0.09,
2996,-0.18,0.1,
2997,-0.145,0.1,
2998,-0.11,0.085,
2999,-0.035,0.04,
3000,0.015,-0.01,
3001,0.045,-0.025,
3002,0.075,-0.03,
3003,0.105,-0.02,
3004,0.14,-0.035,
3005,0.17,-0.02,
3006,0.2,-0.03,
3007,0.23,-0.045,
3008,0.265,-0.075,
3009,0.295,-0.095,
3010,0.315,-0.095,
3011,0.345,-0.075,
3012,0.375,-0.065,
3013,0.405,-0.05,
3014,0.41,-0.06,
3015,0.38,-0.065,
3016,0.355,-0.075,
3017,0.325,-0.065,
3018,0.305,-0.03,
3019,0.265,-0.005,
3020,0.225,-0.005,
3021,0.195,-0.01,
3022,0.17,-0.005,
3023,0.15,-0.015,
3024,0.125,0.005,
3025,0.08,0.015,
3026,0.04,0.02,
3027,0.01,0.0,
3028,-0.01,-0.005,
3029,-0.04,-0.015,
3030,-0.09,0.01,
3031,-0.13,0.05,
3032,-0.145,0.055,
3033,-0.2,0.03,
3034,-0.245,0.01,
3035,-0.27,0.02,
3036,-0.275,0.035,
3037,-0.3,0.055,
3038,-0.31,0.03,
3039,-0.33,0.0,
3040,-0.35,0.0,
3041,-0.37,0.02,
3042,-0.39,0.02,
3043,-0.4,0.03,
3044,-0.425,0.005,
3045,-0.46,0.005,
3046,-0.475,-0.005,
3047,-0.47,0.015,
3048,-0.465,0.03,
3049,-0.47,0.035,
3050,-0.47,0.015,
3051,-0.485,-0.005,
3052,-0.52,-0.005,
3053,-0.545,0.02,
3054,-0.56,0.04,
3055,-0.56,0.06,
3056,-0.565,0.055,
3057,-0.57,0.03,
3058,-0.565,0.025,
3059,-0.565,0.045,
3060,-0.56,0.065,
3061,-0.55,0.065,
3062,-0.53,0.045,
3063,-0.525,0.01,
3064,-0.55,-0.01,
3065,-0.555,0.02,
3066,-0.56,0.05,
3067,-0.53,0.065,
3068,-0.525,0.055,
3069,-0.515,0.045,
3070,-0.52,0.03,
3071,-0.515,0.025,
3072,-0.51,0.045,
3073,-0.52,0.06,
3074,-0.515,0.055,
3075,-0.5,0.045,
3076,-0.5,0.015,
3077,-0.48,0.04,
3078,-0.465,0.06,
3079,-0.455,0.06,
3080,-0.475,0.07,
3081,-0.49,0.07,
3082,-0.495,0.055,
3083,-0.495,0.05,
3084,-0.485,0.06,
3085,-0.465,0.05,
3086,-0.43,0.045,
3087,-0.42,0.025,
3088,-0.41,0.02,
3089,-0.425,0.03,
3090,-0.45,0.055,
3091,-0.46,0.095,
3092,-0.45,0.095,
3093,-0.43,0.06,
3094,-0.43,0.03,
3095,-0.415,0.025,
3096,-0.41,0.035,
3097,-0.425,0.055,
3098,-0.44,0.04,
3099,-0.465,0.035,
3100,-0.47,0.01,
3101,-0.465,0.015,
3102,-0.44,0.025,
3103,-0.4,0.03,
3104,-0.375,0.035,
3105,-0.4,0.03,
3106,-0.44,0.015,
3107,-0.46,0.01,
3108,-0.46,0.015,
3109,-0.445,0.02,
3110,-0.46,0.03,
3111,-0.43,0.02,
3112,-0.455,0.02,
3113,-0.465,0.025,
3114,-0.455,0.025,
3115,-0.43,0.01,
3116,-0.41,0.0,
3117,-0.435,0.0,
3118,-0.475,0.005,
3119,-0.495,0.03,
3120,-0.47,0.045,
3121,-0.445,0.06,
3122,-0.435,0.075,
3123,-0.44,0.06,
3124,-0.45,0.03,
3125,-0.475,-0.005,
3126,-0.485,-0.02,
3127,-0.47,-0.02,
3128,-0.505,-0.03,
3129,-0.51,-0.02,
3130,-0.535,-0.02,
3131,-0.545,0.0,
3132,-0.53,0.035,
3133,-0.515,0.055,
3134,-0.5,0.045,
3135,-0.49,0.05,
3136,-0.485,0.03,
3137,-0.485,0.025,
3138,-0.485,0.01,
3139,-0.49,0.035,
3140,-0.49,0.03,
3141,-0.515,0.04,
3142,-0.505,0.025,
3143,-0.5,0.01,
3144,-0.48,0.0,
3145,-0.465,0.0,
3146,-0.475,0.0,
3147,-0.47,-0.02,
3148,-0.475,-0.025,
3149,-0.47,-0.015,
3150,-0.475,0.0,
3151,-0.48,0.045,
3152,-0.455,0.04,
3153,-0.485,0.045,
3154,-0.525,0.05,
3155,-0.535,0.055,
3156,-0.515,0.01,
3157,-0.51,0.01,
3158,-0.485,0.0,
3159,-0.495,0.015,
3160,-0.495,0.015,
3161,-0.485,0.02,
3162,-0.495,0.005,
3163,-0.48,0.02,
3164,-0.485,0.0,
3165,-0.495,0.01,
3166,-0.51,0.02,
3167,-0.505,0.02,
3168,-0.46,0.03,
3169,-0.445,0.03,
3170,-0.44,0.01,
3171,-0.455,0.01,
3172,-0.495,0.015,
3173,-0.49,0.02,
3174,-0.485,0.025,
3175,-0.445,-0.015,
3176,-0.425,-0.035,
3177,-0.435,-0.025,
3178,-0.45,-0.025,
3179,-0.45,0.0,
3180,-0.395,0.01,
3181,-0.36,0.005,
3182,-0.35,-0.005,
3183,-0.345,-0.015,
3184,-0.375,0.0,
3185,-0.355,0.025,
3186,-0.35,0.07,
3187,-0.34,0.11,
3188,-0.325,0.13,
3189,-0.27,0.135,
3190,-0.22,0.13,
3191,-0.15,0.12,
3192,-0.1,0.06,
3193,-0.08,0.02,
3194,-0.085,-0.025,
3195,-0.11,-0.04,
3196,-0.17,-0.05,
3197,-0.185,-0.03,
3198,-0.205,0.0,
3199,-0.22,0.04,
3200,-0.225,0.03,
3201,-0.275,0.005,
3202,-0.32,-0.01,
3203,-0.36,-0.01,
3204,-0.38,0.01,
3205,-0.39,0.015,
3206,-0.385,0.02,
3207,-0.38,-0.01,
3208,-0.41,-0.025,
3209,-0.455,-0.03,
3210,-0.48,-0.005,
3211,-0.47,0.015,
3212,-0.475,0.02,
3213,-0.465,-0.005,
3214,-0.49,-0.02,
3215,-0.495,-0.01,
3216,-0.485,0.015,
3217,-0.465,0.02,
3218,-0.45,0.015,
3219,-0.445,-0.005,
3220,-0.475,-0.02,
3221,-0.49,-0.02,
3222,-0.5,0.01,
3223,-0.54,0.015,
3224,-0.58,0.005,
3225,-0.595,-0.035,
3226,-0.52,-0.04,
3227,-0.33,-0.025,
3228,0.01,-0.01,
3229,0.505,-0.01,
3230,1.03,-0.02,
3231,1.47,0.005,
3232,1.72,0.05,
3233,1.855,0.105,
3234,1.915,0.185,N
3235,1.885,0.25,
3236,1.735,0.28,
3237,1.35,0.23,
3238,0.71,0.135,
3239,0.07,0.055,
3240,-0.57,0.015,
3241,-1.05,-0.035,
3242,-0.88,-0.115,
3243,-0.675,-0.2,
3244,-0.625,-0.275,
3245,-0.635,-0.26,
3246,-0.625,-0.22,
3247,-0.59,-0.155,
3248,-0.575,-0.095,
3249,-0.56,-0.065,
3250,-0.565,-0.045,
3251,-0.575,-0.025,
3252,-0.56,0.01,
3253,-0.575,0.03,
3254,-0.57,0.035,
3255,-0.58,0.03,
3256,-0.585,0.01,
3257,-0.575,0.035,
3258,-0.555,0.035,
3259,-0.56,0.065,
3260,-0.57,0.07,
3261,-0.595,0.06,
3262,-0.62,0.035,
3263,-0.605,0.055,
3264,-0.6,0.05,
3265,-0.575,0.075,
3266,-0.565,0.07,
3267,-0.555,0.065,
3268,-0.57,0.07,
3269,-0.575,0.07,
3270,-0.555,0.07,
3271,-0.54,0.075,
3272,-0.525,0.045,
3273,-0.53,0.04,
3274,-0.55,0.025,
3275,-0.55,0.045,
3276,-0.535,0.07,
3277,-0.535,0.075,
3278,-0.525,0.08,
3279,-0.505,0.075,
3280,-0.53,0.045,
3281,-0.545,0.05,
3282,-0.53,0.075,
3283,-0.515,0.115,
3284,-0.49,0.125,
3285,-0.48,0.1,
3286,-0.475,0.07,
3287,-0.475,0.045,
3288,-0.465,0.06,
3289,-0.445,0.045,
3290,-0.405,0.015,
3291,-0.385,-0.015,
3292,-0.385,-0.05,
3293,-0.41,-0.03,
3294,-0.425,0.01,
3295,-0.415,0.035,
3296,-0.415,0.06,
3297,-0.39,0.07,
3298,-0.365,0.07,
3299,-0.35,0.09,
3300,-0.32,0.095,
3301,-0.29,0.095,
3302,-0.275,0.09,
3303,-0.285,0.085,
3304,-0.31,0.085,
3305,-0.285,0.085,
3306,-0.255,0.1,
3307,-0.195,0.09,
3308,-0.155,0.05,
3309,-0.12,-0.01,
3310,-0.125,-0.05,
3311,-0.1,-0.05,
3312,-0.065,-0.025,
3313,0.005,0.0,
3314,0.055,0.015,
3315,0.08,-0.01,
3316,0.105,-0.04,
3317,0.1,-0.05,
3318,0.095,-0.03,
3319,0.115,-0.01,
3320,0.195,0.0,
3321,0.23,-0.005,
3322,0.285,-0.02,
3323,0.305,-0.005,
3324,0.345,0.005,
3325,0.39,0.03,
3326,0.43,0.015,
3327,0.445,0.025,
3328,0.44,0.025,
3329,0.455,0.025,
3330,0.465,0.03,
3331,0.475,0.015,
3332,0.48,0.005,
3333,0.45,-0.005,
3334,0.43,-0.025,
3335,0.39,-0.005,
3336,0.37,0.015,
3337,0.355,0.055,
3338,0.34,0.065,
3339,0.31,0.06,
3340,0.275,0.045,
3341,0.25,0.065,
3342,0.225,0.075,
3343,0.22,0.075,
3344,0.185,0.045,
3345,0.135,0.005,
3346,0.085,0.0,
3347,0.065,0.02,
3348,0.04,0.04,
3349,0.025,0.065,
3350,-0.03,0.06,
3351,-0.09,0.04,
3352,-0.135,0.025,
3353,-0.135,0.02,
3354,-0.155,0.03,
3355,-0.155,0.04,
3356,-0.175,0.045,
3357,-0.22,0.04,
3358,-0.25,0.025,
3359,-0.27,0.035,
3360,-0.255,0.035,
3361,-0.255,0.055,
3362,-0.27,0.045,
3363,-0.29,0.045,
3364,-0.305,0.045,
3365,-0.335,0.05,
3366,-0.325,0.055,
3367,-0.33,0.07,
3368,-0.36,0.08,
3369,-0.38,0.08,
3370,-0.37,0.065,
3371,-0.355,0.055,
3372,-0.35,0.05,
3373,-0.36,0.07,
3374,-0.38,0.065,
3375,-0.41,0.05,
3376,-0.44,0.05,
3377,-0.435,0.05,
3378,-0.445,0.08,
3379,-0.47,0.115,
3380,-0.49,0.115,
3381,-0.515,0.095,
3382,-0.51,0.08,
3383,-0.495,0.07,
3384,-0.475,0.09,
3385,-0.46,0.09,
3386,-0.445,0.08,
3387,-0.45,0.045,
3388,-0.465,0.03,
3389,-0.495,0.065,
3390,-0.475,0.085,
3391,-0.46,0.1,
3392,-0.445,0.095,
3393,-0.435,0.085,
3394,-0.455,0.065,
3395,-0.445,0.065,
3396,-0.44,0.06,
3397,-0.405,0.065,
3398,-0.415,0.055,
3399,-0.415,0.06,
3400,-0.435,0.035,
3401,-0.45,0.07,
3402,-0.43,0.09,
3403,-0.4,0.11,
3404,-0.4,0.095,
3405,-0.405,0.085,
3406,-0.42,0.075,
3407,-0.42,0.115,
3408,-0.415,0.125,
3409,-0.405,0.11,
3410,-0.39,0.08,
3411,-0.4,0.075,
3412,-0.39,0.065,
3413,-0.375,0.08,
3414,-0.365,0.08,
3415,-0.345,0.06,
3416,-0.34,0.035,
3417,-0.355,0.035,
3418,-0.385,0.055,
3419,-0.38,0.085,
3420,-0.375,0.1,
3421,-0.37,0.11,
3422,-0.355,0.065,
3423,-0.345,0.045,
3424,-0.38,0.03,
3425,-0.39,0.03,
3426,-0.375,0.045,
3427,-0.36,0.055,
3428,-0.355,0.075,
3429,-0.365,0.075,
3430,-0.365,0.065,
3431,-0.355,0.055,
3432,-0.34,0.055,
3433,-0.35,0.05,
3434,-0.37,0.06,
3435,-0.385,0.05,
3436,-0.425,0.055,
3437,-0.405,0.065,
3438,-0.42,0.095,
3439,-0.395,0.105,
3440,-0.39,0.1,
3441,-0.39,0.1,
3442,-0.395,0.095,
3443,-0.41,0.105,
3444,-0.39,0.115,
3445,-0.37,0.085,
3446,-0.38,0.045,
3447,-0.41,0.025,
3448,-0.44,0.01,
3449,-0.455,0.035,
3450,-0.435,0.065,
3451,-0.41,0.075,
3452,-0.41,0.07,
3453,-0.41,0.055,
3454,-0.435,0.04,
3455,-0.455,0.05,
3456,-0.47,0.06,
3457,-0.445,0.07,
3458,-0.42,0.065,
3459,-0.405,0.045,
3460,-0.425,0.045,
3461,-0.445,0.06,
3462,-0.445,0.06,
3463,-0.44,0.07,
3464,-0.425,0.07,
3465,-0.445,0.06,
3466,-0.445,0.04,
3467,-0.43,0.055,
3468,-0.425,0.055,
3469,-0.425,0.08,
3470,-0.44,0.09,
3471,-0.455,0.065,
3472,-0.465,0.055,
3473,-0.48,0.065,
3474,-0.49,0.085,
3475,-0.465,0.11,
3476,-0.45,0.095,
3477,-0.45,0.06,
3478,-0.465,0.04,
3479,-0.455,0.055,
3480,-0.44,0.085,
3481,-0.41,0.075,
3482,-0.435,0.03,
3483,-0.455,-0.005,
3484,-0.455,-0.01,
3485,-0.46,0.015,
3486,-0.46,0.055,
3487,-0.455,0.075,
3488,-0.475,0.06,
3489,-0.475,0.04,
3490,-0.495,0.01,
3491,-0.495,0.02,
3492,-0.48,0.035,
3493,-0.46,0.055,
3494,-0.44,0.045,
3495,-0.44,0.035,
3496,-0.465,0.045,
3497,-0.47,0.055,
3498,-0.475,0.085,
3499,-0.45,0.085,
3500,-0.455,0.065,
3501,-0.445,0.045,
3502,-0.46,0.03,
3503,-0.47,0.03,
3504,-0.495,0.055,
3505,-0.475,0.075,
3506,-0.445,0.085,
3507,-0.435,0.075,
3508,-0.465,0.05,
3509,-0.47,0.065,
3510,-0.445,0.08,
3511,-0.44,0.085,
3512,-0.46,0.085,
3513,-0.48,0.095,
3514,-0.475,0.075,
3515,-0.465,0.08,
3516,-0.44,0.07,
3517,-0.395,0.095,
3518,-0.39,0.1,
3519,-0.38,0.105,
3520,-0.375,0.095,
3521,-0.34,0.11,
3522,-0.315,0.14,
3523,-0.265,0.165,
3524,-0.245,0.175,
3525,-0.2,0.17,
3526,-0.15,0.12,
3527,-0.115,0.095,
3528,-0.1,0.1,
3529,-0.1,0.105,
3530,-0.1,0.115,
3531,-0.095,0.095,
3532,-0.1,0.07,
3533,-0.145,0.06,
3534,-0.15,0.065,
3535,-0.15,0.06,
3536,-0.185,0.055,
3537,-0.255,0.055,
3538,-0.335,0.06,
3539,-0.37,0.095,
3540,-0.37,0.125,
3541,-0.36,0.11,
3542,-0.355,0.105,
3543,-0.385,0.09,
3544,-0.435,0.07,
3545,-0.46,0.075,
3546,-0.48,0.065,
3547,-0.48,0.075,
3548,-0.45,0.055,
3549,-0.44,0.045,
3550,-0.435,0.025,
3551,-0.46,0.025,
3552,-0.46,0.03,
3553,-0.45,0.045,
3554,-0.45,0.065,
3555,-0.475,0.065,
3556,-0.495,0.065,
3557,-0.51,0.07,
3558,-0.51,0.07,
3559,-0.52,0.06,
3560,-0.565,0.055,
3561,-0.605,0.045,
3562,-0.615,0.035,
3563,-0.54,0.02,
3564,-0.34,0.01,
3565,-0.03,0.005,
3566,0.44,-0.025,
3567,0.95,-0.07,
3568,1.35,-0.045,
3569,1.63,0.025,
3570,1.79,0.115,
3571,1.87,0.18,N
3572,1.845,0.23,
3573,1.75,0.285,
3574,1.5,0.28,
3575,1.05,0.25,
3576,0.41,0.21,
3577,-0.23,0.16,
3578,-0.785,0.09,
3579,-0.855,-0.03,
3580,-0.71,-0.155,
3581,-0.585,-0.22,
3582,-0.59,-0.22,
3583,-0.585,-0.18,
3584,-0.57,-0.145,
3585,-0.545,-0.1,
3586,-0.53,-0.05,
3587,-0.535,-0.01,
3588,-0.545,0.025,
3589,-0.55,0.05,
3590,-0.565,0.07,
3591,-0.59,0.055,
3592,-0.59,0.065,
3593,-0.595,0.07,
3594,-0.59,0.075,
3595,-0.58,0.085,
3596,-0.57,0.085,
3597,-0.575,0.075,
3598,-0.57,0.105,
3599,-0.57,0.11,
3600,-0.555,0.105,
3601,-0.535,0.1,
3602,-0.51,0.08,
3603,-0.52,0.05,
3604,-0.535,0.055,
3605,-0.56,0.06,
3606,-0.57,0.095,
3607,-0.57,0.105,
3608,-0.56,0.095,
3609,-0.555,0.08,
3610,-0.545,0.07,
3611,-0.555,0.07,
3612,-0.52,0.065,
3613,-0.505,0.065,
3614,-0.505,0.05,
3615,-0.52,0.065,
3616,-0.535,0.055,
3617,-0.52,0.07,
3618,-0.51,0.08,
3619,-0.49,0.09,
3620,-0.485,0.09,
3621,-0.495,0.09,
3622,-0.48,0.1,
3623,-0.47,0.11,
3624,-0.445,0.1,
3625,-0.42,0.085,
3626,-0.415,0.07,
3627,-0.435,0.06,
3628,-0.445,0.05,
3629,-0.45,0.06,
3630,-0.425,0.09,
3631,-0.405,0.105,
3632,-0.41,0.085,
3633,-0.405,0.06,
3634,-0.41,0.035,
3635,-0.38,0.04,
3636,-0.375,0.05,
3637,-0.35,0.08,
3638,-0.345,0.075,
3639,-0.35,0.075,
3640,-0.365,0.065,
3641,-0.375,0.085,
3642,-0.33,0.1,
3643,-0.29,0.1,
3644,-0.26,0.07,
3645,-0.25,0.05,
3646,-0.25,0.045,
3647,-0.235,0.045,
3648,-0.195,0.065,
3649,-0.18,0.08,
3650,-0.145,0.075,
3651,-0.13,0.065,
3652,-0.11,0.055,
3653,-0.1,0.06,
3654,-0.07,0.08,
3655,-0.04,0.075,
3656,-0.005,0.09,
3657,0.02,0.075,
3658,0.03,0.07,
3659,0.05,0.08,
3660,0.075,0.115,
3661,0.11,0.135,
3662,0.16,0.125,
3663,0.205,0.085,
3664,0.23,0.035,
3665,0.245,0.01,
3666,0.275,0.015,
3667,0.325,0.03,
3668,0.335,0.015,
3669,0.375,-0.02,
3670,0.39,-0.03,
3671,0.425,-0.035,
3672,0.455,-0.005,
3673,0.49,0.0,
3674,0.49,-0.01,
3675,0.445,-0.01,
3676,0.365,-0.015,
3677,0.335,0.02,
3678,0.35,0.06,
3679,0.37,0.06,
3680,0.37,0.06,
3681,0.34,0.05,
3682,0.315,0.05,
3683,0.3,0.07,
3684,0.275,0.095,
3685,0.25,0.115,
3686,0.215,0.1,
3687,0.17,0.1,
3688,0.12,0.08,
3689,0.085,0.095,
3690,0.075,0.125,
3691,0.055,0.16,
3692,0.035,0.14,
3693,-0.005,0.095,
3694,-0.045,0.03,
3695,-0.075,-0.005,
3696,-0.085,0.015,
3697,-0.105,0.065,
3698,-0.145,0.105,
3699,-0.175,0.14,
3700,-0.195,0.135,
3701,-0.205,0.11,
3702,-0.21,0.05,
3703,-0.2,0.015,
3704,-0.215,-0.015,
3705,-0.235,-0.005,
3706,-0.275,-0.01,
3707,-0.315,-0.01,
3708,-0.34,0.025,
3709,-0.35,0.055,
3710,-0.38,0.06,
3711,-0.4,0.05,
3712,-0.42,0.05,
3713,-0.43,0.055,
3714,-0.42,0.075,
3715,-0.405,0.1,
3716,-0.435,0.095,
3717,-0.465,0.09,
3718,-0.5,0.095,
3719,-0.495,0.11,
3720,-0.465,0.14,
3721,-0.475,0.16,
3722,-0.465,0.14,
3723,-0.47,0.1,
3724,-0.495,0.075,
3725,-0.505,0.075,
3726,-0.505,0.115,
3727,-0.5,0.15,
3728,-0.505,0.145,
3729,-0.51,0.125,
3730,-0.52,0.105,
3731,-0.505,0.085,
3732,-0.5,0.075,
3733,-0.495,0.08,
3734,-0.495,0.1,
3735,-0.49,0.11,
3736,-0.52,0.11,
3737,-0.515,0.105,
3738,-0.53,0.08,
3739,-0.51,0.08,
3740,-0.51,0.085,
3741,-0.51,0.09,
3742,-0.52,0.08,
3743,-0.51,0.105,
3744,-0.475,0.13,
3745,-0.465,0.16,
3746,-0.475,0.12,
3747,-0.47,0.07,
3748,-0.47,0.03,
3749,-0.495,0.015,
3750,-0.51,0.05,
3751,-0.51,0.08,
3752,-0.51,0.09,
3753,-0.53,0.085,
3754,-0.515,0.06,
3755,-0.5,0.08,
3756,-0.495,0.11,
3757,-0.5,0.135,
3758,-0.495,0.15,
3759,-0.485,0.14,
3760,-0.48,0.13,
3761,-0.495,0.095,
3762,-0.485,0.075,
3763,-0.48,0.08,
3764,-0.46,0.08,
3765,-0.465,0.08,
3766,-0.44,0.09,
3767,-0.41,0.075,
3768,-0.39,0.05,
3769,-0.41,0.05,
3770,-0.47,0.04,
3771,-0.555,0.055,
3772,-0.615,0.085,
3773,-0.635,0.11,
3774,-0.605,0.13,
3775,-0.58,0.14,
3776,-0.57,0.14,
3777,-0.555,0.125,
3778,-0.565,0.115,
3779,-0.56,0.12,
3780,-0.525,0.135,
3781,-0.465,0.15,
3782,-0.415,0.135,
3783,-0.415,0.105,
3784,-0.505,0.07,
3785,-0.6,0.05,
3786,-0.615,0.09,
3787,-0.54,0.115,
3788,-0.455,0.105,
3789,-0.38,0.05,
3790,-0.41,-0.005,
3791,-0.48,0.005,
3792,-0.525,0.05,
3793,-0.485,0.095,
3794,-0.455,0.075,
3795,-0.545,0.055,
3796,-0.67,0.085,
3797,-0.71,0.14,
3798,-0.665,0.14,
3799,-0.655,0.105,
3800,-0.73,0.1,
3801,-0.81,0.135,
3802,-0.78,0.175,
3803,-0.67,0.185,
3804,-0.64,0.17,
3805,-0.66,0.15,
3806,-0.695,0.155,
3807,-0.74,0.15,
3808,-0.73,0.165,
3809,-0.7,0.185,
3810,-0.675,0.185,
3811,-0.67,0.17,
3812,-0.66,0.13,
3813,-0.66,0.09,
3814,-0.67,0.08,
3815,-0.67,0.105,
3816,-0.675,0.12,
3817,-0.67,0.11,
3818,-0.65,0.085,
3819,-0.635,0.085,
3820,-0.655,0.085,
3821,-0.675,0.095,
3822,-0.665,0.1,
3823,-0.65,0.105,
3824,-0.635,0.065,
3825,-0.66,0.05,
3826,-0.685,0.035,
3827,-0.685,0.035,
3828,-0.67,0.055,
3829,-0.665,0.08,
3830,-0.665,0.09,
3831,-0.675,0.095,
3832,-0.69,0.08,
3833,-0.695,0.07,
3834,-0.68,0.09,
3835,-0.67,0.095,
3836,-0.65,0.1,
3837,-0.665,0.09,
3838,-0.685,0.075,
3839,-0.685,0.07,
3840,-0.665,0.085,
3841,-0.64,0.11,
3842,-0.665,0.105,
3843,-0.7,0.105,
3844,-0.74,0.085,
3845,-0.715,0.08,
3846,-0.68,0.095,
3847,-0.66,0.105,
3848,-0.645,0.1,
3849,-0.655,0.075,
3850,-0.67,0.075,
3851,-0.68,0.065,
3852,-0.675,0.095,
3853,-0.68,0.115,
3854,-0.68,0.12,
3855,-0.675,0.095,
3856,-0.685,0.085,
3857,-0.67,0.075,
3858,-0.695,0.095,
3859,-0.69,0.11,
3860,-0.675,0.11,
3861,-0.66,0.085,
3862,-0.685,0.085,
3863,-0.685,0.095,
3864,-0.675,0.095,
3865,-0.665,0.11,
3866,-0.66,0.105,
3867,-0.665,0.095,
3868,-0.675,0.095,
3869,-0.675,0.09,
3870,-0.67,0.095,
3871,-0.65,0.125,
3872,-0.635,0.12,
3873,-0.64,0.1,
3874,-0.645,0.1,
3875,-0.66,0.11,
3876,-0.65,0.12,
3877,-0.625,0.12,
3878,-0.61,0.135,
3879,-0.61,0.145,
3880,-0.585,0.15,
3881,-0.58,0.17,
3882,-0.545,0.2,
3883,-0.515,0.215,
3884,-0.475,0.205,
3885,-0.43,0.2,
3886,-0.39,0.19,
3887,-0.345,0.185,
3888,-0.325,0.17,
3889,-0.315,0.2,
3890,-0.31,0.195,
3891,-0.325,0.185,
3892,-0.35,0.145,
3893,-0.365,0.125,
3894,-0.365,0.12,
3895,-0.345,0.11,
3896,-0.37,0.11,
3897,-0.42,0.095,
3898,-0.48,0.08,
3899,-0.51,0.085,
3900,-0.51,0.1,
3901,-0.515,0.115,
3902,-0.54,0.105,
3903,-0.56,0.085,
3904,-0.575,0.08,
3905,-0.58,0.075,
3906,-0.575,0.08,
3907,-0.6,0.1,
3908,-0.605,0.08,
3909,-0.645,0.075,
3910,-0.665,0.085,
3911,-0.68,0.105,
3912,-0.655,0.125,
3913,-0.64,0.125,
3914,-0.635,0.12,
3915,-0.615,0.105,
3916,-0.62,0.09,
3917,-0.63,0.085,
3918,-0.63,0.09,
3919,-0.65,0.07,
3920,-0.685,0.03,
3921,-0.73,0.02,
3922,-0.695,0.02,
3923,-0.565,0.03,
3924,-0.3,0.04,
3925,0.085,0.045,
3926,0.575,0.025,
3927,1.055,0.035,
3928,1.41,0.075,
3929,1.67,0.125,
3930,1.84,0.175,
3931,1.93,0.195,N
3932,1.905,0.195,
3933,1.75,0.205,
3934,1.395,0.19,
3935,0.83,0.16,
3936,0.19,0.14,
3937,-0.45,0.135,
3938,-0.975,0.09,
3939,-1.025,0.015,
3940,-0.9,-0.075,
3941,-0.79,-0.145,
3942,-0.77,-0.19,
3943,-0.75,-0.195,
3944,-0.755,-0.19,
3945,-0.745,-0.165,
3946,-0.745,-0.105,
3947,-0.715,-0.04,
3948,-0.69,0.005,
3949,-0.66,0.05,
3950,-0.685,0.05,
3951,-0.69,0.065,
3952,-0.675,0.045,
3953,-0.67,0.04,
3954,-0.66,0.065,
3955,-0.675,0.105,
3956,-0.66,0.12,
3957,-0.67,0.12,
3958,-0.715,0.09,
3959,-0.74,0.09,
3960,-0.725,0.105,
3961,-0.68,0.11,
3962,-0.63,0.085,
3963,-0.615,0.05,
3964,-0.65,0.045,
3965,-0.655,0.055,
3966,-0.68,0.085,
3967,-0.69,0.095,
3968,-0.655,0.09,
3969,-0.66,0.07,
3970,-0.675,0.055,
3971,-0.67,0.07,
3972,-0.65,0.085,
3973,-0.62,0.09,
3974,-0.615,0.095,
3975,-0.635,0.09,
3976,-0.65,0.08,
3977,-0.63,0.08,
3978,-0.61,0.09,
3979,-0.57,0.1,
3980,-0.56,0.1,
3981,-0.585,0.09,
3982,-0.6,0.06,
3983,-0.575,0.05,
3984,-0.545,0.04,
3985,-0.52,0.055,
3986,-0.515,0.045,
3987,-0.545,0.04,
3988,-0.525,0.03,
3989,-0.515,0.04,
3990,-0.505,0.055,
3991,-0.475,0.08,
3992,-0.45,0.075,
3993,-0.455,0.055,
3994,-0.475,0.04,
3995,-0.49,0.05,
3996,-0.475,0.06,
3997,-0.43,0.065,
3998,-0.405,0.045,
3999,-0.4,0.055,
4000,-0.39,0.04,
4001,-0.405,0.045,
4002,-0.37,0.07,
4003,-0.35,0.095,
4004,-0.325,0.08,
4005,-0.33,0.08,
4006,-0.33,0.065,
4007,-0.33,0.07,
4008,-0.29,0.075,
4009,-0.26,0.075,
4010,-0.225,0.065,
4011,-0.225,0.05,
4012,-0.21,0.035,
4013,-0.195,0.055,
4014,-0.165,0.065,
4015,-0.125,0.07,
4016,-0.09,0.07,
4017,-0.085,0.06,
4018,-0.1,0.035,
4019,-0.07,0.035,
4020,-0.01,0.055,
4021,0.05,0.075,
4022,0.09,0.06,
4023,0.085,0.05,
4024,0.1,0.015,
4025,0.12,0.025,
4026,0.175,0.025,
4027,0.2,0.03,
4028,0.23,0.03,
4029,0.255,0.02,
4030,0.255,0.015,
4031,0.265,0.005,
4032,0.275,0.025,
4033,0.315,0.045,
4034,0.32,0.05,
4035,0.325,0.06,
4036,0.31,0.035,
4037,0.31,0.035,
4038,0.29,0.04,
4039,0.32,0.05,
4040,0.32,0.04,
4041,0.31,0.05,
4042,0.28,0.04,
4043,0.23,0.06,
4044,0.17,0.065,
4045,0.135,0.085,
4046,0.135,0.09,
4047,0.155,0.07,
4048,0.145,0.025,
4049,0.115,0.005,
4050,0.05,0.02,
4051,-0.025,0.045,
4052,-0.115,0.07,
4053,-0.155,0.105,
4054,-0.175,0.11,
4055,-0.19,0.125,
4056,-0.2,0.135,
4057,-0.195,0.14,
4058,-0.21,0.13,
4059,-0.25,0.12,
4060,-0.27,0.085,
4061,-0.3,0.075,
4062,-0.305,0.09,
4063,-0.31,0.105,
4064,-0.305,0.105,
4065,-0.33,0.1,
4066,-0.365,0.09,
4067,-0.38,0.105,
4068,-0.37,0.13,
4069,-0.365,0.135,
4070,-0.36,0.145,
4071,-0.395,0.12,
4072,-0.425,0.115,
4073,-0.445,0.125,
4074,-0.445,0.125,
4075,-0.43,0.14,
4076,-0.45,0.13,
4077,-0.455,0.115,
4078,-0.455,0.105,
4079,-0.47,0.115,
4080,-0.465,0.14,
4081,-0.465,0.16,
4082,-0.45,0.14,
4083,-0.46,0.105,
4084,-0.475,0.105,
4085,-0.48,0.12,
4086,-0.465,0.125,
4087,-0.445,0.12,
4088,-0.44,0.125,
4089,-0.46,0.11,
4090,-0.495,0.125,
4091,-0.495,0.12,
4092,-0.475,0.125,
4093,-0.455,0.115,
4094,-0.445,0.1,
4095,-0.44,0.075,
4096,-0.455,0.065,
4097,-0.47,0.085,
4098,-0.47,0.085,
4099,-0.445,0.1,
4100,-0.415,0.085,
4101,-0.42,0.05,
4102,-0.44,0.045,
4103,-0.455,0.05,
4104,-0.43,0.06,
4105,-0.415,0.06,
4106,-0.415,0.055,
4107,-0.42,0.05,
4108,-0.425,0.05,
4109,-0.415,0.045,
4110,-0.38,0.065,
4111,-0.365,0.08,
4112,-0.37,0.08,
4113,-0.355,0.055,
4114,-0.37,0.05,
4115,-0.365,0.05,
4116,-0.355,0.07,
4117,-0.345,0.08,
4118,-0.335,0.05,
4119,-0.34,0.025,
4120,-0.34,0.02,
4121,-0.345,0.03,
4122,-0.335,0.05,
4123,-0.32,0.06,
4124,-0.31,0.05,
4125,-0.32,0.045,
4126,-0.35,0.045,
4127,-0.37,0.05,
4128,-0.355,0.08,
4129,-0.335,0.095,
4130,-0.325,0.065,
4131,-0.345,0.04,
4132,-0.35,0.015,
4133,-0.36,0.02,
4134,-0.365,0.035,
4135,-0.37,0.05,
4136,-0.39,0.03,
4137,-0.37,0.025,
4138,-0.365,0.015,
4139,-0.365,0.015,
4140,-0.37,0.005,
4141,-0.365,0.02,
4142,-0.37,0.025,
4143,-0.365,0.015,
4144,-0.375,0.0,
4145,-0.395,-0.025,
4146,-0.39,-0.015,
4147,-0.37,0.005,
4148,-0.365,0.0,
4149,-0.375,0.0,
4150,-0.4,0.0,
4151,-0.405,0.015,
4152,-0.4,0.035,
4153,-0.385,0.045,
4154,-0.38,0.025,
4155,-0.4,0.0,
4156,-0.43,0.015,
4157,-0.415,0.025,
4158,-0.42,0.04,
4159,-0.425,0.045,
4160,-0.41,0.04,
4161,-0.41,0.025,
4162,-0.435,0.0,
4163,-0.44,0.025,
4164,-0.42,0.025,
4165,-0.4,0.035,
4166,-0.41,0.025,
4167,-0.435,0.03,
4168,-0.445,0.025,
4169,-0.465,0.025,
4170,-0.45,0.045,
4171,-0.435,0.055,
4172,-0.415,0.045,
4173,-0.415,0.04,
4174,-0.445,0.01,
4175,-0.465,0.005,
4176,-0.46,-0.01,
4177,-0.425,-0.01,
4178,-0.415,-0.015,
4179,-0.425,-0.02,
4180,-0.46,-0.02,
4181,-0.455,-0.02,
4182,-0.435,-0.005,
4183,-0.425,0.025,
4184,-0.415,0.015,
4185,-0.42,0.005,
4186,-0.45,-0.025,
4187,-0.46,-0.02,
4188,-0.445,-0.02,
4189,-0.415,0.005,
4190,-0.4,0.005,
4191,-0.41,0.0,
4192,-0.43,-0.005,
4193,-0.45,0.0,
4194,-0.47,0.01,
4195,-0.47,0.03,
4196,-0.45,0.01,
4197,-0.42,-0.015,
4198,-0.425,-0.015,
4199,-0.445,-0.015,
4200,-0.44,-0.005,
4201,-0.415,0.01,
4202,-0.405,0.0,
4203,-0.43,0.005,
4204,-0.435,-0.005,
4205,-0.435,0.0,
4206,-0.43,0.0,
4207,-0.41,0.015,
4208,-0.42,0.01,
4209,-0.4,-0.005,
4210,-0.4,-0.015,
4211,-0.4,-0.005,
4212,-0.415,-0.005,
4213,-0.4,0.01,
4214,-0.39,-0.005,
4215,-0.405,-0.005,
4216,-0.45,-0.025,
4217,-0.44,-0.01,
4218,-0.41,-0.015,
4219,-0.385,-0.02,
4220,-0.39,-0.025,
4221,-0.41,-0.045,
4222,-0.435,-0.045,
4223,-0.435,-0.055,
4224,-0.395,-0.035,
4225,-0.365,-0.01,
4226,-0.35,0.0,
4227,-0.33,-0.005,
4228,-0.345,0.0,
4229,-0.335,0.005,
4230,-0.32,0.04,
4231,-0.27,0.075,
4232,-0.235,0.095,
4233,-0.22,0.1,
4234,-0.23,0.09,
4235,-0.205,0.105,
4236,-0.17,0.11,
4237,-0.12,0.125,
4238,-0.06,0.1,
4239,-0.035,0.055,
4240,-0.055,0.03,
4241,-0.06,0.0,
4242,-0.05,0.01,
4243,-0.045,0.03,
4244,-0.05,0.025,
4245,-0.05,0.005,
4246,-0.095,-0.005,
4247,-0.135,-0.015,
4248,-0.175,-0.01,
4249,-0.205,0.01,
4250,-0.225,0.03,
4251,-0.25,0.025,
4252,-0.29,-0.02,
4253,-0.305,-0.035,
4254,-0.305,-0.03,
4255,-0.31,-0.025,
4256,-0.33,-0.01,
4257,-0.335,-0.005,
4258,-0.365,-0.005,
4259,-0.375,-0.02,
4260,-0.36,-0.035,
4261,-0.35,-0.04,
4262,-0.335,-0.035,
4263,-0.345,-0.04,
4264,-0.38,-0.045,
4265,-0.4,-0.065,
4266,-0.395,-0.055,
4267,-0.38,-0.055,
4268,-0.375,-0.05,
4269,-0.405,-0.07,
4270,-0.45,-0.075,
4271,-0.49,-0.065,
4272,-0.53,-0.065,
4273,-0.48,-0.055,
4274,-0.32,-0.06,
4275,-0.055,-0.045,
4276,0.345,-0.045,
4277,0.835,-0.075,
4278,1.3,-0.065,
4279,1.67,-0.025,
4280,1.895,0.03,
4281,2.05,0.095,N
4282,2.095,0.14,
4283,2.03,0.19,
4284,1.855,0.215,
4285,1.505,0.155,
4286,0.95,0.065,
4287,0.31,-0.035,
4288,-0.33,-0.125,
4289,-0.755,-0.185,
4290,-0.675,-0.24,
4291,-0.465,-0.28,
4292,-0.365,-0.305,
4293,-0.395,-0.305,
4294,-0.44,-0.275,
4295,-0.47,-0.225,
4296,-0.45,-0.165,
4297,-0.395,-0.125,
4298,-0.4,-0.09,
4299,-0.395,-0.07,
4300,-0.415,-0.055,
4301,-0.425,-0.055,
4302,-0.435,-0.05,
4303,-0.435,-0.02,
4304,-0.41,-0.015,
4305,-0.43,-0.005,
4306,-0.43,-0.015,
4307,-0.425,-0.02,
4308,-0.4,0.005,
4309,-0.395,0.025,
4310,-0.39,0.03,
4311,-0.43,0.03,
4312,-0.485,0.025,
4313,-0.45,0.015,
4314,-0.4,0.02,
4315,-0.355,0.015,
4316,-0.37,0.0,
4317,-0.405,-0.02,
4318,-0.42,-0.07,
4319,-0.415,-0.07,
4320,-0.39,-0.07,
4321,-0.37,-0.045,
4322,-0.36,-0.04,
4323,-0.35,-0.025,
4324,-0.355,-0.01,
4325,-0.385,-0.005,
4326,-0.41,0.0,
4327,-0.4,-0.035,
4328,-0.365,-0.06,
4329,-0.34,-0.08,
4330,-0.34,-0.075,
4331,-0.35,-0.07,
4332,-0.335,-0.045,
4333,-0.345,-0.04,
4334,-0.345,-0.03,
4335,-0.325,-0.03,
4336,-0.31,-0.035,
4337,-0.3,-0.03,
4338,-0.295,-0.03,
4339,-0.29,-0.025,
4340,-0.26,-0.03,
4341,-0.25,-0.03,
4342,-0.255,-0.01,
4343,-0.27,-0.01,
4344,-0.26,-0.01,
4345,-0.26,-0.005,
4346,-0.235,-0.01,
4347,-0.215,-0.02,
4348,-0.205,-0.03,
4349,-0.215,-0.005,
4350,-0.215,-0.01,
4351,-0.195,-0.01,
4352,-0.18,-0.04,
4353,-0.16,-0.035,
4354,-0.15,-0.04,
4355,-0.14,-0.045,
4356,-0.11,-0.03,
4357,-0.085,-0.015,
4358,-0.09,-0.02,
4359,-0.06,-0.03,
4360,-0.045,-0.05,
4361,-0.035,-0.035,
4362,-0.015,-0.025,
4363,0.045,-0.01,
4364,0.065,-0.015,
4365,0.09,-0.02,
4366,0.11,-0.025,
4367,0.12,-0.02,
4368,0.165,-0.01,
4369,0.215,-0.005,
4370,0.25,-0.04,
4371,0.285,-0.05,
4372,0.31,-0.065,
4373,0.32,-0.045,
4374,0.35,-0.03,
4375,0.41,-0.035,
4376,0.45,-0.04,
4377,0.47,-0.055,
4378,0.485,-0.075,
4379,0.5,-0.075,
4380,0.54,-0.055,
4381,0.57,-0.04,
4382,0.59,-0.045,
4383,0.595,-0.055,
4384,0.57,-0.065,
4385,0.55,-0.065,
4386,0.57,-0.07,
4387,0.58,-0.055,
4388,0.585,-0.065,
4389,0.585,-0.07,
4390,0.565,-0.07,
4391,0.535,-0.07,
4392,0.535,-0.06,
4393,0.52,-0.05,
4394,0.515,-0.06,
4395,0.46,-0.07,
4396,0.415,-0.08,
4397,0.365,-0.07,
4398,0.335,-0.05,
4399,0.31,-0.045,
4400,0.275,-0.055,
4401,0.255,-0.04,
4402,0.205,-0.03,
4403,0.175,-0.02,
4404,0.15,-0.03,
4405,0.135,-0.035,
4406,0.12,-0.055,
4407,0.07,-0.03,
4408,0.07,-0.04,
4409,0.045,-0.015,
4410,0.04,-0.025,
4411,0.015,-0.02,
4412,-0.02,-0.03,
4413,-0.03,-0.075,
4414,-0.025,-0.1,
4415,-0.06,-0.105,
4416,-0.07,-0.09,
4417,-0.07,-0.065,
4418,-0.095,-0.055,
4419,-0.115,-0.08,
4420,-0.13,-0.12,
4421,-0.135,-0.135,
4422,-0.13,-0.115,
4423,-0.115,-0.08,
4424,-0.12,-0.075,
4425,-0.135,-0.1,
4426,-0.17,-0.09,
4427,-0.18,-0.08,
4428,-0.18,-0.055,
4429,-0.17,-0.055,
4430,-0.15,-0.06,
4431,-0.155,-0.055,
4432,-0.195,-0.045,
4433,-0.22,-0.045,
4434,-0.22,-0.055,
4435,-0.195,-0.05,
4436,-0.19,-0.06,
4437,-0.21,-0.05,
4438,-0.23,-0.07,
4439,-0.23,-0.08,
4440,-0.215,-0.085,
4441,-0.2,-0.06,
4442,-0.215,-0.065,
4443,-0.225,-0.075,
4444,-0.27,-0.095,
4445,-0.28,-0.085,
4446,-0.275,-0.065,
4447,-0.24,-0.05,
4448,-0.225,-0.065,
4449,-0.24,-0.08,
4450,-0.27,-0.105,
4451,-0.26,-0.095,
4452,-0.255,-0.08,
4453,-0.245,-0.06,
4454,-0.24,-0.075,
4455,-0.255,-0.065,
4456,-0.275,-0.08,
4457,-0.28,-0.06,
4458,-0.25,-0.05,
4459,-0.245,-0.035,
4460,-0.255,-0.035,
4461,-0.265,-0.05,
4462,-0.265,-0.07,
4463,-0.265,-0.07,
4464,-0.245,-0.055,
4465,-0.225,-0.055,
4466,-0.225,-0.045,
4467,-0.235,-0.05,
4468,-0.245,-0.065,
4469,-0.245,-0.06,
4470,-0.245,-0.055,
4471,-0.22,-0.035,
4472,-0.225,-0.04,
4473,-0.215,-0.055,
4474,-0.23,-0.08,
4475,-0.215,-0.075,
4476,-0.21,-0.06,
4477,-0.195,-0.055,
4478,-0.195,-0.04,
4479,-0.205,-0.015,
4480,-0.235,-0.015,
4481,-0.245,-0.005,
4482,-0.22,-0.03,
4483,-0.2,-0.05,
4484,-0.2,-0.085,
4485,-0.21,-0.105,
4486,-0.22,-0.1,
4487,-0.23,-0.1,
4488,-0.24,-0.085,
4489,-0.205,-0.08,
4490,-0.21,-0.1,
4491,-0.21,-0.1,
4492,-0.25,-0.11,
4493,-0.255,-0.085,
4494,-0.265,-0.095,
4495,-0.25,-0.075,
4496,-0.23,-0.08,
4497,-0.215,-0.08,
4498,-0.215,-0.07,
4499,-0.235,-0.07,
4500,-0.27,-0.07,
4501,-0.27,-0.07,
4502,-0.235,-0.085,
4503,-0.205,-0.09,
4504,-0.205,-0.095,
4505,-0.22,-0.1,
4506,-0.26,-0.08,
4507,-0.285,-0.065,
4508,-0.3,-0.075,
4509,-0.285,-0.09,
4510,-0.285,-0.095,
4511,-0.3,-0.095,
4512,-0.265,-0.065,
4513,-0.25,-0.035,
4514,-0.26,-0.04,
4515,-0.265,-0.035,
4516,-0.245,-0.055,
4517,-0.25,-0.065,
4518,-0.27,-0.065,
4519,-0.26,-0.045,
4520,-0.25,-0.035,
4521,-0.24,-0.035,
4522,-0.245,-0.045,
4523,-0.27,-0.06,
4524,-0.29,-0.05,
4525,-0.315,-0.02,
4526,-0.315,-0.015,
4527,-0.315,-0.03,
4528,-0.3,-0.055,
4529,-0.295,-0.07,
4530,-0.315,-0.08,
4531,-0.34,-0.12,
4532,-0.33,-0.135,
4533,-0.305,-0.105,
4534,-0.285,-0.09,
4535,-0.285,-0.085,
4536,-0.295,-0.07,
4537,-0.295,-0.07,
4538,-0.275,-0.075,
4539,-0.26,-0.075,
4540,-0.265,-0.07,
4541,-0.275,-0.07,
4542,-0.265,-0.07,
4543,-0.26,-0.04,
4544,-0.275,-0.035,
4545,-0.285,-0.035,
4546,-0.325,-0.05,
4547,-0.32,-0.04,
4548,-0.3,-0.04,
4549,-0.29,-0.02,
4550,-0.295,-0.025,
4551,-0.31,-0.035,
4552,-0.31,-0.045,
4553,-0.3,-0.025,
4554,-0.3,-0.01,
4555,-0.27,-0.01,
4556,-0.26,-0.03,
4557,-0.27,-0.03,
4558,-0.255,-0.025,
4559,-0.245,-0.045,
4560,-0.23,-0.045,
4561,-0.21,-0.04,
4562,-0.17,-0.04,
4563,-0.155,0.0,
4564,-0.125,0.035,
4565,-0.125,0.06,
4566,-0.075,0.085,
4567,-0.025,0.105,
4568,0.02,0.115,
4569,0.045,0.11,
4570,0.05,0.1,
4571,0.025,0.075,
4572,0.03,0.09,
4573,0.07,0.095,
4574,0.105,0.085,
4575,0.08,0.045,
4576,0.04,0.02,
4577,0.02,0.005,
4578,0.005,0.005,
4579,-0.015,0.01,
4580,-0.06,-0.005,
4581,-0.115,-0.005,
4582,-0.16,-0.005,
4583,-0.195,0.015,
4584,-0.2,0.025,
4585,-0.21,0.04,
4586,-0.23,0.04,
4587,-0.26,0.055,
4588,-0.3,0.035,
4589,-0.325,-0.015,
4590,-0.365,-0.06,
4591,-0.32,-0.07,
4592,-0.29,-0.065,
4593,-0.285,-0.05,
4594,-0.3,-0.08,
4595,-0.335,-0.115,
4596,-0.325,-0.105,
4597,-0.335,-0.1,
4598,-0.34,-0.115,
4599,-0.335,-0.115,
4600,-0.345,-0.13,
4601,-0.38,-0.13,
4602,-0.445,-0.11,
4603,-0.445,-0.11,
4604,-0.43,-0.105,
4605,-0.335,-0.11,
4606,-0.12,-0.08,
4607,0.245,-0.06,
4608,0.775,-0.07,
4609,1.285,-0.055,
4610,1.7,-0.005,
4611,1.95,0.095,
4612,2.055,0.17,N
4613,2.065,0.21,
4614,1.97,0.275,
4615,1.75,0.28,
4616,1.275,0.205,
4617,0.635,0.095,
4618,-0.005,-0.015,
4619,-0.645,-0.1,
4620,-0.775,-0.15,
4621,-0.6,-0.2,
4622,-0.445,-0.255,
4623,-0.415,-0.31,
4624,-0.47,-0.31,
4625,-0.485,-0.27,
4626,-0.44,-0.185,
4627,-0.435,-0.11,
4628,-0.415,-0.06,
4629,-0.41,-0.035,
4630,-0.435,-0.035,
4631,-0.455,-0.025,
4632,-0.45,0.005,
4633,-0.44,0.03,
4634,-0.435,0.03,
4635,-0.445,0.03,
4636,-0.445,0.02,
4637,-0.46,0.01,
4638,-0.455,0.015,
4639,-0.43,0.015,
4640,-0.43,0.005,
4641,-0.45,0.005,
4642,-0.47,0.01,
4643,-0.475,0.02,
4644,-0.45,0.035,
4645,-0.415,0.035,
4646,-0.405,0.025,
4647,-0.44,0.02,
4648,-0.515,-0.015,
4649,-0.54,-0.03,
4650,-0.455,-0.03,
4651,-0.42,-0.025,
4652,-0.415,-0.045,
4653,-0.425,-0.055,
4654,-0.44,-0.065,
4655,-0.44,-0.065,
4656,-0.425,-0.05,
4657,-0.415,-0.05,
4658,-0.41,-0.06,
4659,-0.405,-0.075,
4660,-0.41,-0.085,
4661,-0.42,-0.06,
4662,-0.405,-0.035,
4663,-0.39,-0.01,
4664,-0.355,0.005,
4665,-0.355,0.0,
4666,-0.37,-0.01,
4667,-0.38,-0.01,
4668,-0.35,0.0,
4669,-0.33,0.015,
4670,-0.37,0.01,
4671,-0.395,0.01,
4672,-0.38,0.02,
4673,-0.305,0.035,
4674,-0.25,0.02,
4675,-0.265,-0.025,
4676,-0.29,-0.055,
4677,-0.295,-0.075,
4678,-0.32,-0.08,
4679,-0.33,-0.06,
4680,-0.235,-0.03,
4681,-0.215,-0.005,
4682,-0.275,-0.005,
4683,-0.26,-0.015,
4684,-0.23,-0.035,
4685,-0.215,-0.015,
4686,-0.215,-0.01,
4687,-0.155,0.005,
4688,-0.125,0.015,
4689,-0.105,0.015,
4690,-0.105,0.0,
4691,-0.09,-0.01,
4692,-0.06,0.01,
4693,-0.025,0.035,
4694,0.005,0.035,
4695,0.04,0.025,
4696,0.04,0.005,
4697,0.08,0.015,
4698,0.12,0.035,
4699,0.14,0.045,
4700,0.18,0.035,
4701,0.21,0.02,
4702,0.23,0.0,
4703,0.265,-0.005,
4704,0.29,0.015,
4705,0.32,0.03,
4706,0.36,0.02,
4707,0.37,0.005,
4708,0.39,0.0,
4709,0.42,0.0,
4710,0.445,0.02,
4711,0.46,0.035,
4712,0.485,0.04,
4713,0.485,0.03,
4714,0.45,0.02,
4715,0.435,0.045,
4716,0.45,0.075,
4717,0.455,0.105,
4718,0.435,0.095,
4719,0.42,0.075,
4720,0.385,0.05,
4721,0.37,0.04,
4722,0.335,0.045,
4723,0.315,0.05,
4724,0.305,0.05,
4725,0.27,0.045,
4726,0.22,0.055,
4727,0.175,0.055,
4728,0.13,0.045,
4729,0.11,0.055,
4730,0.095,0.05,
4731,0.075,0.045,
4732,0.04,0.035,
4733,-0.025,0.025,
4734,-0.07,0.04,
4735,-0.06,0.065,
4736,-0.055,0.055,
4737,-0.08,0.07,
4738,-0.15,0.045,
4739,-0.17,0.04,
4740,-0.15,0.03,
4741,-0.16,0.035,
4742,-0.16,0.035,
4743,-0.185,0.02,
4744,-0.22,0.03,
4745,-0.24,0.025,
4746,-0.205,0.045,
4747,-0.2,0.035,
4748,-0.255,0.005,
4749,-0.3,-0.02,
4750,-0.315,-0.035,
4751,-0.29,-0.015,
4752,-0.31,0.02,
4753,-0.34,0.025,
4754,-0.345,0.02,
4755,-0.33,-0.005,
4756,-0.33,-0.015,
4757,-0.35,0.02,
4758,-0.355,0.025,
4759,-0.345,0.05,
4760,-0.34,0.05,
4761,-0.35,0.045,
4762,-0.365,0.03,
4763,-0.36,0.03,
4764,-0.35,0.04,
4765,-0.335,0.05,
4766,-0.34,0.035,
4767,-0.35,0.015,
4768,-0.37,0.005,
4769,-0.39,0.01,
4770,-0.375,0.015,
4771,-0.36,0.02,
4772,-0.335,0.01,
4773,-0.36,0.025,
4774,-0.36,0.025,
4775,-0.365,0.025,
4776,-0.335,0.045,
4777,-0.325,0.045,
4778,-0.335,0.045,
4779,-0.345,0.035,
4780,-0.355,0.045,
4781,-0.345,0.06,
4782,-0.36,0.085,
4783,-0.35,0.095,
4784,-0.32,0.08,
4785,-0.31,0.06,
4786,-0.305,0.05,
4787,-0.285,0.065,
4788,-0.27,0.095,
4789,-0.265,0.105,
4790,-0.245,0.065,
4791,-0.24,0.03,
4792,-0.24,0.0,
4793,-0.245,0.01,
4794,-0.26,0.045,
4795,-0.25,0.065,
4796,-0.25,0.07,
4797,-0.24,0.05,
4798,-0.27,0.045,
4799,-0.295,0.05,
4800,-0.285,0.075,
4801,-0.26,0.08,
4802,-0.245,0.07,
4803,-0.25,0.05,
4804,-0.28,0.03,
4805,-0.295,0.035,
4806,-0.29,0.06,
4807,-0.275,0.07,
4808,-0.27,0.085,
4809,-0.295,0.08,
4810,-0.315,0.095,
4811,-0.305,0.095,
4812,-0.295,0.095,
4813,-0.27,0.065,
4814,-0.26,0.015,
4815,-0.275,0.02,
4816,-0.29,0.02,
4817,-0.295,0.05,
4818,-0.325,0.055,
4819,-0.31,0.06,
4820,-0.305,0.05,
4821,-0.31,0.055,
4822,-0.31,0.065,
4823,-0.31,0.075,
4824,-0.305,0.06,
4825,-0.315,0.05,
4826,-0.335,0.015,
4827,-0.34,-0.01,
4828,-0.36,0.0,
4829,-0.34,0.02,
4830,-0.32,0.03,
4831,-0.32,0.02,
4832,-0.32,-0.015,
4833,-0.355,-0.02,
4834,-0.36,-0.015,
4835,-0.355,-0.005,
4836,-0.335,0.005,
4837,-0.335,0.025,
4838,-0.34,0.05,
4839,-0.34,0.035,
4840,-0.35,0.015,
4841,-0.365,0.01,
4842,-0.36,0.02,
4843,-0.345,0.035,
4844,-0.345,0.015,
4845,-0.35,0.01,
4846,-0.38,-0.015,
4847,-0.39,0.0,
4848,-0.385,0.015,
4849,-0.36,0.035,
4850,-0.355,0.02,
4851,-0.38,0.015,
4852,-0.385,0.01,
4853,-0.385,0.005,
4854,-0.39,0.025,
4855,-0.405,0.04,
4856,-0.395,0.05,
4857,-0.385,0.055,
4858,-0.365,0.04,
4859,-0.405,0.005,
4860,-0.44,-0.005,
4861,-0.415,0.0,
4862,-0.365,0.015,
4863,-0.35,0.035,
4864,-0.4,0.03,
4865,-0.425,0.035,
4866,-0.42,0.04,
4867,-0.395,0.06,
4868,-0.39,0.09,
4869,-0.4,0.105,
4870,-0.41,0.105,
4871,-0.405,0.095,
4872,-0.405,0.075,
4873,-0.405,0.1,
4874,-0.41,0.095,
4875,-0.41,0.06,
4876,-0.405,0.005,
4877,-0.415,-0.025,
4878,-0.415,-0.01,
4879,-0.415,0.035,
4880,-0.415,0.035,
4881,-0.415,0.045,
4882,-0.43,0.04,
4883,-0.45,0.04,
4884,-0.445,0.015,
4885,-0.415,0.0,
4886,-0.405,-0.025,
4887,-0.39,-0.02,
4888,-0.42,-0.025,
4889,-0.435,0.0,
4890,-0.44,0.02,
4891,-0.42,0.035,
4892,-0.38,0.02,
4893,-0.38,-0.04,
4894,-0.4,-0.07,
4895,-0.42,-0.055,
4896,-0.41,-0.02,
4897,-0.385,0.02,
4898,-0.355,0.015,
4899,-0.33,0.01,
4900,-0.325,0.0,
4901,-0.315,0.045,
4902,-0.285,0.09,
4903,-0.26,0.14,
4904,-0.23,0.135,
4905,-0.175,0.11,
4906,-0.12,0.095,
4907,-0.105,0.1,
4908,-0.105,0.13,
4909,-0.105,0.145,
4910,-0.09,0.125,
4911,-0.085,0.065,
4912,-0.115,0.025,
4913,-0.125,-0.005,
4914,-0.155,-0.005,
4915,-0.2,0.01,
4916,-0.235,0.005,
4917,-0.3,0.005,
4918,-0.335,-0.01,
4919,-0.36,0.005,
4920,-0.385,0.03,
4921,-0.39,0.08,
4922,-0.41,0.1,
4923,-0.45,0.095,
4924,-0.485,0.045,
4925,-0.51,0.025,
4926,-0.495,0.0,
4927,-0.485,0.025,
4928,-0.47,0.005,
4929,-0.47,0.0,
4930,-0.485,0.0,
4931,-0.505,0.025,
4932,-0.5,0.05,
4933,-0.49,0.045,
4934,-0.49,0.035,
4935,-0.51,0.01,
4936,-0.57,0.005,
4937,-0.63,-0.03,
4938,-0.66,-0.07,
4939,-0.66,-0.095,
4940,-0.565,-0.09,
4941,-0.315,-0.055,
4942,0.085,-0.055,
4943,0.655,-0.11,
4944,1.22,-0.1,
4945,1.66,0.02,
4946,1.925,0.135,
4947,2.045,0.21,N
4948,2.025,0.255,
4949,1.92,0.29,
4950,1.605,0.27,
4951,1.065,0.165,
4952,0.425,0.065,
4953,-0.215,-0.035,
4954,-0.855,-0.12,
4955,-0.81,-0.2,
4956,-0.63,-0.29,
4957,-0.555,-0.34,
4958,-0.58,-0.355,
4959,-0.595,-0.32,
4960,-0.6,-0.26,
4961,-0.58,-0.16,
4962,-0.57,-0.105,
4963,-0.585,-0.075,
4964,-0.595,-0.075,
4965,-0.615,-0.08,
4966,-0.625,-0.06,
4967,-0.625,-0.055,
4968,-0.63,-0.075,
4969,-0.61,-0.09,
4970,-0.605,-0.095,
4971,-0.61,-0.08,
4972,-0.63,-0.075,
4973,-0.645,-0.075,
4974,-0.63,-0.045,
4975,-0.625,-0.005,
4976,-0.61,0.0,
4977,-0.615,0.01,
4978,-0.63,0.0,
4979,-0.65,0.005,
4980,-0.64,0.035,
4981,-0.62,0.045,
4982,-0.595,0.015,
4983,-0.615,-0.02,
4984,-0.61,-0.035,
4985,-0.595,-0.03,
4986,-0.575,-0.03,
4987,-0.56,-0.075,
4988,-0.565,-0.12,
4989,-0.575,-0.11,
4990,-0.59,-0.09,
4991,-0.59,-0.05,
4992,-0.58,-0.045,
4993,-0.57,-0.035,
4994,-0.55,-0.035,
4995,-0.555,-0.055,
4996,-0.565,-0.065,
4997,-0.575,-0.05,
4998,-0.565,-0.015,
4999,-0.535,0.005,
5000,-0.51,0.0,
5001,-0.51,-0.03,
5002,-0.52,-0.055,
5003,-0.51,-0.065,
5004,-0.5,-0.03,
5005,-0.495,0.015,
5006,-0.475,0.035,
5007,-0.455,0.04,
5008,-0.46,0.015,
5009,-0.435,-0.005,
5010,-0.43,-0.05,
5011,-0.415,-0.065,
5012,-0.39,-0.055,
5013,-0.375,-0.025,
5014,-0.365,-0.005,
5015,-0.35,0.045,
5016,-0.34,0.075,
5017,-0.31,0.09,
5018,-0.29,0.06,
5019,-0.265,0.025,
5020,-0.255,-0.02,
5021,-0.235,-0.045,
5022,-0.19,-0.01,
5023,-0.16,0.025,
5024,-0.135,0.015,
5025,-0.11,-0.03,
5026,-0.115,-0.1,
5027,-0.095,-0.13,
5028,-0.04,-0.11,
5029,0.005,-0.07,
5030,0.025,-0.05,
5031,0.05,-0.06,
5032,0.07,-0.07,
5033,0.095,-0.055,
5034,0.135,-0.04,
5035,0.175,-0.02,
5036,0.21,-0.02,
5037,0.22,-0.045,
5038,0.225,-0.065,
5039,0.215,-0.05,
5040,0.25,-0.02,
5041,0.27,0.02,
5042,0.295,0.05,
5043,0.285,0.035,
5044,0.255,0.01,
5045,0.22,0.0,
5046,0.22,0.0,
5047,0.255,-0.005,
5048,0.25,-0.075,
5049,0.215,-0.15,
5050,0.165,-0.16,
5051,0.13,-0.095,
5052,0.12,-0.06,
5053,0.105,-0.04,
5054,0.08,-0.05,
5055,0.055,-0.075,
5056,-0.015,-0.105,
5057,-0.055,-0.12,
5058,-0.085,-0.1,
5059,-0.09,-0.095,
5060,-0.09,-0.09,
5061,-0.135,-0.065,
5062,-0.18,-0.035,
5063,-0.22,-0.01,
5064,-0.235,-0.005,
5065,-0.235,-0.015,
5066,-0.255,-0.055,
5067,-0.295,-0.06,
5068,-0.335,-0.075,
5069,-0.355,-0.08,
5070,-0.335,-0.05,
5071,-0.355,-0.015,
5072,-0.365,-0.005,
5073,-0.39,-0.01,
5074,-0.41,-0.01,
5075,-0.435,-0.02,
5076,-0.435,-0.02,
5077,-0.41,-0.025,
5078,-0.395,-0.005,
5079,-0.425,0.005,
5080,-0.455,0.005,
5081,-0.46,0.02,
5082,-0.465,0.005,
5083,-0.45,-0.005,
5084,-0.46,-0.05,
5085,-0.455,-0.095,
5086,-0.455,-0.11,
5087,-0.47,-0.075,
5088,-0.46,-0.03,
5089,-0.46,-0.01,
5090,-0.455,-0.005,
5091,-0.47,-0.035,
5092,-0.465,-0.045,
5093,-0.47,-0.045,
5094,-0.455,-0.015,
5095,-0.44,0.02,
5096,-0.45,0.005,
5097,-0.46,-0.03,
5098,-0.475,-0.03,
5099,-0.47,-0.01,
5100,-0.46,0.005,
5101,-0.445,-0.03,
5102,-0.435,-0.075,
5103,-0.435,-0.11,
5104,-0.445,-0.1,
5105,-0.44,-0.08,
5106,-0.445,-0.05,
5107,-0.43,-0.025,
5108,-0.41,-0.025,
5109,-0.415,-0.035,
5110,-0.42,-0.05,
5111,-0.435,-0.045,
5112,-0.42,-0.02,
5113,-0.4,0.03,
5114,-0.39,0.06,
5115,-0.4,0.08,
5116,-0.4,0.1,
5117,-0.41,0.1,
5118,-0.4,0.05,
5119,-0.39,-0.02,
5120,-0.38,-0.115,
5121,-0.395,-0.135,
5122,-0.4,-0.11,
5123,-0.4,-0.08,
5124,-0.37,-0.04,
5125,-0.345,-0.02,
5126,-0.35,-0.01,
5127,-0.39,-0.02,
5128,-0.39,-0.04,
5129,-0.375,-0.05,
5130,-0.37,-0.045,
5131,-0.35,-0.03,
5132,-0.355,-0.06,
5133,-0.36,-0.095,
5134,-0.38,-0.11,
5135,-0.395,-0.09,
5136,-0.385,-0.06,
5137,-0.365,-0.035,
5138,-0.365,-0.04,
5139,-0.375,-0.065,
5140,-0.38,-0.06,
5141,-0.385,-0.055,
5142,-0.38,-0.055,
5143,-0.375,-0.025,
5144,-0.37,-0.025,
5145,-0.375,-0.02,
5146,-0.38,-0.04,
5147,-0.405,-0.03,
5148,-0.39,-0.02,
5149,-0.38,0.0,
5150,-0.35,0.005,
5151,-0.375,-0.04,
5152,-0.39,-0.07,
5153,-0.395,-0.08,
5154,-0.39,-0.045,
5155,-0.385,-0.03,
5156,-0.375,-0.015,
5157,-0.38,-0.03,
5158,-0.4,-0.075,
5159,-0.405,-0.095,
5160,-0.395,-0.09,
5161,-0.375,-0.075,
5162,-0.355,-0.07,
5163,-0.36,-0.065,
5164,-0.38,-0.06,
5165,-0.405,-0.045,
5166,-0.38,-0.015,
5167,-0.36,0.005,
5168,-0.355,0.015,
5169,-0.35,0.015,
5170,-0.365,0.005,
5171,-0.395,0.0,
5172,-0.39,-0.02,
5173,-0.375,0.0,
5174,-0.35,0.0,
5175,-0.35,-0.005,
5176,-0.355,0.01,
5177,-0.36,0.02,
5178,-0.365,0.045,
5179,-0.375,0.035,
5180,-0.365,-0.035,
5181,-0.345,-0.115,
5182,-0.345,-0.17,
5183,-0.36,-0.13,
5184,-0.355,-0.11,
5185,-0.345,-0.105,
5186,-0.335,-0.115,
5187,-0.33,-0.115,
5188,-0.34,-0.11,
5189,-0.375,-0.085,
5190,-0.36,-0.07,
5191,-0.335,-0.045,
5192,-0.32,-0.035,
5193,-0.33,-0.04,
5194,-0.35,-0.04,
5195,-0.335,-0.04,
5196,-0.34,-0.025,
5197,-0.315,-0.025,
5198,-0.285,-0.025,
5199,-0.275,-0.03,
5200,-0.295,-0.005,
5201,-0.295,0.02,
5202,-0.275,0.03,
5203,-0.23,0.015,
5204,-0.215,0.0,
5205,-0.21,0.03,
5206,-0.19,0.06,
5207,-0.185,0.065,
5208,-0.175,0.06,
5209,-0.155,0.04,
5210,-0.12,0.045,
5211,-0.05,0.065,
5212,0.0,0.08,
5213,0.015,0.115,
5214,0.025,0.07,
5215,0.035,0.05,
5216,0.05,0.01,
5217,0.05,0.015,
5218,0.025,0.0,
5219,0.005,-0.015,
5220,0.0,-0.025,
5221,-0.03,-0.02,
5222,-0.075,-0.02,
5223,-0.12,-0.025,
5224,-0.155,-0.025,
5225,-0.17,-0.015,
5226,-0.175,-0.01,
5227,-0.195,0.02,
5228,-0.23,0.025,
5229,-0.27,0.025,
5230,-0.305,-0.01,
5231,-0.31,-0.015,
5232,-0.29,-0.015,
5233,-0.285,0.0,
5234,-0.295,-0.01,
5235,-0.31,-0.03,
5236,-0.325,-0.025,
5237,-0.33,-0.035,
5238,-0.32,-0.045,
5239,-0.32,-0.05,
5240,-0.29,-0.05,
5241,-0.29,-0.065,
5242,-0.325,-0.065,
5243,-0.35,-0.06,
5244,-0.37,-0.05,
5245,-0.375,-0.05,
5246,-0.35,-0.07,
5247,-0.285,-0.065,
5248,-0.13,-0.05,
5249,0.195,-0.02,
5250,0.69,-0.005,
5251,1.215,0.005,
5252,1.665,0.045,
5253,1.935,0.1,
5254,2.07,0.13,
5255,2.1,0.165,N
5256,2.05,0.21,
5257,1.895,0.23,
5258,1.53,0.195,
5259,0.94,0.1,
5260,0.3,0.0,
5261,-0.34,-0.06,
5262,-0.75,-0.09,
5263,-0.605,-0.135,
5264,-0.395,-0.18,
5265,-0.355,-0.22,
5266,-0.39,-0.225,
5267,-0.44,-0.2,
5268,-0.41,-0.155,
5269,-0.385,-0.09,
5270,-0.36,-0.055,
5271,-0.365,-0.04,
5272,-0.4,-0.025,
5273,-0.4,-0.03,
5274,-0.39,-0.015,
5275,-0.385,0.005,
5276,-0.365,0.005,
5277,-0.37,-0.005,
5278,-0.4,0.005,
5279,-0.425,0.03,
5280,-0.395,0.06,
5281,-0.375,0.05,
5282,-0.37,0.06,
5283,-0.37,0.04,
5284,-0.375,0.065,
5285,-0.385,0.11,
5286,-0.365,0.135,
5287,-0.355,0.11,
5288,-0.355,0.04,
5289,-0.37,-0.005,
5290,-0.365,-0.025,
5291,-0.355,-0.005,
5292,-0.355,0.02,
5293,-0.35,0.035,
5294,-0.33,0.035,
5295,-0.32,0.035,
5296,-0.345,0.025,
5297,-0.35,0.025,
5298,-0.345,0.055,
5299,-0.335,0.06,
5300,-0.31,0.05,
5301,-0.305,0.035,
5302,-0.305,0.02,
5303,-0.315,0.035,
5304,-0.305,0.055,
5305,-0.285,0.08,
5306,-0.26,0.095,
5307,-0.27,0.095,
5308,-0.28,0.07,
5309,-0.275,0.065,
5310,-0.265,0.065,
5311,-0.245,0.05,
5312,-0.235,0.035,
5313,-0.23,0.005,
5314,-0.23,-0.005,
5315,-0.23,-0.005,
5316,-0.21,-0.005,
5317,-0.185,0.015,
5318,-0.165,0.025,
5319,-0.165,0.01,
5320,-0.165,-0.01,
5321,-0.165,-0.015,
5322,-0.14,0.005,
5323,-0.115,0.015,
5324,-0.08,0.015,
5325,-0.06,0.01,
5326,-0.03,-0.01,
5327,-0.01,0.005,
5328,0.035,0.015,
5329,0.055,0.045,
5330,0.035,0.045,
5331,0.015,0.025,
5332,0.035,0.01,
5333,0.095,0.015,
5334,0.145,0.01,
5335,0.185,0.03,
5336,0.21,0.03,
5337,0.24,0.035,
5338,0.26,0.04,
5339,0.285,0.03,
5340,0.325,0.04,
5341,0.37,0.05,
5342,0.41,0.045,
5343,0.435,0.035,
5344,0.435,0.03,
5345,0.45,0.05,
5346,0.475,0.07,
5347,0.485,0.09,
5348,0.51,0.085,
5349,0.5,0.095,
5350,0.5,0.1,
5351,0.5,0.075,
5352,0.535,0.045,
5353,0.52,0.01,
5354,0.49,-0.005,
5355,0.435,0.005,
5356,0.42,0.03,
5357,0.39,0.03,
5358,0.39,0.04,
5359,0.38,0.055,
5360,0.35,0.055,
5361,0.315,0.05,
5362,0.275,0.045,
5363,0.24,0.055,
5364,0.21,0.055,
5365,0.195,0.075,
5366,0.185,0.08,
5367,0.12,0.07,
5368,0.07,0.075,
5369,0.025,0.085,
5370,0.015,0.135,
5371,0.015,0.175,
5372,0.005,0.165,
5373,-0.04,0.095,
5374,-0.08,0.015,
5375,-0.1,-0.025,
5376,-0.105,-0.015,
5377,-0.11,0.03,
5378,-0.105,0.065,
5379,-0.125,0.05,
5380,-0.17,0.04,
5381,-0.2,0.035,
5382,-0.2,0.06,
5383,-0.205,0.105,
5384,-0.19,0.075,
5385,-0.22,0.015,
5386,-0.265,-0.035,
5387,-0.295,-0.04,
5388,-0.28,-0.02,
5389,-0.27,0.015,
5390,-0.255,0.02,
5391,-0.26,0.02,
5392,-0.29,0.015,
5393,-0.31,0.015,
5394,-0.3,0.035,
5395,-0.275,0.035,
5396,-0.27,0.035,
5397,-0.29,0.035,
5398,-0.295,0.035,
5399,-0.315,0.05,
5400,-0.315,0.06,
5401,-0.285,0.07,
5402,-0.275,0.045,
5403,-0.285,0.04,
5404,-0.285,0.025,
5405,-0.29,0.035,
5406,-0.285,0.04,
5407,-0.27,0.055,
5408,-0.26,0.05,
5409,-0.265,0.035,
5410,-0.275,0.025,
5411,-0.27,0.035,
5412,-0.26,0.065,
5413,-0.245,0.055,
5414,-0.235,0.07,
5415,-0.22,0.05,
5416,-0.235,0.025,
5417,-0.22,0.035,
5418,-0.215,0.055,
5419,-0.195,0.06,
5420,-0.195,0.05,
5421,-0.205,0.045,
5422,-0.2,0.025,
5423,-0.205,0.03,
5424,-0.195,0.035,
5425,-0.19,0.055,
5426,-0.2,0.035,
5427,-0.21,0.035,
5428,-0.205,0.015,
5429,-0.225,0.02,
5430,-0.225,0.02,
5431,-0.21,0.03,
5432,-0.195,0.015,
5433,-0.195,0.015,
5434,-0.215,0.015,
5435,-0.23,0.02,
5436,-0.235,0.02,
5437,-0.22,0.035,
5438,-0.205,0.045,
5439,-0.215,0.03,
5440,-0.225,0.015,
5441,-0.255,0.02,
5442,-0.235,0.02,
5443,-0.23,0.035,
5444,-0.24,0.035,
5445,-0.24,0.035,
5446,-0.245,0.045,
5447,-0.26,0.055,
5448,-0.265,0.06,
5449,-0.26,0.055,
5450,-0.25,0.035,
5451,-0.26,0.025,
5452,-0.285,-0.015,
5453,-0.295,-0.02,
5454,-0.295,-0.01,
5455,-0.275,0.005,
5456,-0.265,0.03,
5457,-0.27,0.025,
5458,-0.285,0.015,
5459,-0.29,0.005,
5460,-0.295,-0.02,
5461,-0.285,-0.04,
5462,-0.265,-0.045,
5463,-0.27,-0.04,
5464,-0.285,-0.035,
5465,-0.285,-0.005,
5466,-0.27,0.0,
5467,-0.27,0.01,
5468,-0.29,0.025,
5469,-0.33,0.02,
5470,-0.335,0.005,
5471,-0.32,-0.015,
5472,-0.295,-0.025,
5473,-0.305,-0.03,
5474,-0.29,-0.035,
5475,-0.295,-0.035,
5476,-0.305,-0.045,
5477,-0.325,-0.055,
5478,-0.32,-0.04,
5479,-0.32,-0.03,
5480,-0.305,-0.015,
5481,-0.305,-0.03,
5482,-0.33,-0.03,
5483,-0.335,-0.03,
5484,-0.345,-0.005,
5485,-0.325,0.01,
5486,-0.315,0.015,
5487,-0.31,0.0,
5488,-0.325,-0.02,
5489,-0.355,-0.015,
5490,-0.335,0.0,
5491,-0.32,0.01,
5492,-0.31,0.01,
5493,-0.32,0.0,
5494,-0.335,0.0,
5495,-0.34,0.015,
5496,-0.335,0.035,
5497,-0.33,0.035,
5498,-0.31,0.035,
5499,-0.325,0.005,
5500,-0.345,0.01,
5501,-0.345,0.02,
5502,-0.335,0.035,
5503,-0.31,0.045,
5504,-0.29,0.05,
5505,-0.275,0.045,
5506,-0.27,0.045,
5507,-0.29,0.07,
5508,-0.24,0.12,
5509,-0.2,0.16,
5510,-0.195,0.185,
5511,-0.175,0.19,
5512,-0.165,0.195,
5513,-0.14,0.205,
5514,-0.085,0.215,
5515,-0.055,0.215,
5516,-0.03,0.205,
5517,-0.015,0.17,
5518,-0.01,0.135,
5519,-0.03,0.145,
5520,-0.025,0.145,
5521,-0.02,0.125,
5522,0.005,0.09,
5523,-0.005,0.055,
5524,-0.065,0.025,
5525,-0.145,0.015,
5526,-0.195,0.015,
5527,-0.22,0.05,
5528,-0.22,0.04,
5529,-0.225,0.055,
5530,-0.275,0.045,
5531,-0.33,0.04,
5532,-0.34,0.035,
5533,-0.35,0.04,
5534,-0.34,0.04,
5535,-0.345,0.03,
5536,-0.35,0.02,
5537,-0.38,0.03,
5538,-0.39,0.04,
5539,-0.39,0.04,
5540,-0.39,0.035,
5541,-0.375,0.03,
5542,-0.38,0.035,
5543,-0.395,0.035,
5544,-0.395,0.05,
5545,-0.405,0.04,
5546,-0.42,0.045,
5547,-0.48,0.035,
5548,-0.555,0.02,
5549,-0.59,0.02,
5550,-0.53,0.04,
5551,-0.38,0.06,
5552,-0.07,0.065,
5553,0.395,0.045,
5554,0.955,0.025,
5555,1.475,0.065,
5556,1.87,0.125,
5557,2.09,0.225,
5558,2.155,0.285,N
5559,2.12,0.28,
5560,1.97,0.185,
5561,1.66,0.05,
5562,1.13,-0.045,
5563,0.49,-0.115,
5564,-0.15,-0.185,
5565,-0.72,-0.255,
5566,-0.685,-0.305,
5567,-0.49,-0.325,
5568,-0.405,-0.31,
5569,-0.415,-0.27,
5570,-0.43,-0.215,
5571,-0.425,-0.175,
5572,-0.44,-0.145,
5573,-0.46,-0.125,
5574,-0.465,-0.1,
5575,-0.48,-0.075,
5576,-0.455,-0.06,
5577,-0.46,-0.065,
5578,-0.48,-0.075,
5579,-0.49,-0.06,
5580,-0.485,-0.055,
5581,-0.495,-0.03,
5582,-0.48,-0.04,
5583,-0.475,-0.05,
5584,-0.5,-0.07,
5585,-0.51,-0.05,
5586,-0.52,-0.04,
5587,-0.51,-0.015,
5588,-0.49,0.0,
5589,-0.485,-0.005,
5590,-0.49,-0.025,
5591,-0.49,-0.02,
5592,-0.495,0.0,
5593,-0.475,0.01,
5594,-0.465,0.01,
5595,-0.49,-0.01,
5596,-0.5,-0.035,
5597,-0.505,-0.015,
5598,-0.5,0.01,
5599,-0.46,0.035,
5600,-0.435,0.04,
5601,-0.435,0.04,
5602,-0.445,0.035,
5603,-0.47,0.06,
5604,-0.47,0.085,
5605,-0.44,0.075,
5606,-0.4,0.045,
5607,-0.4,0.015,
5608,-0.43,-0.005,
5609,-0.44,-0.005,
5610,-0.425,0.015,
5611,-0.4,0.025,
5612,-0.375,0.025,
5613,-0.385,0.04,
5614,-0.39,0.04,
5615,-0.38,0.04,
5616,-0.365,0.04,
5617,-0.345,0.05,
5618,-0.33,0.04,
5619,-0.32,0.045,
5620,-0.335,0.01,
5621,-0.315,0.02,
5622,-0.315,0.05,
5623,-0.31,0.085,
5624,-0.275,0.105,
5625,-0.26,0.07,
5626,-0.275,0.05,
5627,-0.265,0.08,
5628,-0.24,0.13,
5629,-0.215,0.14,
5630,-0.2,0.03,
5631,-0.155,-0.07,
5632,-0.155,-0.115,
5633,-0.15,-0.095,
5634,-0.14,-0.065,
5635,-0.1,-0.015,
5636,-0.085,-0.01,
5637,-0.05,-0.03,
5638,-0.035,-0.045,
5639,-0.015,-0.05,
5640,0.015,-0.05,
5641,0.05,-0.035,
5642,0.075,-0.03,
5643,0.105,-0.035,
5644,0.11,-0.05,
5645,0.135,-0.05,
5646,0.16,-0.035,
5647,0.185,-0.03,
5648,0.215,-0.035,
5649,0.23,-0.05,
5650,0.23,-0.05,
5651,0.245,-0.035,
5652,0.26,-0.025,
5653,0.275,-0.01,
5654,0.3,0.02,
5655,0.295,0.035,
5656,0.28,0.035,
5657,0.285,0.035,
5658,0.28,0.035,
5659,0.29,0.025,
5660,0.28,-0.005,
5661,0.25,-0.04,
5662,0.23,-0.065,
5663,0.2,-0.065,
5664,0.2,-0.055,
5665,0.185,-0.06,
5666,0.175,-0.075,
5667,0.135,-0.075,
5668,0.105,-0.06,
5669,0.06,-0.05,
5670,0.045,-0.035,
5671,0.02,-0.01,
5672,0.0,-0.01,
5673,-0.03,-0.025,
5674,-0.07,-0.045,
5675,-0.1,-0.04,
5676,-0.125,-0.01,
5677,-0.15,0.02,
5678,-0.145,0.03,
5679,-0.165,0.02,
5680,-0.2,0.0,
5681,-0.235,0.005,
5682,-0.23,0.01,
5683,-0.22,0.025,
5684,-0.21,0.02,
5685,-0.23,0.02,
5686,-0.25,0.015,
5687,-0.28,0.02,
5688,-0.29,0.035,
5689,-0.295,0.03,
5690,-0.28,0.03,
5691,-0.27,0.025,
5692,-0.295,0.0,
5693,-0.32,0.03,
5694,-0.325,0.055,
5695,-0.31,0.07,
5696,-0.295,0.045,
5697,-0.29,0.025,
5698,-0.315,0.005,
5699,-0.335,-0.01,
5700,-0.31,-0.01,
5701,-0.31,-0.01,
5702,-0.3,0.0,
5703,-0.285,-0.005,
5704,-0.305,-0.025,
5705,-0.295,-0.02,
5706,-0.315,0.01,
5707,-0.305,0.04,
5708,-0.28,0.03,
5709,-0.28,-0.005,
5710,-0.28,-0.055,
5711,-0.28,-0.055,
5712,-0.285,-0.04,
5713,-0.28,-0.015,
5714,-0.26,-0.02,
5715,-0.265,-0.015,
5716,-0.28,-0.03,
5717,-0.28,-0.02,
5718,-0.265,0.01,
5719,-0.255,0.01,
5720,-0.23,0.005,
5721,-0.245,0.0,
5722,-0.25,0.01,
5723,-0.265,0.03,
5724,-0.26,0.065,
5725,-0.245,0.08,
5726,-0.23,0.065,
5727,-0.24,0.05,
5728,-0.245,0.02,
5729,-0.235,0.035,
5730,-0.24,0.045,
5731,-0.24,0.06,
5732,-0.22,0.06,
5733,-0.235,0.025,
5734,-0.245,-0.01,
5735,-0.265,-0.045,
5736,-0.25,-0.055,
5737,-0.23,-0.02,
5738,-0.225,0.0,
5739,-0.21,-0.02,
5740,-0.225,-0.035,
5741,-0.24,-0.04,
5742,-0.25,-0.03,
5743,-0.24,0.01,
5744,-0.235,0.01,
5745,-0.23,0.01,
5746,-0.225,0.015,
5747,-0.225,0.02,
5748,-0.225,0.025,
5749,-0.22,0.04,
5750,-0.235,0.0,
5751,-0.255,-0.03,
5752,-0.285,-0.04,
5753,-0.285,-0.02,
5754,-0.27,0.03,
5755,-0.27,0.065,
5756,-0.29,0.03,
5757,-0.29,-0.04,
5758,-0.295,-0.08,
5759,-0.32,-0.075,
5760,-0.325,-0.015,
5761,-0.32,0.01,
5762,-0.285,-0.045,
5763,-0.29,-0.12,
5764,-0.32,-0.17,
5765,-0.32,-0.165,
5766,-0.305,-0.125,
5767,-0.305,-0.08,
5768,-0.3,-0.09,
5769,-0.295,-0.09,
5770,-0.315,-0.095,
5771,-0.32,-0.075,
5772,-0.315,-0.04,
5773,-0.305,-0.02,
5774,-0.28,-0.015,
5775,-0.29,-0.01,
5776,-0.275,-0.035,
5777,-0.285,-0.03,
5778,-0.28,-0.005,
5779,-0.275,0.005,
5780,-0.28,0.0,
5781,-0.285,-0.035,
5782,-0.3,-0.05,
5783,-0.32,-0.045,
5784,-0.32,-0.015,
5785,-0.31,0.05,
5786,-0.295,0.095,
5787,-0.295,0.075,
5788,-0.27,-0.01,
5789,-0.285,-0.095,
5790,-0.32,-0.145,
5791,-0.32,-0.145,
5792,-0.315,-0.13,
5793,-0.295,-0.115,
5794,-0.29,-0.105,
5795,-0.305,-0.105,
5796,-0.305,-0.1,
5797,-0.3,-0.095,
5798,-0.285,-0.095,
5799,-0.275,-0.085,
5800,-0.28,-0.07,
5801,-0.27,-0.07,
5802,-0.29,-0.06,
5803,-0.29,-0.03,
5804,-0.28,-0.015,
5805,-0.28,0.015,
5806,-0.285,0.03,
5807,-0.305,0.065,
5808,-0.315,0.075,
5809,-0.28,0.06,
5810,-0.22,0.01,
5811,-0.205,-0.01,
5812,-0.205,-0.015,
5813,-0.21,0.05,
5814,-0.185,0.125,
5815,-0.16,0.2,
5816,-0.13,0.2,
5817,-0.11,0.145,
5818,-0.09,0.045,
5819,-0.02,0.005,
5820,0.025,0.02,
5821,0.045,0.055,
5822,0.05,0.08,
5823,0.035,0.075,
5824,0.035,0.06,
5825,0.015,0.045,
5826,0.03,0.015,
5827,0.03,0.0,
5828,0.035,-0.045,
5829,-0.02,-0.08,
5830,-0.085,-0.11,
5831,-0.125,-0.095,
5832,-0.165,-0.065,
5833,-0.165,-0.03,
5834,-0.18,-0.02,
5835,-0.23,0.005,
5836,-0.265,0.005,
5837,-0.315,-0.005,
5838,-0.34,-0.005,
5839,-0.315,-0.035,
5840,-0.3,-0.055,
5841,-0.32,-0.055,
5842,-0.345,-0.07,
5843,-0.345,-0.085,
5844,-0.355,-0.08,
5845,-0.335,-0.045,
5846,-0.3,-0.03,
5847,-0.3,-0.02,
5848,-0.32,-0.04,
5849,-0.34,-0.065,
5850,-0.37,-0.085,
5851,-0.39,-0.07,
5852,-0.445,-0.07,
5853,-0.5,-0.085,
5854,-0.51,-0.12,
5855,-0.425,-0.12,
5856,-0.205,-0.05,
5857,0.17,0.05,
5858,0.685,0.075,
5859,1.22,0.055,
5860,1.645,0.015,
5861,1.92,0.0,
5862,2.06,0.035,
5863,2.115,0.1,N
5864,2.07,0.15,
5865,1.91,0.185,
5866,1.59,0.165,
5867,1.035,0.115,
5868,0.395,0.05,
5869,-0.245,-0.005,
5870,-0.68,-0.09,
5871,-0.63,-0.185,
5872,-0.48,-0.26,
5873,-0.405,-0.31,
5874,-0.415,-0.3,
5875,-0.425,-0.25,
5876,-0.4,-0.175,
5877,-0.4,-0.105,
5878,-0.4,-0.08,
5879,-0.43,-0.07,
5880,-0.445,-0.05,
5881,-0.445,-0.055,
5882,-0.425,-0.06,
5883,-0.43,-0.065,
5884,-0.44,-0.07,
5885,-0.45,-0.06,
5886,-0.445,-0.025,
5887,-0.445,0.025,
5888,-0.44,0.05,
5889,-0.445,0.015,
5890,-0.46,-0.065,
5891,-0.46,-0.085,
5892,-0.455,-0.09,
5893,-0.445,-0.045,
5894,-0.43,-0.03,
5895,-0.425,-0.035,
5896,-0.43,-0.04,
5897,-0.45,-0.035,
5898,-0.45,-0.01,
5899,-0.44,0.0,
5900,-0.43,0.02,
5901,-0.425,0.01,
5902,-0.425,0.0,
5903,-0.455,-0.015,
5904,-0.44,-0.01,
5905,-0.445,0.015,
5906,-0.42,0.025,
5907,-0.415,0.02,
5908,-0.415,0.005,
5909,-0.42,-0.015,
5910,-0.415,-0.015,
5911,-0.405,-0.01,
5912,-0.39,-0.02,
5913,-0.39,-0.03,
5914,-0.395,-0.04,
5915,-0.39,-0.035,
5916,-0.385,-0.03,
5917,-0.37,-0.03,
5918,-0.36,-0.015,
5919,-0.355,-0.025,
5920,-0.355,-0.04,
5921,-0.375,-0.045,
5922,-0.36,-0.035,
5923,-0.365,-0.02,
5924,-0.34,-0.01,
5925,-0.315,-0.005,
5926,-0.32,-0.015,
5927,-0.315,-0.01,
5928,-0.295,0.025,
5929,-0.285,0.045,
5930,-0.255,0.025,
5931,-0.255,-0.01,
5932,-0.27,-0.045,
5933,-0.275,-0.065,
5934,-0.255,-0.08,
5935,-0.24,-0.07,
5936,-0.21,-0.035,
5937,-0.2,-0.035,
5938,-0.185,-0.03,
5939,-0.18,-0.02,
5940,-0.17,-0.005,
5941,-0.135,0.02,
5942,-0.105,0.02,
5943,-0.105,0.015,
5944,-0.095,-0.035,
5945,-0.11,-0.05,
5946,-0.075,-0.065,
5947,-0.02,-0.04,
5948,-0.01,-0.045,
5949,0.015,-0.05,
5950,0.015,-0.06,
5951,0.02,-0.05,
5952,0.045,-0.03,
5953,0.085,-0.02,
5954,0.13,-0.01,
5955,0.135,-0.025,
5956,0.145,-0.035,
5957,0.16,-0.04,
5958,0.18,-0.025,
5959,0.205,-0.01,
5960,0.24,-0.025,
5961,0.24,-0.04,
5962,0.25,-0.04,
5963,0.24,-0.035,
5964,0.255,-0.005,
5965,0.275,0.0,
5966,0.31,0.005,
5967,0.31,0.01,
5968,0.29,0.015,
5969,0.275,0.055,
5970,0.28,0.09,
5971,0.29,0.105,
5972,0.295,0.08,
5973,0.26,0.04,
5974,0.245,0.0,
5975,0.19,-0.035,
5976,0.155,-0.045,
5977,0.115,-0.04,
5978,0.115,-0.01,
5979,0.12,0.025,
5980,0.12,0.075,
5981,0.075,0.08,
5982,0.06,0.06,
5983,0.06,0.045,
5984,0.065,0.04,
5985,0.01,0.05,
5986,-0.055,0.03,
5987,-0.125,0.01,
5988,-0.14,-0.025,
5989,-0.11,-0.045,
5990,-0.075,-0.04,
5991,-0.1,-0.025,
5992,-0.15,-0.05,
5993,-0.18,-0.06,
5994,-0.18,-0.04,
5995,-0.16,0.005,
5996,-0.16,0.035,
5997,-0.18,0.03,
5998,-0.2,0.02,
5999,-0.245,0.01,
6000,-0.25,0.025,
6001,-0.24,0.03,
6002,-0.215,-0.035,
6003,-0.225,-0.07,
6004,-0.245,-0.09,
6005,-0.27,-0.07,
6006,-0.285,-0.02,
6007,-0.285,0.015,
6008,-0.265,0.035,
6009,-0.27,0.05,
6010,-0.285,0.065,
6011,-0.28,0.095,
6012,-0.275,0.13,
6013,-0.28,0.15,
6014,-0.295,0.13,
6015,-0.29,0.15,
6016,-0.255,0.115,
6017,-0.26,0.045,
6018,-0.245,-0.04,
6019,-0.25,-0.075,
6020,-0.265,-0.1,
6021,-0.27,-0.07,
6022,-0.275,-0.04,
6023,-0.27,0.015,
6024,-0.27,0.1,
6025,-0.27,0.125,
6026,-0.265,0.08,
6027,-0.245,0.005,
6028,-0.225,-0.09,
6029,-0.235,-0.11,
6030,-0.24,-0.105,
6031,-0.215,-0.06,
6032,-0.19,-0.035,
6033,-0.2,-0.04,
6034,-0.205,-0.06,
6035,-0.22,-0.065,
6036,-0.235,-0.075,
6037,-0.22,-0.055,
6038,-0.205,-0.04,
6039,-0.2,-0.03,
6040,-0.22,-0.03,
6041,-0.225,-0.005,
6042,-0.225,-0.01,
6043,-0.205,-0.01,
6044,-0.19,-0.025,
6045,-0.19,-0.03,
6046,-0.21,-0.035,
6047,-0.23,-0.02,
6048,-0.215,0.005,
6049,-0.205,0.0,
6050,-0.195,-0.04,
6051,-0.205,-0.055,
6052,-0.205,-0.06,
6053,-0.23,-0.05,
6054,-0.225,-0.025,
6055,-0.21,-0.01,
6056,-0.215,-0.005,
6057,-0.21,-0.015,
6058,-0.235,-0.02,
6059,-0.235,-0.025,
6060,-0.25,-0.01,
6061,-0.23,-0.005,
6062,-0.24,0.01,
6063,-0.245,0.01,
6064,-0.25,0.005,
6065,-0.275,0.01,
6066,-0.27,0.015,
6067,-0.25,0.035,
6068,-0.245,0.04,
6069,-0.25,0.045,
6070,-0.285,0.02,
6071,-0.29,0.015,
6072,-0.275,0.02,
6073,-0.27,0.025,
6074,-0.26,0.01,
6075,-0.275,-0.01,
6076,-0.31,-0.03,
6077,-0.305,-0.025,
6078,-0.29,-0.015,
6079,-0.27,0.01,
6080,-0.265,0.01,
6081,-0.3,0.01,
6082,-0.33,0.0,
6083,-0.32,0.005,
6084,-0.3,0.005,
6085,-0.28,0.025,
6086,-0.29,0.05,
6087,-0.305,0.07,
6088,-0.335,0.085,
6089,-0.355,0.055,
6090,-0.345,-0.005,
6091,-0.315,-0.02,
6092,-0.295,-0.045,
6093,-0.3,-0.035,
6094,-0.325,-0.03,
6095,-0.335,-0.035,
6096,-0.345,-0.015,
6097,-0.31,0.0,
6098,-0.29,0.01,
6099,-0.3,0.0,
6100,-0.33,0.005,
6101,-0.345,0.005,
6102,-0.335,0.03,
6103,-0.32,0.035,
6104,-0.31,0.04,
6105,-0.32,0.02,
6106,-0.32,0.01,
6107,-0.33,0.01,
6108,-0.34,0.035,
6109,-0.325,0.04,
6110,-0.31,0.06,
6111,-0.325,0.035,
6112,-0.32,0.035,
6113,-0.33,0.05,
6114,-0.325,0.065,
6115,-0.305,0.075,
6116,-0.3,0.065,
6117,-0.295,0.075,
6118,-0.3,0.045,
6119,-0.315,0.055,
6120,-0.305,0.08,
6121,-0.28,0.09,
6122,-0.25,0.095,
6123,-0.23,0.105,
6124,-0.225,0.115,
6125,-0.22,0.145,
6126,-0.22,0.205,
6127,-0.18,0.235,
6128,-0.145,0.23,
6129,-0.115,0.215,
6130,-0.08,0.2,
6131,-0.03,0.195,
6132,0.0,0.19,
6133,0.035,0.205,
6134,0.04,0.185,
6135,0.035,0.16,
6136,0.03,0.14,
6137,0.04,0.12,
6138,0.06,0.105,
6139,0.045,0.085,
6140,0.005,0.05,
6141,-0.085,0.005,
6142,-0.175,-0.01,
6143,-0.2,-0.01,
6144,-0.195,0.015,
6145,-0.215,0.025,
6146,-0.23,0.025,
6147,-0.26,0.03,
6148,-0.295,0.025,
6149,-0.35,0.03,
6150,-0.37,0.015,
6151,-0.36,0.035,
6152,-0.345,0.045,
6153,-0.345,0.025,
6154,-0.355,-0.01,
6155,-0.365,-0.01,
6156,-0.355,-0.025,
6157,-0.36,0.0,
6158,-0.34,0.005,
6159,-0.34,0.005,
6160,-0.355,-0.01,
6161,-0.38,-0.015,
6162,-0.415,0.005,
6163,-0.455,0.0,
6164,-0.51,-0.03,
6165,-0.53,-0.065,
6166,-0.475,-0.085,
6167,-0.33,-0.065,
6168,-0.065,-0.025,
6169,0.385,0.0,
6170,0.915,0.005,
6171,1.415,0.01,
6172,1.755,0.03,
6173,1.965,0.075,
6174,2.055,0.135,N
6175,2.065,0.21,
6176,1.985,0.26,
6177,1.75,0.265,
6178,1.3,0.2,
6179,0.66,0.12,
6180,0.02,0.055,
6181,-0.61,-0.015,
6182,-0.7,-0.065,
6183,-0.56,-0.14,
6184,-0.455,-0.205,
6185,-0.44,-0.24,
6186,-0.44,-0.235,
6187,-0.415,-0.19,
6188,-0.385,-0.12,
6189,-0.385,-0.07,
6190,-0.405,-0.035,
6191,-0.415,-0.02,
6192,-0.44,0.02,
6193,-0.445,0.04,
6194,-0.425,0.04,
6195,-0.425,0.03,
6196,-0.44,0.015,
6197,-0.475,0.025,
6198,-0.465,0.045,
6199,-0.445,0.055,
6200,-0.4,0.07,
6201,-0.4,0.075,
6202,-0.43,0.055,
6203,-0.495,0.055,
6204,-0.51,0.065,
6205,-0.47,0.08,
6206,-0.405,0.09,
6207,-0.395,0.095,
6208,-0.42,0.065,
6209,-0.435,0.075,
6210,-0.445,0.075,
6211,-0.435,0.085,
6212,-0.43,0.075,
6213,-0.455,0.055,
6214,-0.465,0.03,
6215,-0.465,0.045,
6216,-0.445,0.075,
6217,-0.445,0.09,
6218,-0.44,0.09,
6219,-0.425,0.07,
6220,-0.42,0.05,
6221,-0.42,0.05,
6222,-0.415,0.065,
6223,-0.415,0.085,
6224,-0.41,0.085,
6225,-0.405,0.085,
6226,-0.41,0.085,
6227,-0.425,0.09,
6228,-0.41,0.09,
6229,-0.395,0.085,
6230,-0.375,0.065,
6231,-0.375,0.075,
6232,-0.37,0.06,
6233,-0.38,0.075,
6234,-0.36,0.065,
6235,-0.35,0.07,
6236,-0.325,0.07,
6237,-0.32,0.06,
6238,-0.335,0.045,
6239,-0.345,0.05,
6240,-0.345,0.075,
6241,-0.31,0.08,
6242,-0.285,0.09,
6243,-0.27,0.065,
6244,-0.28,0.065,
6245,-0.25,0.07,
6246,-0.225,0.09,
6247,-0.2,0.12,
6248,-0.165,0.145,
6249,-0.155,0.15,
6250,-0.16,0.155,
6251,-0.2,0.12,
6252,-0.205,0.065,
6253,-0.175,0.01,
6254,-0.135,-0.035,
6255,-0.11,-0.03,
6256,-0.115,-0.02,
6257,-0.13,-0.005,
6258,-0.105,0.015,
6259,-0.08,0.02,
6260,-0.035,0.025,
6261,-0.01,0.015,
6262,-0.025,0.015,
6263,-0.01,0.015,
6264,0.035,0.025,
6265,0.06,0.04,
6266,0.1,0.04,
6267,0.115,0.03,
6268,0.105,0.025,
6269,0.12,0.03,
6270,0.145,0.025,
6271,0.18,0.035,
6272,0.19,0.025,
6273,0.2,0.035,
6274,0.175,0.035,
6275,0.175,0.015,
6276,0.185,0.02,
6277,0.19,0.045,
6278,0.205,0.035,
6279,0.185,0.045,
6280,0.16,0.025,
6281,0.145,0.04,
6282,0.15,0.05,
6283,0.16,0.065,
6284,0.14,0.08,
6285,0.115,0.085,
6286,0.075,0.07,
6287,0.035,0.08,
6288,0.035,0.08,
6289,0.025,0.085,
6290,0.0,0.07,
6291,-0.025,0.06,
6292,-0.035,0.05,
6293,-0.065,0.07,
6294,-0.08,0.075,
6295,-0.09,0.095,
6296,-0.095,0.095,
6297,-0.115,0.09,
6298,-0.145,0.085,
6299,-0.175,0.095,
6300,-0.19,0.135,
6301,-0.2,0.16,
6302,-0.235,0.15,
6303,-0.255,0.125,
6304,-0.265,0.09,
6305,-0.27,0.07,
6306,-0.265,0.075,
6307,-0.285,0.105,
6308,-0.27,0.08,
6309,-0.31,0.065,
6310,-0.335,0.035,
6311,-0.345,0.03,
6312,-0.33,0.05,
6313,-0.305,0.06,
6314,-0.305,0.05,
6315,-0.305,0.06,
6316,-0.295,0.05,
6317,-0.305,0.05,
6318,-0.32,0.055,
6319,-0.315,0.06,
6320,-0.315,0.08,
6321,-0.31,0.06,
6322,-0.315,0.045,
6323,-0.355,0.055,
6324,-0.35,0.07,
6325,-0.335,0.09,
6326,-0.31,0.09,
6327,-0.3,0.07,
6328,-0.31,0.055,
6329,-0.34,0.06,
6330,-0.325,0.07,
6331,-0.32,0.07,
6332,-0.305,0.075,
6333,-0.31,0.07,
6334,-0.315,0.065,
6335,-0.315,0.09,
6336,-0.325,0.125,
6337,-0.305,0.15,
6338,-0.285,0.135,
6339,-0.29,0.1,
6340,-0.295,0.085,
6341,-0.3,0.095,
6342,-0.305,0.135,
6343,-0.28,0.19,
6344,-0.245,0.17,
6345,-0.275,0.115,
6346,-0.32,0.065,
6347,-0.32,0.025,
6348,-0.29,0.02,
6349,-0.275,0.045,
6350,-0.27,0.04,
6351,-0.285,0.04,
6352,-0.29,0.025,
6353,-0.29,0.02,
6354,-0.3,0.03,
6355,-0.285,0.07,
6356,-0.27,0.06,
6357,-0.27,0.06,
6358,-0.275,0.05,
6359,-0.31,0.04,
6360,-0.295,0.07,
6361,-0.29,0.085,
6362,-0.29,0.12,
6363,-0.295,0.145,
6364,-0.305,0.135,
6365,-0.33,0.125,
6366,-0.355,0.085,
6367,-0.35,0.05,
6368,-0.315,0.045,
6369,-0.31,0.035,
6370,-0.31,0.06,
6371,-0.31,0.065,
6372,-0.305,0.065,
6373,-0.31,0.08,
6374,-0.3,0.065,
6375,-0.31,0.055,
6376,-0.335,0.05,
6377,-0.37,0.06,
6378,-0.37,0.065,
6379,-0.34,0.08,
6380,-0.35,0.085,
6381,-0.365,0.09,
6382,-0.365,0.085,
6383,-0.375,0.12,
6384,-0.38,0.165,
6385,-0.35,0.18,
6386,-0.33,0.145,
6387,-0.335,0.07,
6388,-0.35,0.045,
6389,-0.365,0.03,
6390,-0.355,0.045,
6391,-0.325,0.035,
6392,-0.335,0.025,
6393,-0.345,0.035,
6394,-0.36,0.04,
6395,-0.365,0.04,
6396,-0.355,0.03,
6397,-0.33,0.03,
6398,-0.345,0.01,
6399,-0.36,0.005,
6400,-0.355,0.01,
6401,-0.35,0.025,
6402,-0.335,0.035,
6403,-0.335,0.05,
6404,-0.32,0.05,
6405,-0.34,0.045,
6406,-0.385,0.045,
6407,-0.41,0.04,
6408,-0.395,0.04,
6409,-0.37,0.045,
6410,-0.35,0.06,
6411,-0.33,0.055,
6412,-0.35,0.065,
6413,-0.375,0.055,
6414,-0.365,0.07,
6415,-0.355,0.07,
6416,-0.33,0.08,
6417,-0.31,0.08,
6418,-0.305,0.07,
6419,-0.31,0.075,
6420,-0.3,0.105,
6421,-0.28,0.145,
6422,-0.22,0.165,
6423,-0.19,0.18,
6424,-0.195,0.18,
6425,-0.21,0.175,
6426,-0.235,0.18,
6427,-0.2,0.18,
6428,-0.115,0.18,
6429,-0.055,0.175,
6430,-0.045,0.17,
6431,-0.075,0.19,
6432,-0.07,0.205,
6433,-0.06,0.19,
6434,-0.035,0.19,
6435,-0.055,0.15,
6436,-0.08,0.12,
6437,-0.125,0.09,
6438,-0.15,0.065,
6439,-0.17,0.07,
6440,-0.19,0.065,
6441,-0.23,0.06,
6442,-0.25,0.06,
6443,-0.28,0.07,
6444,-0.3,0.075,
6445,-0.33,0.08,
6446,-0.325,0.075,
6447,-0.335,0.06,
6448,-0.355,0.045,
6449,-0.385,0.04,
6450,-0.38,0.05,
6451,-0.36,0.05,
6452,-0.345,0.03,
6453,-0.355,0.03,
6454,-0.395,0.025,
6455,-0.435,0.035,
6456,-0.42,0.035,
6457,-0.385,0.065,
6458,-0.365,0.06,
6459,-0.385,0.03,
6460,-0.4,-0.01,
6461,-0.435,-0.015,
6462,-0.43,-0.025,
6463,-0.4,-0.035,
6464,-0.32,-0.025,
6465,-0.19,0.0,
6466,0.055,0.025,
6467,0.425,0.05,
6468,0.9,0.07,
6469,1.315,0.095,
6470,1.65,0.115,
6471,1.85,0.125,
6472,1.925,0.115,N
6473,1.9,0.115,
6474,1.8,0.155,
6475,1.56,0.155,
6476,1.115,0.1,
6477,0.5,0.01,
6478,-0.14,-0.055,
6479,-0.665,-0.09,
6480,-0.78,-0.095,
6481,-0.69,-0.115,
6482,-0.565,-0.17,
6483,-0.525,-0.205,
6484,-0.56,-0.225,
6485,-0.565,-0.225,
6486,-0.54,-0.17,
6487,-0.5,-0.115,
6488,-0.46,-0.095,
6489,-0.435,-0.07,
6490,-0.455,-0.075,
6491,-0.475,-0.07,
6492,-0.505,-0.04,
6493,-0.505,-0.005,
6494,-0.485,-0.01,
6495,-0.475,-0.01,
6496,-0.485,-0.01,
6497,-0.495,-0.025,
6498,-0.495,-0.01,
6499,-0.47,0.01,
6500,-0.445,0.0,
6501,-0.435,0.005,
6502,-0.43,-0.005,
6503,-0.435,-0.005,
6504,-0.45,0.01,
6505,-0.465,0.025,
6506,-0.475,0.03,
6507,-0.465,0.03,
6508,-0.445,0.01,
6509,-0.445,-0.01,
6510,-0.46,-0.01,
6511,-0.46,0.0,
6512,-0.425,0.0,
6513,-0.425,-0.005,
6514,-0.415,-0.015,
6515,-0.43,-0.025,
6516,-0.43,-0.005,
6517,-0.44,0.005,
6518,-0.445,0.025,
6519,-0.425,0.01,
6520,-0.415,0.015,
6521,-0.42,0.0,
6522,-0.45,0.0,
6523,-0.44,0.025,
6524,-0.415,0.04,
6525,-0.37,0.05,
6526,-0.37,0.05,
6527,-0.39,0.045,
6528,-0.39,0.005,
6529,-0.365,-0.04,
6530,-0.35,-0.055,
6531,-0.35,-0.06,
6532,-0.355,-0.05,
6533,-0.355,-0.04,
6534,-0.345,-0.05,
6535,-0.33,-0.04,
6536,-0.315,-0.035,
6537,-0.32,-0.035,
6538,-0.335,-0.02,
6539,-0.34,-0.025,
6540,-0.315,-0.005,
6541,-0.28,0.0,
6542,-0.24,-0.015,
6543,-0.235,-0.02,
6544,-0.25,-0.015,
6545,-0.25,-0.01,
6546,-0.22,-0.01,
6547,-0.215,-0.015,
6548,-0.21,-0.005,
6549,-0.205,0.0,
6550,-0.2,-0.005,
6551,-0.195,0.005,
6552,-0.17,0.01,
6553,-0.145,0.03,
6554,-0.105,0.005,
6555,-0.13,-0.01,
6556,-0.13,-0.025,
6557,-0.125,-0.02,
6558,-0.085,0.005,
6559,-0.06,0.02,
6560,-0.045,0.035,
6561,-0.015,0.045,
6562,0.005,0.055,
6563,0.04,0.06,
6564,0.09,0.06,
6565,0.145,0.055,
6566,0.16,0.02,
6567,0.17,0.005,
6568,0.135,0.02,
6569,0.15,0.02,
6570,0.17,0.025,
6571,0.175,-0.01,
6572,0.185,-0.06,
6573,0.21,-0.09,
6574,0.22,-0.105,
6575,0.21,-0.075,
6576,0.23,-0.07,
6577,0.245,-0.05,
6578,0.265,-0.05,
6579,0.265,-0.055,
6580,0.25,-0.03,
6581,0.215,-0.01,
6582,0.22,0.005,
6583,0.225,0.04,
6584,0.21,0.06,
6585,0.19,0.075,
6586,0.16,0.09,
6587,0.125,0.075,
6588,0.11,0.03,
6589,0.11,0.005,
6590,0.09,-0.02,
6591,0.07,0.0,
6592,0.02,0.005,
6593,-0.02,0.02,
6594,-0.03,0.065,
6595,-0.04,0.115,
6596,-0.06,0.105,
6597,-0.065,0.04,
6598,-0.075,-0.03,
6599,-0.11,-0.06,
6600,-0.12,-0.04,
6601,-0.125,0.01,
6602,-0.13,0.015,
6603,-0.15,-0.005,
6604,-0.175,-0.03,
6605,-0.17,-0.045,
6606,-0.17,-0.045,
6607,-0.185,-0.03,
6608,-0.185,-0.025,
6609,-0.2,-0.03,
6610,-0.235,-0.05,
6611,-0.26,-0.05,
6612,-0.25,-0.025,
6613,-0.26,0.0,
6614,-0.235,0.025,
6615,-0.23,0.05,
6616,-0.255,0.06,
6617,-0.28,0.08,
6618,-0.28,0.07,
6619,-0.26,0.04,
6620,-0.24,0.02,
6621,-0.22,0.0,
6622,-0.235,0.0,
6623,-0.27,0.0,
6624,-0.27,0.04,
6625,-0.255,0.07,
6626,-0.235,0.075,
6627,-0.24,0.045,
6628,-0.285,-0.015,
6629,-0.27,-0.025,
6630,-0.265,0.005,
6631,-0.23,0.035,
6632,-0.195,0.035,
6633,-0.2,0.005,
6634,-0.21,-0.015,
6635,-0.23,-0.02,
6636,-0.245,0.0,
6637,-0.24,0.045,
6638,-0.205,0.075,
6639,-0.205,0.08,
6640,-0.205,0.07,
6641,-0.205,0.08,
6642,-0.205,0.06,
6643,-0.18,0.035,
6644,-0.16,-0.015,
6645,-0.165,-0.04,
6646,-0.185,-0.015,
6647,-0.2,0.025,
6648,-0.19,0.045,
6649,-0.155,0.055,
6650,-0.12,0.05,
6651,-0.135,0.03,
6652,-0.185,0.015,
6653,-0.21,0.025,
6654,-0.195,0.035,
6655,-0.18,0.025,
6656,-0.17,0.025,
6657,-0.17,0.065,
6658,-0.185,0.11,
6659,-0.2,0.155,
6660,-0.205,0.19,
6661,-0.19,0.18,
6662,-0.17,0.115,
6663,-0.175,0.02,
6664,-0.195,-0.08,
6665,-0.21,-0.13,
6666,-0.195,-0.135,
6667,-0.18,-0.12,
6668,-0.19,-0.12,
6669,-0.2,-0.13,
6670,-0.205,-0.115,
6671,-0.225,-0.12,
6672,-0.215,-0.1,
6673,-0.21,-0.09,
6674,-0.205,-0.095,
6675,-0.225,-0.1,
6676,-0.255,-0.105,
6677,-0.25,-0.11,
6678,-0.24,-0.07,
6679,-0.225,-0.045,
6680,-0.22,-0.055,
6681,-0.24,-0.08,
6682,-0.25,-0.09,
6683,-0.26,-0.07,
6684,-0.27,-0.045,
6685,-0.275,-0.035,
6686,-0.255,-0.045,
6687,-0.265,-0.06,
6688,-0.265,-0.075,
6689,-0.29,-0.065,
6690,-0.27,-0.035,
6691,-0.27,-0.015,
6692,-0.23,-0.02,
6693,-0.235,-0.045,
6694,-0.25,-0.065,
6695,-0.27,-0.065,
6696,-0.255,-0.055,
6697,-0.23,-0.015,
6698,-0.215,-0.005,
6699,-0.225,0.015,
6700,-0.23,0.01,
6701,-0.23,0.03,
6702,-0.195,0.03,
6703,-0.17,0.04,
6704,-0.16,0.04,
6705,-0.16,0.03,
6706,-0.165,0.005,
6707,-0.18,0.005,
6708,-0.15,0.04,
6709,-0.125,0.06,
6710,-0.07,0.05,
6711,-0.035,0.045,
6712,0.0,0.055,
6713,-0.02,0.09,
6714,-0.035,0.15,
6715,-0.02,0.175,
6716,0.03,0.155,
6717,0.06,0.08,
6718,0.07,0.015,
6719,0.05,-0.01,
6720,0.035,-0.01,
6721,-0.005,-0.02,
6722,-0.015,-0.055,
6723,-0.05,-0.115,
6724,-0.095,-0.155,
6725,-0.15,-0.135,
6726,-0.165,-0.11,
6727,-0.175,-0.13,
6728,-0.21,-0.19,
6729,-0.235,-0.235,
6730,-0.265,-0.235,
6731,-0.285,-0.215,
6732,-0.295,-0.185,
6733,-0.295,-0.16,
6734,-0.275,-0.155,
6735,-0.29,-0.155,
6736,-0.305,-0.16,
6737,-0.3,-0.145,
6738,-0.3,-0.13,
6739,-0.275,-0.11,
6740,-0.25,-0.09,
6741,-0.25,-0.085,
