,MLII,V1,symbol
0,-2.045,-1.245,
1,-2.045,-1.245,
2,-2.045,-1.245,
3,-2.045,-1.245,
4,-2.045,-1.245,
5,-2.09,-1.245,
6,-2.14,-1.245,
7,-2.205,-1.345,
8,-2.27,-1.445,
9,-2.34,-1.575,
10,-2.405,-1.72,
11,-2.465,-1.83,
12,-2.545,-1.83,
13,-2.58,-1.715,
14,-2.555,-1.515,
15,-2.435,-1.31,
16,-2.22,-1.095,
17,-1.94,-0.91,
18,-1.64,-0.78,
19,-1.425,-0.69,
20,-1.215,-0.605,
21,-1.05,-0.48,
22,-0.935,-0.355,
23,-0.84,-0.21,
24,-0.78,-0.095,
25,-0.72,-0.015,
26,-0.69,0.045,
27,-0.64,0.105,
28,-0.595,0.15,
29,-0.57,0.215,
30,-0.54,0.29,
31,-0.5,0.34,
32,-0.48,0.38,
33,-0.45,0.415,
34,-0.395,0.44,
35,-0.325,0.48,
36,-0.25,0.515,
37,-0.2,0.55,
38,-0.165,0.57,
39,-0.14,0.6,
40,-0.115,0.64,
41,-0.08,0.695,
42,-0.035,0.715,
43,0.005,0.75,
44,0.045,0.745,
45,0.09,0.745,
46,0.14,0.745,
47,0.18,0.76,+
48,0.235,0.75,
49,0.27,0.77,
50,0.3,0.77,
51,0.295,0.77,
52,0.3,0.775,
53,0.3,0.795,
54,0.32,0.815,
55,0.34,0.82,
56,0.345,0.82,
57,0.355,0.82,
58,0.375,0.835,
59,0.4,0.85,
60,0.43,0.87,
61,0.46,0.855,
62,0.475,0.865,
63,0.48,0.865,
64,0.495,0.865,
65,0.525,0.9,
66,0.56,0.915,
67,0.6,0.94,
68,0.635,0.945,
69,0.65,0.935,
70,0.68,0.96,
71,0.71,0.985,
72,0.755,0.995,
73,0.785,0.995,
74,0.81,1.01,
75,0.82,1.015,
76,0.84,1.035,
77,0.87,1.055,
78,0.92,1.07,
79,0.965,1.075,
80,0.98,1.09,
81,1.0,1.095,
82,1.03,1.1,
83,1.07,1.13,
84,1.095,1.145,
85,1.105,1.135,
86,1.1,1.14,
87,1.1,1.135,
88,1.115,1.135,
89,1.13,1.15,
90,1.145,1.16,
91,1.155,1.15,
92,1.15,1.13,
93,1.14,1.13,
94,1.13,1.11,
95,1.125,1.115,/
96,1.13,1.105,
97,1.11,1.095,
98,1.085,1.08,
99,1.045,1.05,
100,1.015,1.03,
101,0.985,1.02,
102,0.955,1.01,
103,0.92,0.98,
104,0.88,0.94,
105,0.84,0.915,
106,0.785,0.895,
107,0.745,0.885,
108,0.72,0.865,
109,0.685,0.815,
110,0.635,0.79,
111,0.575,0.745,
112,0.515,0.715,
113,0.47,0.71,
114,0.425,0.695,
115,0.365,0.67,
116,0.305,0.65,
117,0.25,0.625,
118,0.19,0.59,
119,0.16,0.595,
120,0.14,0.58,
121,0.095,0.56,
122,0.05,0.54,
123,0.005,0.52,
124,-0.05,0.52,
125,-0.085,0.515,
126,-0.11,0.525,
127,-0.13,0.51,
128,-0.15,0.505,
129,-0.19,0.485,
130,-0.225,0.475,
131,-0.235,0.475,
132,-0.23,0.495,
133,-0.25,0.49,
134,-0.26,0.47,
135,-0.28,0.46,
136,-0.315,0.47,
137,-0.305,0.475,
138,-0.31,0.47,
139,-0.32,0.465,
140,-0.345,0.45,
141,-0.365,0.44,
142,-0.375,0.44,
143,-0.37,0.46,
144,-0.36,0.465,
145,-0.365,0.46,
146,-0.38,0.455,
147,-0.375,0.445,
148,-0.39,0.445,
149,-0.39,0.445,
150,-0.375,0.46,
151,-0.385,0.455,
152,-0.39,0.44,
153,-0.41,0.44,
154,-0.395,0.43,
155,-0.4,0.445,
156,-0.38,0.45,
157,-0.38,0.44,
158,-0.375,0.445,
159,-0.39,0.435,
160,-0.395,0.43,
161,-0.405,0.44,
162,-0.38,0.455,
163,-0.375,0.445,
164,-0.38,0.445,
165,-0.39,0.43,
166,-0.415,0.43,
167,-0.41,0.44,
168,-0.385,0.44,
169,-0.39,0.44,
170,-0.395,0.43,
171,-0.39,0.405,
172,-0.385,0.405,
173,-0.37,0.425,
174,-0.36,0.43,
175,-0.35,0.425,
176,-0.35,0.41,
177,-0.345,0.41,
178,-0.35,0.41,
179,-0.33,0.41,
180,-0.325,0.415,
181,-0.33,0.395,
182,-0.335,0.39,
183,-0.34,0.375,
184,-0.35,0.38,
185,-0.345,0.38,
186,-0.35,0.39,
187,-0.335,0.395,
188,-0.34,0.385,
189,-0.335,0.365,
190,-0.355,0.35,
191,-0.335,0.365,
192,-0.315,0.36,
193,-0.32,0.365,
194,-0.335,0.36,
195,-0.365,0.355,
196,-0.375,0.335,
197,-0.36,0.34,
198,-0.34,0.345,
199,-0.325,0.35,
200,-0.335,0.335,
201,-0.34,0.32,
202,-0.36,0.32,
203,-0.38,0.33,
204,-0.37,0.34,
205,-0.36,0.33,
206,-0.355,0.33,
207,-0.375,0.31,
208,-0.375,0.31,
209,-0.36,0.32,
210,-0.355,0.32,
211,-0.35,0.33,
212,-0.35,0.31,
213,-0.365,0.3,
214,-0.365,0.3,
215,-0.355,0.305,
216,-0.345,0.305,
217,-0.355,0.305,
218,-0.35,0.3,
219,-0.37,0.29,
220,-0.365,0.295,
221,-0.35,0.305,
222,-0.35,0.31,
223,-0.35,0.295,
224,-0.365,0.29,
225,-0.36,0.28,
226,-0.365,0.285,
227,-0.355,0.285,
228,-0.345,0.31,
229,-0.345,0.305,
230,-0.345,0.28,
231,-0.36,0.28,
232,-0.36,0.275,
233,-0.335,0.27,
234,-0.34,0.28,
235,-0.34,0.28,
236,-0.345,0.27,
237,-0.36,0.255,
238,-0.37,0.255,
239,-0.355,0.275,
240,-0.34,0.28,
241,-0.34,0.265,
242,-0.35,0.255,
243,-0.365,0.245,
244,-0.365,0.255,
245,-0.355,0.265,
246,-0.34,0.275,
247,-0.325,0.255,
248,-0.325,0.24,
249,-0.335,0.235,
250,-0.36,0.245,
251,-0.335,0.265,
252,-0.31,0.29,
253,-0.3,0.33,
254,-0.3,0.335,
255,-0.285,0.325,
256,-0.28,0.34,
257,-0.245,0.345,
258,-0.215,0.335,
259,-0.19,0.295,
260,-0.16,0.15,
261,-0.125,-0.165,
262,-0.055,-0.545,
263,0.085,-0.61,
264,0.325,-0.315,
265,0.805,-0.05,
266,1.4,0.01,
267,1.8,-0.04,
268,1.89,-0.05,
269,1.815,-0.03,
270,1.73,-0.025,
271,1.665,-0.05,
272,1.62,-0.08,/
273,1.54,-0.12,
274,1.44,-0.15,
275,1.33,-0.165,
276,1.26,-0.185,
277,1.165,-0.215,
278,1.1,-0.245,
279,1.005,-0.28,
280,0.895,-0.295,
281,0.79,-0.3,
282,0.675,-0.315,
283,0.53,-0.35,
284,0.39,-0.405,
285,0.21,-0.45,
286,0.02,-0.53,
287,-0.175,-0.585,
288,-0.39,-0.63,
289,-0.61,-0.68,
290,-0.865,-0.715,
291,-1.105,-0.755,
292,-1.31,-0.825,
293,-1.5,-0.925,
294,-1.65,-1.05,
295,-1.805,-1.24,
296,-1.945,-1.4,
297,-2.045,-1.495,
298,-2.12,-1.565,
299,-2.17,-1.655,
300,-2.195,-1.745,
301,-2.26,-1.845,
302,-2.345,-1.95,
303,-2.43,-2.03,
304,-2.5,-2.135,
305,-2.53,-2.245,
306,-2.565,-2.335,
307,-2.63,-2.335,
308,-2.675,-2.225,
309,-2.69,-2.055,
310,-2.6,-1.855,
311,-2.395,-1.66,
312,-2.165,-1.46,
313,-1.94,-1.29,
314,-1.75,-1.115,
315,-1.58,-1.01,
316,-1.455,-0.865,
317,-1.34,-0.725,
318,-1.26,-0.595,
319,-1.185,-0.49,
320,-1.135,-0.41,
321,-1.09,-0.35,
322,-1.065,-0.26,
323,-1.01,-0.17,
324,-0.98,-0.105,
325,-0.975,-0.07,
326,-0.97,-0.03,
327,-0.965,-0.005,
328,-0.95,0.035,
329,-0.875,0.085,
330,-0.81,0.13,
331,-0.75,0.16,
332,-0.69,0.185,
333,-0.65,0.21,
334,-0.605,0.255,
335,-0.555,0.3,
336,-0.465,0.315,
337,-0.405,0.345,
338,-0.34,0.355,
339,-0.275,0.36,
340,-0.215,0.375,
341,-0.17,0.4,
342,-0.095,0.41,
343,-0.035,0.415,
344,0.0,0.415,
345,0.045,0.425,
346,0.05,0.43,
347,0.05,0.45,
348,0.075,0.46,
349,0.085,0.46,
350,0.105,0.455,
351,0.105,0.465,
352,0.12,0.47,
353,0.145,0.5,
354,0.185,0.51,
355,0.215,0.52,
356,0.235,0.53,
357,0.255,0.51,
358,0.265,0.535,
359,0.3,0.555,
360,0.335,0.565,
361,0.36,0.585,
362,0.365,0.59,
363,0.37,0.595,
364,0.4,0.605,
365,0.435,0.615,
366,0.49,0.64,
367,0.525,0.65,
368,0.56,0.645,
369,0.585,0.655,
370,0.6,0.665,
371,0.635,0.7,
372,0.685,0.705,
373,0.72,0.735,
374,0.75,0.72,
375,0.775,0.73,
376,0.81,0.75,
377,0.845,0.755,
378,0.88,0.77,
379,0.91,0.775,
380,0.94,0.755,
381,0.96,0.755,
382,0.95,0.77,
383,0.97,0.79,
384,0.995,0.815,
385,1.015,0.805,
386,1.01,0.79,
387,1.01,0.785,
388,1.01,0.795,
389,1.015,0.8,
390,1.035,0.795,
391,1.035,0.785,
392,1.01,0.765,
393,0.99,0.755,
394,0.965,0.725,
395,0.95,0.73,
396,0.955,0.71,
397,0.925,0.695,
398,0.875,0.655,
399,0.865,0.63,
400,0.83,0.61,
401,0.8,0.605,
402,0.79,0.575,
403,0.75,0.54,
404,0.72,0.51,
405,0.67,0.485,
406,0.62,0.445,
407,0.585,0.44,
408,0.54,0.405,
409,0.495,0.37,
410,0.45,0.32,
411,0.385,0.285,
412,0.32,0.275,
413,0.29,0.265,
414,0.25,0.245,
415,0.225,0.225,
416,0.175,0.19,
417,0.12,0.165,
418,0.065,0.15,
419,0.04,0.14,
420,0.01,0.16,
421,-0.02,0.155,
422,-0.055,0.125,
423,-0.09,0.115,
424,-0.135,0.1,
425,-0.15,0.105,
426,-0.165,0.11,
427,-0.185,0.1,
428,-0.21,0.085,
429,-0.22,0.065,
430,-0.24,0.065,
431,-0.26,0.075,
432,-0.26,0.085,
433,-0.28,0.08,
434,-0.295,0.045,
435,-0.31,0.04,
436,-0.33,0.06,
437,-0.32,0.075,
438,-0.33,0.075,
439,-0.32,0.07,
440,-0.335,0.06,
441,-0.345,0.055,
442,-0.35,0.06,
443,-0.35,0.045,
444,-0.335,0.055,
445,-0.345,0.065,
446,-0.36,0.07,
447,-0.375,0.065,
448,-0.39,0.06,
449,-0.39,0.065,
450,-0.37,0.085,
451,-0.37,0.105,
452,-0.385,0.09,
453,-0.395,0.075,
454,-0.39,0.07,
455,-0.385,0.075,
456,-0.375,0.09,
457,-0.365,0.085,
458,-0.37,0.075,
459,-0.385,0.06,
460,-0.395,0.065,
461,-0.4,0.095,
462,-0.385,0.115,
463,-0.365,0.105,
464,-0.37,0.09,
465,-0.39,0.07,
466,-0.4,0.075,
467,-0.385,0.095,
468,-0.345,0.095,
469,-0.32,0.095,
470,-0.31,0.085,
471,-0.335,0.07,
472,-0.345,0.075,
473,-0.355,0.08,
474,-0.345,0.085,
475,-0.33,0.085,
476,-0.325,0.075,
477,-0.34,0.055,
478,-0.345,0.055,
479,-0.33,0.065,
480,-0.325,0.065,
481,-0.325,0.07,
482,-0.345,0.05,
483,-0.355,0.04,
484,-0.355,0.045,
485,-0.35,0.035,
486,-0.345,0.035,
487,-0.34,0.04,
488,-0.36,0.045,
489,-0.355,0.045,
490,-0.36,0.03,
491,-0.35,0.035,
492,-0.35,0.045,
493,-0.35,0.03,
494,-0.375,0.025,
495,-0.375,0.015,
496,-0.385,0.01,
497,-0.38,0.02,
498,-0.365,0.04,
499,-0.35,0.05,
500,-0.36,0.055,
501,-0.38,0.055,
502,-0.375,0.075,
503,-0.345,0.11,
504,-0.325,0.145,
505,-0.305,0.185,
506,-0.295,0.175,
507,-0.295,0.17,
508,-0.285,0.175,
509,-0.255,0.21,
510,-0.21,0.23,
511,-0.17,0.24,
512,-0.13,0.22,
513,-0.12,0.2,
514,-0.115,0.185,
515,-0.095,0.165,
516,-0.075,0.105,
517,-0.06,0.06,
518,-0.025,0.04,
519,-0.015,0.03,
520,-0.015,0.03,
521,-0.02,0.015,
522,-0.03,0.005,
523,-0.05,-0.02,
524,-0.06,-0.05,
525,-0.08,-0.065,
526,-0.1,-0.065,
527,-0.08,-0.025,
528,-0.065,-0.02,
529,-0.075,-0.03,
530,-0.09,-0.05,
531,-0.11,-0.065,
532,-0.115,-0.075,
533,-0.11,-0.07,
534,-0.12,-0.055,
535,-0.15,-0.055,
536,-0.185,-0.065,
537,-0.215,-0.07,
538,-0.25,-0.065,
539,-0.265,-0.055,
540,-0.27,-0.04,
541,-0.295,-0.04,
542,-0.325,-0.06,
543,-0.345,-0.075,
544,-0.37,-0.07,
545,-0.375,-0.07,
546,-0.38,-0.07,
547,-0.385,-0.09,
548,-0.39,-0.11,
549,-0.41,-0.12,
550,-0.435,-0.13,
551,-0.425,-0.105,
552,-0.445,-0.105,
553,-0.44,-0.11,
554,-0.445,-0.13,
555,-0.44,-0.18,
556,-0.425,-0.215,
557,-0.4,-0.3,
558,-0.37,-0.54,
559,-0.33,-0.955,
560,-0.255,-1.205,
561,-0.075,-1.045,
562,0.335,-0.73,
563,0.95,-0.525,
564,1.515,-0.485,
565,1.74,-0.47,
566,1.64,-0.46,
567,1.47,-0.45,
568,1.365,-0.435,
569,1.32,-0.435,/
570,1.295,-0.435,
571,1.21,-0.455,
572,1.135,-0.48,
573,1.035,-0.505,
574,0.93,-0.515,
575,0.875,-0.515,
576,0.8,-0.54,
577,0.72,-0.56,
578,0.625,-0.595,
579,0.5,-0.63,
580,0.385,-0.645,
581,0.29,-0.66,
582,0.17,-0.705,
583,0.055,-0.75,
584,-0.095,-0.83,
585,-0.25,-0.93,
586,-0.395,-1.0,
587,-0.52,-1.04,
588,-0.65,-1.085,
589,-0.795,-1.125,
590,-0.97,-1.21,
591,-1.155,-1.34,
592,-1.35,-1.47,
593,-1.49,-1.63,
594,-1.575,-1.74,
595,-1.62,-1.85,
596,-1.66,-1.935,
597,-1.72,-2.005,
598,-1.755,-2.085,
599,-1.805,-2.175,
600,-1.905,-2.26,
601,-2.01,-2.345,
602,-2.125,-2.46,
603,-2.215,-2.545,
604,-2.29,-2.63,
605,-2.375,-2.645,
606,-2.425,-2.545,
607,-2.475,-2.385,
608,-2.445,-2.235,
609,-2.35,-2.08,
610,-2.205,-1.905,
611,-2.03,-1.735,
612,-1.85,-1.57,
613,-1.675,-1.41,
614,-1.505,-1.265,
615,-1.4,-1.125,
616,-1.345,-0.98,
617,-1.28,-0.86,
618,-1.23,-0.755,
619,-1.18,-0.66,
620,-1.14,-0.57,
621,-1.1,-0.49,
622,-1.075,-0.4,
623,-1.045,-0.335,
624,-1.03,-0.275,
625,-1.01,-0.215,
626,-0.985,-0.165,
627,-0.94,-0.135,
628,-0.885,-0.08,
629,-0.81,-0.04,
630,-0.745,0.005,
631,-0.66,0.055,
632,-0.615,0.07,
633,-0.585,0.09,
634,-0.525,0.12,
635,-0.44,0.15,
636,-0.365,0.185,
637,-0.275,0.195,
638,-0.215,0.21,
639,-0.15,0.21,
640,-0.105,0.225,
641,-0.045,0.23,
642,0.015,0.255,
643,0.05,0.26,
644,0.065,0.26,
645,0.085,0.26,
646,0.1,0.265,
647,0.125,0.28,
648,0.15,0.3,
649,0.17,0.3,
650,0.175,0.31,
651,0.185,0.295,
652,0.205,0.325,
653,0.22,0.335,
654,0.255,0.34,
655,0.27,0.355,
656,0.285,0.35,
657,0.305,0.34,
658,0.31,0.355,
659,0.34,0.37,
660,0.365,0.39,
661,0.385,0.415,
662,0.415,0.415,
663,0.435,0.41,
664,0.445,0.43,
665,0.485,0.45,
666,0.515,0.46,
667,0.555,0.48,
668,0.565,0.485,
669,0.595,0.47,
670,0.61,0.49,
671,0.645,0.505,
672,0.675,0.52,
673,0.71,0.54,
674,0.73,0.53,
675,0.755,0.545,
676,0.775,0.575,
677,0.81,0.585,
678,0.83,0.605,
679,0.85,0.61,
680,0.87,0.61,
681,0.88,0.615,
682,0.905,0.625,
683,0.915,0.65,
684,0.935,0.65,
685,0.95,0.65,
686,0.94,0.645,
687,0.95,0.635,
688,0.94,0.63,
689,0.955,0.64,
690,0.96,0.635,
691,0.95,0.665,
692,0.945,0.645,
693,0.93,0.625,
694,0.925,0.615,
695,0.92,0.615,
696,0.91,0.595,
697,0.88,0.59,
698,0.865,0.56,
699,0.83,0.535,
700,0.805,0.52,
701,0.785,0.5,
702,0.77,0.485,
703,0.745,0.455,
704,0.715,0.435,
705,0.68,0.4,
706,0.65,0.375,
707,0.62,0.36,
708,0.595,0.34,
709,0.555,0.29,
710,0.525,0.255,
711,0.485,0.205,
712,0.42,0.19,
713,0.395,0.17,
714,0.365,0.17,
715,0.33,0.155,
716,0.29,0.115,
717,0.235,0.07,
718,0.195,0.05,
719,0.17,0.045,
720,0.155,0.045,
721,0.1,0.025,
722,0.06,-0.005,
723,0.025,-0.015,
724,-0.025,-0.015,
725,-0.04,-0.02,
726,-0.075,-0.03,
727,-0.1,-0.045,
728,-0.135,-0.06,
729,-0.165,-0.07,
730,-0.21,-0.065,
731,-0.21,-0.06,
732,-0.21,-0.065,
733,-0.23,-0.065,
734,-0.25,-0.085,
735,-0.265,-0.09,
736,-0.295,-0.09,
737,-0.295,-0.085,
738,-0.29,-0.08,
739,-0.305,-0.085,
740,-0.31,-0.1,
741,-0.315,-0.095,
742,-0.325,-0.095,
743,-0.34,-0.085,
744,-0.345,-0.065,
745,-0.35,-0.075,
746,-0.355,-0.085,
747,-0.355,-0.1,
748,-0.365,-0.085,
749,-0.36,-0.09,
750,-0.345,-0.08,
751,-0.36,-0.085,
752,-0.37,-0.09,
753,-0.375,-0.095,
754,-0.385,-0.09,
755,-0.375,-0.08,
756,-0.365,-0.07,
757,-0.38,-0.055,
758,-0.38,-0.065,
759,-0.375,-0.045,
760,-0.375,-0.01,
761,-0.37,0.03,
762,-0.355,0.055,
763,-0.34,0.065,
764,-0.33,0.065,
765,-0.32,0.06,
766,-0.31,0.09,
767,-0.27,0.11,
768,-0.23,0.13,
769,-0.18,0.145,
770,-0.15,0.135,
771,-0.12,0.145,
772,-0.11,0.15,
773,-0.085,0.135,
774,-0.06,0.125,
775,-0.05,0.065,
776,-0.035,0.02,
777,-0.025,-0.005,
778,-0.015,-0.02,
779,0.005,-0.025,
780,0.005,-0.035,
781,-0.025,-0.06,
782,-0.055,-0.09,
783,-0.085,-0.095,
784,-0.1,-0.1,
785,-0.1,-0.11,
786,-0.095,-0.11,
787,-0.08,-0.125,
788,-0.075,-0.135,
789,-0.085,-0.14,
790,-0.1,-0.14,
791,-0.075,-0.135,
792,-0.08,-0.14,
793,-0.095,-0.145,
794,-0.11,-0.145,
795,-0.13,-0.17,
796,-0.155,-0.175,
797,-0.165,-0.155,
798,-0.2,-0.145,
799,-0.225,-0.145,
800,-0.245,-0.14,
801,-0.255,-0.13,
802,-0.29,-0.14,
803,-0.305,-0.145,
804,-0.33,-0.15,
805,-0.33,-0.16,
806,-0.36,-0.175,
807,-0.385,-0.175,
808,-0.405,-0.17,
809,-0.42,-0.165,
810,-0.425,-0.18,
811,-0.45,-0.19,
812,-0.44,-0.19,
813,-0.48,-0.205,
814,-0.475,-0.2,
815,-0.47,-0.2,
816,-0.47,-0.2,
817,-0.48,-0.2,
818,-0.495,-0.205,
819,-0.495,-0.22,
820,-0.505,-0.21,
821,-0.495,-0.215,
822,-0.485,-0.2,
823,-0.49,-0.205,
824,-0.49,-0.22,
825,-0.495,-0.24,
826,-0.51,-0.23,
827,-0.515,-0.225,
828,-0.5,-0.225,
829,-0.505,-0.22,
830,-0.51,-0.23,
831,-0.51,-0.23,
832,-0.515,-0.225,
833,-0.51,-0.225,
834,-0.495,-0.22,
835,-0.505,-0.225,
836,-0.505,-0.215,
837,-0.51,-0.245,
838,-0.515,-0.225,
839,-0.51,-0.22,
840,-0.5,-0.22,
841,-0.505,-0.215,
842,-0.52,-0.235,
843,-0.52,-0.245,
844,-0.535,-0.25,
845,-0.53,-0.225,
846,-0.515,-0.23,
847,-0.51,-0.23,
848,-0.505,-0.23,
849,-0.515,-0.24,
850,-0.52,-0.23,
851,-0.53,-0.22,
852,-0.505,-0.215,
853,-0.5,-0.215,
854,-0.5,-0.24,
855,-0.505,-0.25,
856,-0.52,-0.24,
857,-0.515,-0.235,
858,-0.5,-0.22,
859,-0.495,-0.24,
860,-0.5,-0.245,
861,-0.515,-0.25,
862,-0.51,-0.235,
863,-0.515,-0.22,
864,-0.5,-0.22,
865,-0.48,-0.225,
866,-0.475,-0.235,
867,-0.485,-0.26,
868,-0.485,-0.265,
869,-0.475,-0.27,
870,-0.45,-0.27,
871,-0.44,-0.285,
872,-0.425,-0.325,
873,-0.42,-0.46,
874,-0.4,-0.75,
875,-0.35,-1.115,
876,-0.24,-1.2,
877,-0.01,-0.985,
878,0.415,-0.77,
879,0.97,-0.675,
880,1.465,-0.63,
881,1.66,-0.605,
882,1.59,-0.565,
883,1.47,-0.535,
884,1.375,-0.555,/
885,1.315,-0.555,
886,1.26,-0.56,
887,1.185,-0.565,
888,1.11,-0.6,
889,1.015,-0.62,
890,0.935,-0.625,
891,0.84,-0.655,
892,0.755,-0.665,
893,0.695,-0.68,
894,0.62,-0.705,
895,0.515,-0.74,
896,0.395,-0.76,
897,0.265,-0.775,
898,0.13,-0.795,
899,0.0,-0.815,
900,-0.13,-0.865,
901,-0.29,-0.95,
902,-0.48,-1.03,
903,-0.69,-1.1,
904,-0.9,-1.14,
905,-1.09,-1.17,
906,-1.28,-1.225,
907,-1.46,-1.29,
908,-1.64,-1.4,
909,-1.83,-1.515,
910,-1.99,-1.64,
911,-2.08,-1.74,
912,-2.13,-1.81,
913,-2.17,-1.855,
914,-2.185,-1.93,
915,-2.215,-2.01,
916,-2.25,-2.08,
917,-2.305,-2.13,
918,-2.38,-2.18,
919,-2.47,-2.255,
920,-2.535,-2.365,
921,-2.585,-2.475,
922,-2.63,-2.51,
923,-2.665,-2.45,
924,-2.65,-2.31,
925,-2.59,-2.15,
926,-2.485,-2.01,
927,-2.34,-1.88,
928,-2.23,-1.71,
929,-2.05,-1.555,
930,-1.875,-1.41,
931,-1.7,-1.295,
932,-1.545,-1.19,
933,-1.435,-1.075,
934,-1.38,-0.97,
935,-1.295,-0.87,
936,-1.225,-0.78,
937,-1.145,-0.685,
938,-1.105,-0.63,
939,-1.06,-0.58,
940,-1.015,-0.515,
941,-0.965,-0.445,
942,-0.935,-0.385,
943,-0.915,-0.33,
944,-0.905,-0.3,
945,-0.885,-0.275,
946,-0.835,-0.225,
947,-0.75,-0.175,
948,-0.675,-0.135,
949,-0.62,-0.09,
950,-0.57,-0.075,
951,-0.53,-0.05,
952,-0.47,-0.025,
953,-0.405,0.02,
954,-0.335,0.06,
955,-0.27,0.08,
956,-0.22,0.085,
957,-0.16,0.09,
958,-0.095,0.12,
959,-0.025,0.135,
960,0.02,0.145,
961,0.09,0.15,
962,0.135,0.14,
963,0.155,0.14,
964,0.175,0.15,
965,0.2,0.185,
966,0.22,0.205,
967,0.235,0.205,
968,0.235,0.2,
969,0.245,0.205,
970,0.265,0.215,
971,0.305,0.24,
972,0.33,0.255,
973,0.35,0.255,
974,0.34,0.265,
975,0.355,0.255,
976,0.36,0.27,
977,0.39,0.28,
978,0.42,0.305,
979,0.425,0.31,
980,0.44,0.3,
981,0.44,0.31,
982,0.46,0.335,
983,0.49,0.34,
984,0.525,0.35,
985,0.535,0.365,
986,0.55,0.375,
987,0.57,0.375,
988,0.585,0.375,
989,0.6,0.41,
990,0.63,0.43,
991,0.65,0.435,
992,0.675,0.43,
993,0.705,0.435,
994,0.73,0.45,
995,0.765,0.475,
996,0.8,0.5,
997,0.805,0.505,
998,0.795,0.51,
999,0.815,0.535,
1000,0.85,0.56,
1001,0.88,0.56,
1002,0.895,0.57,
1003,0.895,0.565,
1004,0.895,0.57,
1005,0.885,0.595,
1006,0.905,0.595,
1007,0.92,0.615,
1008,0.925,0.61,
1009,0.925,0.6,
1010,0.92,0.595,
1011,0.93,0.605,
1012,0.94,0.615,
1013,0.955,0.615,
1014,0.945,0.605,
1015,0.93,0.59,
1016,0.905,0.585,
1017,0.89,0.575,
1018,0.88,0.57,
1019,0.88,0.565,
1020,0.855,0.55,
1021,0.835,0.525,
1022,0.815,0.495,
1023,0.79,0.495,
1024,0.78,0.475,
1025,0.755,0.465,
1026,0.74,0.435,
1027,0.71,0.405,
1028,0.675,0.375,
1029,0.65,0.355,
1030,0.62,0.345,
1031,0.615,0.34,
1032,0.6,0.34,
1033,0.555,0.32,
1034,0.525,0.31,
1035,0.495,0.305,
1036,0.475,0.305,
1037,0.455,0.315,
1038,0.45,0.285,
1039,0.435,0.255,
1040,0.405,0.23,
1041,0.4,0.22,
1042,0.395,0.22,
1043,0.405,0.23,
1044,0.4,0.205,
1045,0.385,0.17,
1046,0.365,0.125,
1047,0.325,0.09,
1048,0.32,0.055,
1049,0.315,0.035,
1050,0.31,-0.005,
1051,0.3,-0.03,
1052,0.285,-0.07,
1053,0.235,-0.095,
1054,0.195,-0.105,
1055,0.16,-0.115,
1056,0.11,-0.12,
1057,0.08,-0.13,
1058,0.04,-0.14,
1059,0.01,-0.145,
1060,0.02,-0.135,
1061,0.02,-0.135,
1062,0.015,-0.135,
1063,-0.01,-0.14,
1064,-0.035,-0.15,
1065,-0.05,-0.145,
1066,-0.07,-0.12,
1067,-0.085,-0.12,
1068,-0.105,-0.13,
1069,-0.12,-0.14,
1070,-0.15,-0.135,
1071,-0.18,-0.125,
1072,-0.21,-0.125,
1073,-0.23,-0.11,
1074,-0.25,-0.1,
1075,-0.29,-0.115,
1076,-0.32,-0.125,
1077,-0.36,-0.125,
1078,-0.37,-0.125,
1079,-0.4,-0.11,
1080,-0.415,-0.1,
1081,-0.435,-0.11,
1082,-0.46,-0.125,
1083,-0.47,-0.135,
1084,-0.465,-0.13,
1085,-0.48,-0.12,
1086,-0.49,-0.13,
1087,-0.515,-0.13,
1088,-0.535,-0.14,
1089,-0.55,-0.12,
1090,-0.545,-0.115,
1091,-0.54,-0.115,
1092,-0.545,-0.115,
1093,-0.55,-0.12,
1094,-0.545,-0.115,
1095,-0.56,-0.11,
1096,-0.555,-0.095,
1097,-0.55,-0.1,
1098,-0.555,-0.105,
1099,-0.56,-0.115,
1100,-0.565,-0.115,
1101,-0.585,-0.115,
1102,-0.57,-0.1,
1103,-0.55,-0.095,
1104,-0.565,-0.105,
1105,-0.555,-0.12,
1106,-0.575,-0.12,
1107,-0.57,-0.125,
1108,-0.57,-0.11,
1109,-0.555,-0.095,
1110,-0.55,-0.12,
1111,-0.555,-0.115,
1112,-0.55,-0.145,
1113,-0.56,-0.14,
1114,-0.56,-0.13,
1115,-0.545,-0.125,
1116,-0.55,-0.125,
1117,-0.55,-0.14,
1118,-0.565,-0.15,
1119,-0.55,-0.14,
1120,-0.555,-0.135,
1121,-0.54,-0.12,
1122,-0.565,-0.125,
1123,-0.575,-0.145,
1124,-0.595,-0.145,
1125,-0.615,-0.14,
1126,-0.62,-0.125,
1127,-0.605,-0.135,
1128,-0.58,-0.14,
1129,-0.585,-0.15,
1130,-0.585,-0.15,
1131,-0.595,-0.14,
1132,-0.6,-0.13,
1133,-0.59,-0.135,
1134,-0.605,-0.13,
1135,-0.6,-0.145,
1136,-0.585,-0.15,
1137,-0.58,-0.135,
1138,-0.575,-0.13,
1139,-0.575,-0.135,
1140,-0.59,-0.12,
1141,-0.595,-0.13,
1142,-0.615,-0.12,
1143,-0.585,-0.135,
1144,-0.565,-0.115,
1145,-0.545,-0.105,
1146,-0.555,-0.11,
1147,-0.56,-0.11,
1148,-0.57,-0.115,
1149,-0.575,-0.115,
1150,-0.56,-0.095,
1151,-0.57,-0.09,
1152,-0.585,-0.105,
1153,-0.59,-0.105,
1154,-0.59,-0.11,
1155,-0.59,-0.095,
1156,-0.58,-0.08,
1157,-0.57,-0.075,
1158,-0.55,-0.075,
1159,-0.535,-0.085,
1160,-0.54,-0.095,
1161,-0.55,-0.075,
1162,-0.535,-0.065,
1163,-0.515,-0.06,
1164,-0.515,-0.08,
1165,-0.525,-0.075,
1166,-0.545,-0.07,
1167,-0.565,-0.06,
1168,-0.56,-0.055,
1169,-0.55,-0.045,
1170,-0.515,-0.065,
1171,-0.51,-0.065,
1172,-0.51,-0.065,
1173,-0.53,-0.065,
1174,-0.515,-0.06,
1175,-0.515,-0.06,
1176,-0.5,-0.065,
1177,-0.495,-0.06,
1178,-0.495,-0.07,
1179,-0.49,-0.08,
1180,-0.49,-0.065,
1181,-0.48,-0.06,
1182,-0.475,-0.06,
1183,-0.47,-0.065,
1184,-0.47,-0.085,
1185,-0.465,-0.07,
1186,-0.465,-0.065,
1187,-0.455,-0.07,
1188,-0.46,-0.09,
1189,-0.45,-0.085,
1190,-0.435,-0.09,
1191,-0.44,-0.1,
1192,-0.425,-0.11,
1193,-0.405,-0.145,
1194,-0.4,-0.26,
1195,-0.38,-0.545,
1196,-0.325,-0.955,
1197,-0.215,-1.125,
1198,0.05,-0.9,
1199,0.54,-0.615,
1200,1.15,-0.47,
1201,1.595,-0.455,
1202,1.705,-0.45,
1203,1.57,-0.42,
1204,1.43,-0.39,
1205,1.36,-0.375,
1206,1.315,-0.38,/
1207,1.25,-0.405,
1208,1.16,-0.415,
1209,1.055,-0.425,
1210,0.965,-0.425,
1211,0.885,-0.44,
1212,0.795,-0.455,
1213,0.715,-0.48,
1214,0.6,-0.52,
1215,0.47,-0.525,
1216,0.34,-0.53,
1217,0.215,-0.535,
1218,0.065,-0.57,
1219,-0.095,-0.61,
1220,-0.265,-0.685,
1221,-0.435,-0.75,
1222,-0.615,-0.805,
1223,-0.82,-0.86,
1224,-1.025,-0.88,
1225,-1.24,-0.935,
1226,-1.425,-0.99,
1227,-1.6,-1.07,
1228,-1.745,-1.19,
1229,-1.9,-1.31,
1230,-2.005,-1.43,
1231,-2.085,-1.515,
1232,-2.14,-1.57,
1233,-2.17,-1.645,
1234,-2.19,-1.705,
1235,-2.23,-1.785,
1236,-2.295,-1.895,
1237,-2.395,-2.005,
1238,-2.47,-2.11,
1239,-2.55,-2.24,
1240,-2.59,-2.34,
1241,-2.64,-2.365,
1242,-2.68,-2.27,
1243,-2.685,-2.13,
1244,-2.61,-1.985,
1245,-2.46,-1.815,
1246,-2.265,-1.65,
1247,-2.07,-1.485,
1248,-1.87,-1.325,
1249,-1.685,-1.18,
1250,-1.545,-1.085,
1251,-1.46,-0.95,
1252,-1.385,-0.82,
1253,-1.315,-0.685,
1254,-1.23,-0.575,
1255,-1.17,-0.495,
1256,-1.12,-0.425,
1257,-1.065,-0.345,
1258,-1.0,-0.255,
1259,-0.955,-0.18,
1260,-0.94,-0.125,
1261,-0.935,-0.08,
1262,-0.935,-0.045,
1263,-0.915,0.015,
1264,-0.845,0.055,
1265,-0.775,0.09,
1266,-0.7,0.12,
1267,-0.655,0.15,
1268,-0.605,0.18,
1269,-0.55,0.22,
1270,-0.495,0.26,
1271,-0.435,0.285,
1272,-0.375,0.325,
1273,-0.32,0.335,
1274,-0.24,0.34,
1275,-0.165,0.37,
1276,-0.095,0.39,
1277,-0.045,0.405,
1278,0.015,0.395,
1279,0.06,0.405,
1280,0.09,0.4,
1281,0.12,0.42,
1282,0.145,0.445,
1283,0.175,0.45,
1284,0.185,0.465,
1285,0.195,0.46,
1286,0.2,0.455,
1287,0.23,0.475,
1288,0.255,0.49,
1289,0.285,0.505,
1290,0.285,0.515,
1291,0.3,0.515,
1292,0.31,0.53,
1293,0.34,0.54,
1294,0.38,0.575,
1295,0.41,0.605,
1296,0.435,0.635,
1297,0.46,0.655,
1298,0.485,0.685,
1299,0.515,0.705,
1300,0.54,0.75,
1301,0.58,0.76,
1302,0.625,0.775,
1303,0.655,0.785,
1304,0.71,0.795,
1305,0.765,0.825,
1306,0.825,0.855,
1307,0.895,0.885,
1308,0.93,0.89,
1309,0.98,0.875,
1310,1.005,0.845,
1311,1.04,0.835,
1312,1.08,0.82,
1313,1.105,0.82,
1314,1.145,0.82,
1315,1.17,0.815,
1316,1.195,0.78,
1317,1.195,0.785,
1318,1.195,0.795,
1319,1.195,0.805,
1320,1.195,0.79,
1321,1.2,0.79,
1322,1.2,0.78,
1323,1.21,0.805,
1324,1.2,0.81,
1325,1.22,0.83,
1326,1.225,0.83,
1327,1.21,0.81,
1328,1.185,0.805,
1329,1.175,0.8,
1330,1.175,0.815,
1331,1.16,0.79,
1332,1.125,0.78,
1333,1.08,0.775,
1334,1.045,0.745,
1335,1.005,0.755,
1336,0.975,0.75,
1337,0.945,0.735,
1338,0.895,0.72,
1339,0.85,0.675,
1340,0.795,0.655,
1341,0.745,0.62,
1342,0.7,0.6,
1343,0.665,0.57,
1344,0.635,0.535,
1345,0.57,0.5,
1346,0.53,0.455,
1347,0.475,0.435,
1348,0.43,0.41,
1349,0.38,0.39,
1350,0.325,0.355,
1351,0.275,0.34,
1352,0.225,0.305,
1353,0.18,0.275,
1354,0.14,0.27,
1355,0.105,0.25,
1356,0.045,0.225,
1357,-0.005,0.19,
1358,-0.07,0.175,
1359,-0.11,0.165,
1360,-0.14,0.16,
1361,-0.16,0.16,
1362,-0.195,0.14,
1363,-0.245,0.125,
1364,-0.28,0.115,
1365,-0.32,0.1,
1366,-0.345,0.105,
1367,-0.37,0.1,
1368,-0.4,0.105,
1369,-0.435,0.085,
1370,-0.455,0.075,
1371,-0.475,0.09,
1372,-0.48,0.085,
1373,-0.49,0.095,
1374,-0.505,0.08,
1375,-0.535,0.08,
1376,-0.545,0.065,
1377,-0.565,0.07,
1378,-0.57,0.085,
1379,-0.57,0.085,
1380,-0.58,0.08,
1381,-0.595,0.07,
1382,-0.62,0.07,
1383,-0.64,0.065,
1384,-0.63,0.085,
1385,-0.635,0.095,
1386,-0.63,0.095,
1387,-0.64,0.085,
1388,-0.665,0.08,
1389,-0.655,0.08,
1390,-0.66,0.09,
1391,-0.65,0.09,
1392,-0.66,0.095,
1393,-0.665,0.1,
1394,-0.68,0.095,
1395,-0.69,0.105,
1396,-0.675,0.115,
1397,-0.675,0.115,
1398,-0.675,0.11,
1399,-0.69,0.12,
1400,-0.69,0.1,
1401,-0.69,0.105,
1402,-0.675,0.12,
1403,-0.68,0.135,
1404,-0.69,0.13,
1405,-0.69,0.115,
1406,-0.705,0.11,
1407,-0.69,0.13,
1408,-0.675,0.145,
1409,-0.665,0.15,
1410,-0.665,0.145,
1411,-0.66,0.14,
1412,-0.675,0.135,
1413,-0.675,0.14,
1414,-0.67,0.155,
1415,-0.66,0.17,
1416,-0.645,0.17,
1417,-0.66,0.155,
1418,-0.67,0.155,
1419,-0.67,0.165,
1420,-0.655,0.17,
1421,-0.645,0.16,
1422,-0.64,0.15,
1423,-0.64,0.145,
1424,-0.645,0.15,
1425,-0.645,0.15,
1426,-0.64,0.145,
1427,-0.62,0.15,
1428,-0.62,0.15,
1429,-0.625,0.145,
1430,-0.61,0.135,
1431,-0.625,0.14,
1432,-0.605,0.155,
1433,-0.605,0.155,
1434,-0.61,0.135,
1435,-0.61,0.13,
1436,-0.615,0.12,
1437,-0.615,0.125,
1438,-0.605,0.125,
1439,-0.595,0.145,
1440,-0.6,0.135,
1441,-0.595,0.12,
1442,-0.6,0.11,
1443,-0.605,0.105,
1444,-0.585,0.12,
1445,-0.57,0.125,
1446,-0.57,0.115,
1447,-0.585,0.105,
1448,-0.6,0.105,
1449,-0.61,0.105,
1450,-0.605,0.115,
1451,-0.595,0.115,
1452,-0.595,0.115,
1453,-0.605,0.1,
1454,-0.6,0.095,
1455,-0.61,0.11,
1456,-0.59,0.11,
1457,-0.585,0.12,
1458,-0.58,0.095,
1459,-0.585,0.09,
1460,-0.595,0.095,
1461,-0.6,0.095,
1462,-0.595,0.095,
1463,-0.585,0.11,
1464,-0.585,0.105,
1465,-0.59,0.095,
1466,-0.59,0.09,
1467,-0.58,0.09,
1468,-0.575,0.105,
1469,-0.565,0.1,
1470,-0.565,0.1,
1471,-0.58,0.08,
1472,-0.58,0.09,
1473,-0.58,0.085,
1474,-0.57,0.095,
1475,-0.565,0.1,
1476,-0.56,0.09,
1477,-0.575,0.08,
1478,-0.585,0.08,
1479,-0.59,0.09,
1480,-0.555,0.1,
1481,-0.555,0.095,
1482,-0.565,0.09,
1483,-0.56,0.075,
1484,-0.555,0.07,
1485,-0.55,0.085,
1486,-0.535,0.095,
1487,-0.53,0.095,
1488,-0.54,0.09,
1489,-0.55,0.08,
1490,-0.545,0.065,
1491,-0.565,0.075,
1492,-0.555,0.085,
1493,-0.54,0.075,
1494,-0.54,0.075,
1495,-0.54,0.065,
1496,-0.53,0.06,
1497,-0.535,0.06,
1498,-0.535,0.07,
1499,-0.52,0.075,
1500,-0.51,0.06,
1501,-0.51,0.04,
1502,-0.515,0.025,
1503,-0.52,0.03,
1504,-0.485,0.02,
1505,-0.47,0.005,
1506,-0.465,-0.025,
1507,-0.445,-0.105,
1508,-0.445,-0.315,
1509,-0.42,-0.71,
1510,-0.35,-1.035,
1511,-0.19,-0.95,
1512,0.155,-0.655,
1513,0.715,-0.435,
1514,1.3,-0.39,
1515,1.595,-0.36,
1516,1.55,-0.345,
1517,1.37,-0.31,
1518,1.26,-0.31,
1519,1.185,-0.325,/
1520,1.125,-0.34,
1521,1.025,-0.345,
1522,0.925,-0.35,
1523,0.81,-0.38,
1524,0.705,-0.4,
1525,0.595,-0.435,
1526,0.475,-0.455,
1527,0.35,-0.46,
1528,0.245,-0.47,
1529,0.105,-0.49,
1530,-0.07,-0.525,
1531,-0.26,-0.57,
1532,-0.45,-0.62,
1533,-0.64,-0.67,
1534,-0.835,-0.725,
1535,-1.03,-0.78,
1536,-1.28,-0.83,
1537,-1.51,-0.88,
1538,-1.715,-0.93,
1539,-1.895,-0.985,
1540,-2.065,-1.07,
1541,-2.195,-1.205,
1542,-2.295,-1.345,
1543,-2.395,-1.465,
1544,-2.46,-1.555,
1545,-2.485,-1.6,
1546,-2.51,-1.68,
1547,-2.54,-1.76,
1548,-2.615,-1.865,
1549,-2.69,-1.965,
1550,-2.76,-2.075,
1551,-2.82,-2.185,
1552,-2.875,-2.295,
1553,-2.91,-2.335,
1554,-2.945,-2.27,
1555,-2.94,-2.145,
1556,-2.845,-1.98,
1557,-2.665,-1.79,
1558,-2.44,-1.55,
1559,-2.2,-1.355,
1560,-1.975,-1.165,
1561,-1.77,-1.01,
1562,-1.625,-0.88,
1563,-1.535,-0.745,
1564,-1.425,-0.595,
1565,-1.33,-0.455,
1566,-1.22,-0.335,
1567,-1.105,-0.245,
1568,-1.015,-0.155,
1569,-0.925,-0.075,
1570,-0.845,-0.02,
1571,-0.78,0.01,
1572,-0.73,0.02,
1573,-0.675,0.01,
1574,-0.63,0.025,
1575,-0.55,0.045,
1576,-0.445,0.065,
1577,-0.355,0.09,
1578,-0.315,0.095,
1579,-0.295,0.105,
1580,-0.26,0.13,
1581,-0.22,0.15,
1582,-0.15,0.19,
1583,-0.08,0.2,
1584,-0.005,0.225,
1585,0.07,0.235,
1586,0.105,0.245,
1587,0.16,0.25,
1588,0.22,0.27,
1589,0.27,0.295,
1590,0.29,0.29,
1591,0.31,0.28,
1592,0.29,0.29,
1593,0.275,0.315,
1594,0.28,0.34,
1595,0.27,0.37,
1596,0.265,0.375,
1597,0.255,0.385,
1598,0.24,0.38,
1599,0.245,0.385,
1600,0.255,0.395,
1601,0.27,0.4,
1602,0.27,0.405,
1603,0.275,0.405,
1604,0.255,0.39,
1605,0.27,0.415,
1606,0.305,0.42,
1607,0.32,0.45,
1608,0.325,0.45,
1609,0.32,0.46,
1610,0.34,0.47,
1611,0.355,0.495,
1612,0.39,0.52,
1613,0.415,0.535,
1614,0.45,0.54,
1615,0.48,0.555,
1616,0.5,0.56,
1617,0.515,0.59,
1618,0.55,0.62,
1619,0.59,0.625,
1620,0.615,0.635,
1621,0.64,0.645,
1622,0.665,0.645,
1623,0.685,0.67,
1624,0.715,0.695,
1625,0.745,0.71,
1626,0.76,0.72,
1627,0.77,0.72,
1628,0.775,0.725,
1629,0.785,0.74,
1630,0.805,0.75,
1631,0.825,0.76,
1632,0.83,0.755,
1633,0.815,0.755,
1634,0.81,0.76,
1635,0.81,0.74,
1636,0.82,0.75,
1637,0.825,0.745,
1638,0.8,0.725,
1639,0.775,0.71,
1640,0.755,0.69,
1641,0.735,0.68,
1642,0.7,0.665,
1643,0.675,0.64,
1644,0.655,0.62,
1645,0.615,0.595,
1646,0.595,0.555,
1647,0.54,0.535,
1648,0.525,0.52,
1649,0.475,0.49,
1650,0.43,0.465,
1651,0.375,0.435,
1652,0.335,0.39,
1653,0.28,0.37,
1654,0.24,0.355,
1655,0.2,0.335,
1656,0.155,0.3,
1657,0.1,0.26,
1658,0.045,0.24,
1659,0.0,0.22,
1660,-0.035,0.21,
1661,-0.065,0.185,
1662,-0.125,0.165,
1663,-0.175,0.145,
1664,-0.235,0.13,
1665,-0.275,0.13,
1666,-0.305,0.13,
1667,-0.335,0.12,
1668,-0.375,0.1,
1669,-0.415,0.085,
1670,-0.465,0.075,
1671,-0.49,0.08,
1672,-0.49,0.08,
1673,-0.5,0.09,
1674,-0.54,0.085,
1675,-0.57,0.06,
1676,-0.595,0.06,
1677,-0.615,0.07,
1678,-0.62,0.075,
1679,-0.62,0.07,
1680,-0.63,0.065,
1681,-0.64,0.06,
1682,-0.655,0.045,
1683,-0.665,0.055,
1684,-0.665,0.08,
1685,-0.665,0.075,
1686,-0.68,0.07,
1687,-0.69,0.065,
1688,-0.705,0.07,
1689,-0.71,0.075,
1690,-0.69,0.08,
1691,-0.69,0.085,
1692,-0.695,0.09,
1693,-0.695,0.075,
1694,-0.71,0.08,
1695,-0.705,0.07,
1696,-0.705,0.09,
1697,-0.68,0.11,
1698,-0.71,0.095,
1699,-0.725,0.085,
1700,-0.72,0.075,
1701,-0.73,0.08,
1702,-0.71,0.085,
1703,-0.71,0.095,
1704,-0.705,0.085,
1705,-0.705,0.085,
1706,-0.695,0.08,
1707,-0.705,0.095,
1708,-0.685,0.1,
1709,-0.675,0.11,
1710,-0.68,0.095,
1711,-0.69,0.09,
1712,-0.7,0.09,
1713,-0.695,0.09,
1714,-0.68,0.095,
1715,-0.67,0.1,
1716,-0.68,0.1,
1717,-0.675,0.085,
1718,-0.67,0.08,
1719,-0.675,0.09,
1720,-0.66,0.1,
1721,-0.645,0.1,
1722,-0.65,0.095,
1723,-0.655,0.085,
1724,-0.665,0.07,
1725,-0.655,0.085,
1726,-0.64,0.09,
1727,-0.615,0.085,
1728,-0.63,0.09,
1729,-0.64,0.09,
1730,-0.655,0.07,
1731,-0.65,0.085,
1732,-0.645,0.075,
1733,-0.62,0.075,
1734,-0.62,0.065,
1735,-0.61,0.07,
1736,-0.63,0.05,
1737,-0.645,0.05,
1738,-0.635,0.065,
1739,-0.63,0.07,
1740,-0.625,0.055,
1741,-0.63,0.05,
1742,-0.64,0.05,
1743,-0.64,0.04,
1744,-0.625,0.055,
1745,-0.625,0.06,
1746,-0.635,0.06,
1747,-0.635,0.045,
1748,-0.64,0.03,
1749,-0.645,0.045,
1750,-0.635,0.05,
1751,-0.625,0.06,
1752,-0.635,0.055,
1753,-0.63,0.04,
1754,-0.63,0.015,
1755,-0.635,0.03,
1756,-0.625,0.025,
1757,-0.635,0.04,
1758,-0.635,0.045,
1759,-0.645,0.03,
1760,-0.65,0.015,
1761,-0.64,0.025,
1762,-0.625,0.045,
1763,-0.61,0.045,
1764,-0.61,0.035,
1765,-0.615,0.03,
1766,-0.625,0.02,
1767,-0.63,0.01,
1768,-0.63,0.035,
1769,-0.625,0.04,
1770,-0.605,0.03,
1771,-0.61,0.015,
1772,-0.615,0.015,
1773,-0.63,0.025,
1774,-0.605,0.03,
1775,-0.6,0.04,
1776,-0.6,0.035,
1777,-0.61,0.02,
1778,-0.62,0.015,
1779,-0.63,0.03,
1780,-0.615,0.035,
1781,-0.58,0.03,
1782,-0.59,0.035,
1783,-0.6,0.02,
1784,-0.61,0.005,
1785,-0.61,0.01,
1786,-0.6,0.015,
1787,-0.605,0.02,
1788,-0.595,0.03,
1789,-0.605,0.0,
1790,-0.6,-0.01,
1791,-0.605,0.005,
1792,-0.575,0.02,
1793,-0.575,0.02,
1794,-0.585,0.005,
1795,-0.585,0.0,
1796,-0.585,-0.01,
1797,-0.58,0.005,
1798,-0.565,0.01,
1799,-0.555,0.0,
1800,-0.56,0.0,
1801,-0.57,-0.03,
1802,-0.575,-0.03,
1803,-0.575,-0.04,
1804,-0.56,-0.03,
1805,-0.54,-0.045,
1806,-0.525,-0.065,
1807,-0.505,-0.115,
1808,-0.485,-0.225,
1809,-0.47,-0.5,
1810,-0.425,-0.875,
1811,-0.315,-0.945,
1812,-0.075,-0.665,
1813,0.41,-0.38,
1814,1.025,-0.255,
1815,1.445,-0.195,
1816,1.46,-0.17,
1817,1.28,-0.16,
1818,1.115,-0.13,
1819,1.075,-0.135,
1820,1.035,-0.145,/
1821,1.0,-0.14,
1822,0.93,-0.16,
1823,0.845,-0.18,
1824,0.745,-0.25,
1825,0.64,-0.33,
1826,0.54,-0.395,
1827,0.445,-0.435,
1828,0.375,-0.465,
1829,0.285,-0.485,
1830,0.135,-0.525,
1831,-0.04,-0.59,
1832,-0.23,-0.645,
1833,-0.45,-0.695,
1834,-0.655,-0.76,
1835,-0.86,-0.84,
1836,-1.105,-0.9,
1837,-1.37,-0.96,
1838,-1.605,-0.985,
1839,-1.81,-1.055,
1840,-1.98,-1.16,
1841,-2.13,-1.285,
1842,-2.255,-1.43,
1843,-2.32,-1.565,
1844,-2.39,-1.655,
1845,-2.44,-1.725,
1846,-2.45,-1.795,
1847,-2.5,-1.865,
1848,-2.61,-1.955,
1849,-2.71,-2.035,
1850,-2.79,-2.13,
1851,-2.865,-2.24,
1852,-2.91,-2.34,
1853,-2.945,-2.375,
1854,-2.96,-2.305,
1855,-2.95,-2.175,
1856,-2.87,-2.015,
1857,-2.695,-1.86,
1858,-2.49,-1.67,
1859,-2.305,-1.51,
1860,-2.135,-1.35,
1861,-1.98,-1.23,
1862,-1.85,-1.125,
1863,-1.735,-0.975,
1864,-1.625,-0.835,
1865,-1.515,-0.7,
1866,-1.425,-0.61,
1867,-1.355,-0.52,
1868,-1.29,-0.455,
1869,-1.22,-0.37,
1870,-1.18,-0.275,
1871,-1.145,-0.245,
1872,-1.135,-0.205,
1873,-1.115,-0.17,
1874,-1.085,-0.12,
1875,-1.05,-0.07,
1876,-0.955,-0.05,
1877,-0.89,-0.005,
1878,-0.81,0.03,
1879,-0.755,0.05,
1880,-0.7,0.065,
1881,-0.64,0.105,
1882,-0.54,0.15,
1883,-0.45,0.17,
1884,-0.38,0.185,
1885,-0.335,0.18,
1886,-0.28,0.2,
1887,-0.23,0.215,
1888,-0.17,0.23,
1889,-0.09,0.24,
1890,-0.045,0.25,
1891,-0.02,0.25,
1892,-0.01,0.25,
1893,0.01,0.275,
1894,0.03,0.29,
1895,0.065,0.305,
1896,0.075,0.32,
1897,0.095,0.315,
1898,0.11,0.315,
1899,0.125,0.34,
1900,0.16,0.365,
1901,0.175,0.38,
1902,0.195,0.38,
1903,0.205,0.385,
1904,0.225,0.385,
1905,0.24,0.41,
1906,0.265,0.44,
1907,0.29,0.45,
1908,0.325,0.45,
1909,0.355,0.46,
1910,0.39,0.47,
1911,0.415,0.49,
1912,0.465,0.515,
1913,0.475,0.535,
1914,0.51,0.54,
1915,0.535,0.545,
1916,0.57,0.55,
1917,0.6,0.575,
1918,0.645,0.6,
1919,0.695,0.61,
1920,0.72,0.625,
1921,0.75,0.63,
1922,0.77,0.63,
1923,0.8,0.65,
1924,0.865,0.66,
1925,0.895,0.68,
1926,0.915,0.69,
1927,0.94,0.68,
1928,0.94,0.68,
1929,0.965,0.695,
1930,0.99,0.715,
1931,1.01,0.71,
1932,1.02,0.705,
1933,1.02,0.695,
1934,1.01,0.68,
1935,1.015,0.68,
1936,1.025,0.69,
1937,1.035,0.675,
1938,1.02,0.665,
1939,1.0,0.64,
1940,0.975,0.615,
1941,0.945,0.615,
1942,0.915,0.6,
1943,0.89,0.58,
1944,0.855,0.555,
1945,0.83,0.515,
1946,0.785,0.48,
1947,0.75,0.465,
1948,0.725,0.44,
1949,0.68,0.425,
1950,0.635,0.385,
1951,0.59,0.335,
1952,0.545,0.315,
1953,0.485,0.295,
1954,0.455,0.285,
1955,0.42,0.255,
1956,0.375,0.22,
1957,0.32,0.18,
1958,0.27,0.155,
1959,0.21,0.14,
1960,0.17,0.12,
1961,0.145,0.105,
1962,0.09,0.09,
1963,0.045,0.055,
1964,-0.005,0.045,
1965,-0.05,0.045,
1966,-0.08,0.03,
1967,-0.115,0.03,
1968,-0.165,0.015,
1969,-0.22,-0.02,
1970,-0.275,-0.02,
1971,-0.3,-0.01,
1972,-0.32,-0.03,
1973,-0.34,-0.035,
1974,-0.35,-0.03,
1975,-0.37,-0.03,
1976,-0.385,-0.04,
1977,-0.42,-0.035,
1978,-0.44,-0.025,
1979,-0.425,-0.035,
1980,-0.42,-0.03,
1981,-0.405,-0.05,
1982,-0.415,-0.06,
1983,-0.445,-0.04,
1984,-0.465,-0.035,
1985,-0.455,-0.03,
1986,-0.465,-0.04,
1987,-0.485,-0.055,
1988,-0.495,-0.055,
1989,-0.505,-0.045,
1990,-0.495,-0.03,
1991,-0.49,-0.02,
1992,-0.525,-0.025,
1993,-0.53,-0.04,
1994,-0.545,-0.05,
1995,-0.545,-0.04,
1996,-0.515,-0.035,
1997,-0.485,-0.025,
1998,-0.49,-0.025,
1999,-0.5,-0.03,
2000,-0.505,-0.03,
2001,-0.51,-0.015,
2002,-0.5,-0.03,
2003,-0.505,-0.015,
2004,-0.54,-0.03,
2005,-0.55,-0.02,
2006,-0.52,-0.025,
2007,-0.495,-0.02,
2008,-0.495,-0.015,
2009,-0.51,-0.01,
2010,-0.505,0.0,
2011,-0.485,-0.02,
2012,-0.49,-0.025,
2013,-0.495,-0.025,
2014,-0.49,-0.01,
2015,-0.48,0.0,
2016,-0.48,-0.01,
2017,-0.495,-0.03,
2018,-0.505,-0.04,
2019,-0.505,-0.035,
2020,-0.49,0.0,
2021,-0.48,-0.015,
2022,-0.485,-0.03,
2023,-0.48,-0.04,
2024,-0.49,-0.04,
2025,-0.475,-0.04,
2026,-0.465,-0.03,
2027,-0.455,-0.035,
2028,-0.455,-0.045,
2029,-0.465,-0.055,
2030,-0.49,-0.06,
2031,-0.49,-0.055,
2032,-0.495,-0.06,
2033,-0.45,-0.055,
2034,-0.445,-0.055,
2035,-0.44,-0.06,
2036,-0.455,-0.09,
2037,-0.47,-0.065,
2038,-0.47,-0.075,
2039,-0.485,-0.06,
2040,-0.48,-0.075,
2041,-0.49,-0.075,
2042,-0.495,-0.085,
2043,-0.485,-0.075,
2044,-0.475,-0.08,
2045,-0.47,-0.075,
2046,-0.485,-0.09,
2047,-0.495,-0.09,
2048,-0.5,-0.11,
2049,-0.505,-0.1,
2050,-0.49,-0.09,
2051,-0.485,-0.09,
2052,-0.49,-0.1,
2053,-0.495,-0.105,
2054,-0.495,-0.11,
2055,-0.495,-0.105,
2056,-0.49,-0.09,
2057,-0.485,-0.1,
2058,-0.495,-0.1,
2059,-0.505,-0.105,
2060,-0.52,-0.095,
2061,-0.51,-0.08,
2062,-0.5,-0.04,
2063,-0.475,-0.01,
2064,-0.485,0.005,
2065,-0.455,0.02,
2066,-0.46,0.03,
2067,-0.435,0.045,
2068,-0.41,0.06,
2069,-0.395,0.08,
2070,-0.37,0.085,
2071,-0.315,0.1,
2072,-0.27,0.105,
2073,-0.245,0.1,
2074,-0.205,0.09,
2075,-0.185,0.045,
2076,-0.19,-0.005,
2077,-0.195,-0.045,
2078,-0.185,-0.07,
2079,-0.17,-0.08,
2080,-0.13,-0.085,
2081,-0.08,-0.095,
2082,-0.09,-0.125,
2083,-0.11,-0.14,
2084,-0.135,-0.155,
2085,-0.16,-0.155,
2086,-0.165,-0.165,
2087,-0.17,-0.18,
2088,-0.175,-0.175,
2089,-0.18,-0.16,
2090,-0.195,-0.165,
2091,-0.19,-0.175,
2092,-0.195,-0.16,
2093,-0.215,-0.17,
2094,-0.23,-0.175,
2095,-0.23,-0.19,
2096,-0.255,-0.2,
2097,-0.28,-0.195,
2098,-0.295,-0.175,
2099,-0.31,-0.18,
2100,-0.33,-0.17,
2101,-0.365,-0.165,
2102,-0.395,-0.18,
2103,-0.415,-0.175,
2104,-0.425,-0.2,
2105,-0.425,-0.215,
2106,-0.435,-0.26,
2107,-0.43,-0.355,
2108,-0.43,-0.635,
2109,-0.4,-1.015,
2110,-0.275,-1.155,
2111,0.02,-0.925,
2112,0.54,-0.64,
2113,1.175,-0.53,
2114,1.545,-0.53,
2115,1.46,-0.525,
2116,1.21,-0.49,
2117,1.045,-0.48,
2118,0.98,-0.49,/
2119,0.905,-0.52,
2120,0.8,-0.545,
2121,0.695,-0.545,
2122,0.59,-0.565,
2123,0.485,-0.585,
2124,0.35,-0.605,
2125,0.235,-0.635,
2126,0.125,-0.675,
2127,0.015,-0.675,
2128,-0.125,-0.665,
2129,-0.28,-0.7,
2130,-0.455,-0.74,
2131,-0.595,-0.815,
2132,-0.735,-0.89,
2133,-0.88,-0.955,
2134,-1.015,-1.01,
2135,-1.16,-1.055,
2136,-1.355,-1.115,
2137,-1.58,-1.2,
2138,-1.795,-1.28,
2139,-1.975,-1.38,
2140,-2.135,-1.53,
2141,-2.255,-1.67,
2142,-2.3,-1.79,
2143,-2.34,-1.895,
2144,-2.375,-1.97,
2145,-2.395,-2.035,
2146,-2.42,-2.13,
2147,-2.47,-2.215,
2148,-2.565,-2.305,
2149,-2.65,-2.39,
2150,-2.725,-2.465,
2151,-2.77,-2.525,
2152,-2.815,-2.565,
2153,-2.855,-2.53,
2154,-2.875,-2.395,
2155,-2.835,-2.24,
2156,-2.735,-2.07,
2157,-2.54,-1.9,
2158,-2.32,-1.72,
2159,-2.115,-1.535,
2160,-1.92,-1.38,
2161,-1.755,-1.235,
2162,-1.64,-1.075,
2163,-1.565,-0.935,
2164,-1.475,-0.81,
2165,-1.4,-0.69,
2166,-1.355,-0.605,
2167,-1.31,-0.515,
2168,-1.265,-0.455,
2169,-1.24,-0.38,
2170,-1.205,-0.305,
2171,-1.155,-0.24,
2172,-1.1,-0.185,
2173,-1.055,-0.155,
2174,-1.0,-0.105,
2175,-0.91,-0.05,
2176,-0.81,-0.01,
2177,-0.755,0.015,
2178,-0.73,0.03,
2179,-0.7,0.055,
2180,-0.595,0.09,
2181,-0.45,0.11,
2182,-0.3,0.155,
2183,-0.225,0.16,
2184,-0.205,0.18,
2185,-0.175,0.175,
2186,-0.125,0.18,
2187,-0.055,0.195,
2188,0.0,0.2,
2189,0.02,0.215,
2190,0.05,0.23,
2191,0.065,0.225,
2192,0.08,0.245,
2193,0.095,0.245,
2194,0.12,0.275,
2195,0.165,0.27,
2196,0.2,0.28,
2197,0.23,0.28,
2198,0.255,0.285,
2199,0.295,0.3,
2200,0.325,0.33,
2201,0.36,0.34,
2202,0.37,0.355,
2203,0.395,0.36,
2204,0.41,0.365,
2205,0.435,0.38,
2206,0.47,0.395,
2207,0.515,0.41,
2208,0.545,0.425,
2209,0.55,0.425,
2210,0.59,0.435,
2211,0.615,0.465,
2212,0.645,0.48,
2213,0.7,0.49,
2214,0.74,0.505,
2215,0.775,0.505,
2216,0.81,0.515,
2217,0.825,0.54,
2218,0.86,0.565,
2219,0.9,0.575,
2220,0.92,0.59,
2221,0.94,0.585,
2222,0.955,0.595,
2223,0.97,0.605,
2224,1.0,0.63,
2225,1.025,0.63,
2226,1.015,0.635,
2227,1.03,0.63,
2228,1.02,0.63,
2229,1.015,0.64,
2230,1.02,0.645,
2231,1.03,0.635,
2232,1.015,0.63,
2233,1.005,0.61,
2234,0.995,0.6,
2235,0.975,0.59,
2236,0.95,0.585,
2237,0.945,0.59,
2238,0.91,0.56,
2239,0.875,0.525,
2240,0.835,0.5,
2241,0.8,0.49,
2242,0.78,0.485,
2243,0.75,0.46,
2244,0.7,0.415,
2245,0.66,0.38,
2246,0.6,0.34,
2247,0.56,0.325,
2248,0.53,0.3,
2249,0.495,0.275,
2250,0.445,0.245,
2251,0.395,0.2,
2252,0.355,0.165,
2253,0.295,0.15,
2254,0.26,0.135,
2255,0.225,0.12,
2256,0.175,0.08,
2257,0.12,0.05,
2258,0.06,0.03,
2259,0.01,0.02,
2260,-0.02,0.02,
2261,-0.055,0.005,
2262,-0.095,-0.01,
2263,-0.14,-0.035,
2264,-0.185,-0.05,
2265,-0.225,-0.055,
2266,-0.255,-0.055,
2267,-0.27,-0.05,
2268,-0.295,-0.06,
2269,-0.325,-0.085,
2270,-0.355,-0.09,
2271,-0.375,-0.09,
2272,-0.385,-0.065,
2273,-0.405,-0.07,
2274,-0.415,-0.07,
2275,-0.44,-0.085,
2276,-0.46,-0.085,
2277,-0.48,-0.08,
2278,-0.455,-0.07,
2279,-0.46,-0.07,
2280,-0.47,-0.065,
2281,-0.48,-0.085,
2282,-0.49,-0.095,
2283,-0.5,-0.085,
2284,-0.495,-0.065,
2285,-0.495,-0.065,
2286,-0.49,-0.06,
2287,-0.51,-0.07,
2288,-0.52,-0.075,
2289,-0.525,-0.07,
2290,-0.525,-0.06,
2291,-0.515,-0.055,
2292,-0.515,-0.055,
2293,-0.53,-0.07,
2294,-0.525,-0.07,
2295,-0.54,-0.065,
2296,-0.53,-0.05,
2297,-0.525,-0.04,
2298,-0.53,-0.045,
2299,-0.525,-0.06,
2300,-0.535,-0.055,
2301,-0.545,-0.055,
2302,-0.54,-0.03,
2303,-0.525,-0.045,
2304,-0.525,-0.03,
2305,-0.54,-0.045,
2306,-0.535,-0.04,
2307,-0.535,-0.015,
2308,-0.51,0.02,
2309,-0.5,0.04,
2310,-0.495,0.06,
2311,-0.51,0.085,
2312,-0.505,0.1,
2313,-0.49,0.12,
2314,-0.46,0.13,
2315,-0.435,0.13,
2316,-0.395,0.16,
2317,-0.365,0.155,
2318,-0.325,0.175,
2319,-0.265,0.2,
2320,-0.24,0.205,
2321,-0.2,0.175,
2322,-0.18,0.14,
2323,-0.175,0.08,
2324,-0.18,0.05,
2325,-0.17,0.035,
2326,-0.13,0.02,
2327,-0.1,0.0,
2328,-0.095,-0.02,
2329,-0.11,-0.04,
2330,-0.145,-0.06,
2331,-0.18,-0.05,
2332,-0.185,-0.065,
2333,-0.19,-0.08,
2334,-0.19,-0.095,
2335,-0.205,-0.1,
2336,-0.225,-0.1,
2337,-0.22,-0.09,
2338,-0.225,-0.085,
2339,-0.23,-0.085,
2340,-0.25,-0.1,
2341,-0.265,-0.11,
2342,-0.28,-0.12,
2343,-0.315,-0.115,
2344,-0.345,-0.095,
2345,-0.35,-0.095,
2346,-0.39,-0.08,
2347,-0.42,-0.09,
2348,-0.46,-0.075,
2349,-0.485,-0.075,
2350,-0.505,-0.075,
2351,-0.515,-0.09,
2352,-0.535,-0.1,
2353,-0.55,-0.11,
2354,-0.58,-0.115,
2355,-0.6,-0.12,
2356,-0.61,-0.12,
2357,-0.605,-0.12,
2358,-0.615,-0.14,
2359,-0.65,-0.145,
2360,-0.675,-0.145,
2361,-0.68,-0.135,
2362,-0.68,-0.13,
2363,-0.655,-0.125,
2364,-0.66,-0.14,
2365,-0.665,-0.145,
2366,-0.655,-0.15,
2367,-0.65,-0.14,
2368,-0.645,-0.125,
2369,-0.64,-0.135,
2370,-0.65,-0.13,
2371,-0.67,-0.135,
2372,-0.67,-0.15,
2373,-0.7,-0.145,
2374,-0.69,-0.135,
2375,-0.675,-0.125,
2376,-0.67,-0.14,
2377,-0.675,-0.15,
2378,-0.685,-0.155,
2379,-0.69,-0.135,
2380,-0.685,-0.13,
2381,-0.69,-0.125,
2382,-0.69,-0.13,
2383,-0.7,-0.15,
2384,-0.7,-0.145,
2385,-0.69,-0.145,
2386,-0.68,-0.125,
2387,-0.665,-0.13,
2388,-0.675,-0.14,
2389,-0.69,-0.145,
2390,-0.685,-0.15,
2391,-0.685,-0.15,
2392,-0.68,-0.145,
2393,-0.66,-0.14,
2394,-0.665,-0.145,
2395,-0.67,-0.15,
2396,-0.68,-0.16,
2397,-0.69,-0.15,
2398,-0.67,-0.145,
2399,-0.64,-0.145,
2400,-0.645,-0.165,
2401,-0.635,-0.19,
2402,-0.63,-0.22,
2403,-0.61,-0.305,
2404,-0.58,-0.575,
2405,-0.53,-0.995,
2406,-0.43,-1.135,
2407,-0.225,-0.905,
2408,0.23,-0.625,
2409,0.865,-0.5,
2410,1.41,-0.48,
2411,1.475,-0.465,
2412,1.265,-0.45,
2413,1.08,-0.43,
2414,0.98,-0.435,/
2415,0.92,-0.445,
2416,0.88,-0.445,
2417,0.79,-0.465,
2418,0.68,-0.475,
2419,0.59,-0.495,
2420,0.495,-0.505,
2421,0.42,-0.52,
2422,0.345,-0.53,
2423,0.25,-0.545,
2424,0.145,-0.57,
2425,0.02,-0.605,
2426,-0.09,-0.625,
2427,-0.23,-0.655,
2428,-0.345,-0.685,
2429,-0.46,-0.745,
2430,-0.6,-0.83,
2431,-0.775,-0.91,
2432,-0.94,-0.97,
2433,-1.115,-1.01,
2434,-1.275,-1.045,
2435,-1.45,-1.095,
2436,-1.61,-1.23,
2437,-1.82,-1.375,
2438,-2.005,-1.53,
2439,-2.14,-1.65,
2440,-2.215,-1.72,
2441,-2.245,-1.79,
2442,-2.27,-1.855,
2443,-2.3,-1.93,
2444,-2.35,-2.01,
2445,-2.4,-2.09,
2446,-2.47,-2.125,
2447,-2.55,-2.215,
2448,-2.625,-2.275,
2449,-2.69,-2.36,
2450,-2.75,-2.415,
2451,-2.795,-2.335,
2452,-2.8,-2.2,
2453,-2.735,-2.04,
2454,-2.625,-1.87,
2455,-2.48,-1.705,
2456,-2.31,-1.535,
2457,-2.13,-1.355,
2458,-1.925,-1.195,
2459,-1.725,-1.05,
2460,-1.61,-0.91,
2461,-1.52,-0.8,
2462,-1.48,-0.675,
2463,-1.4,-0.565,
2464,-1.315,-0.475,
2465,-1.245,-0.415,
2466,-1.185,-0.325,
2467,-1.135,-0.285,
2468,-1.11,-0.215,
2469,-1.075,-0.175,
2470,-1.06,-0.11,
2471,-1.035,-0.09,
2472,-1.0,-0.07,
2473,-0.945,-0.045,
2474,-0.89,-0.025,
2475,-0.825,0.025,
2476,-0.75,0.065,
2477,-0.685,0.095,
2478,-0.61,0.13,
2479,-0.56,0.15,
2480,-0.495,0.165,
2481,-0.41,0.2,
2482,-0.32,0.22,
2483,-0.26,0.245,
2484,-0.195,0.255,
2485,-0.14,0.255,
2486,-0.11,0.26,
2487,-0.04,0.275,
2488,0.005,0.285,
2489,0.04,0.29,
2490,0.06,0.31,
2491,0.07,0.315,
2492,0.08,0.32,
2493,0.1,0.335,
2494,0.14,0.345,
2495,0.165,0.36,
2496,0.195,0.37,
2497,0.19,0.355,
2498,0.2,0.37,
2499,0.215,0.385,
2500,0.245,0.4,
2501,0.28,0.41,
2502,0.305,0.42,
2503,0.31,0.435,
2504,0.325,0.44,
2505,0.355,0.455,
2506,0.39,0.48,
2507,0.44,0.49,
2508,0.455,0.5,
2509,0.475,0.51,
2510,0.49,0.505,
2511,0.515,0.535,
2512,0.555,0.56,
2513,0.595,0.56,
2514,0.615,0.57,
2515,0.635,0.585,
2516,0.665,0.585,
2517,0.685,0.615,
2518,0.715,0.625,
2519,0.755,0.64,
2520,0.775,0.65,
2521,0.795,0.65,
2522,0.81,0.67,
2523,0.82,0.68,
2524,0.855,0.71,
2525,0.875,0.71,
2526,0.885,0.71,
2527,0.88,0.71,
2528,0.895,0.705,
2529,0.905,0.715,
2530,0.915,0.715,
2531,0.92,0.72,
2532,0.925,0.72,
2533,0.91,0.695,
2534,0.9,0.685,
2535,0.88,0.695,
2536,0.88,0.7,
2537,0.87,0.675,
2538,0.84,0.645,
2539,0.815,0.635,
2540,0.79,0.615,
2541,0.77,0.595,
2542,0.745,0.575,
2543,0.73,0.56,
2544,0.7,0.535,
2545,0.66,0.51,
2546,0.605,0.46,
2547,0.565,0.445,
2548,0.545,0.42,
2549,0.51,0.395,
2550,0.47,0.365,
2551,0.42,0.335,
2552,0.365,0.31,
2553,0.325,0.26,
2554,0.285,0.25,
2555,0.245,0.22,
2556,0.21,0.195,
2557,0.155,0.16,
2558,0.095,0.14,
2559,0.055,0.13,
2560,0.025,0.14,
2561,0.0,0.115,
2562,-0.045,0.13,
2563,-0.09,0.12,
2564,-0.11,0.14,
2565,-0.13,0.16,
2566,-0.15,0.165,
2567,-0.15,0.185,
2568,-0.18,0.16,
2569,-0.19,0.155,
2570,-0.205,0.15,
2571,-0.19,0.16,
2572,-0.16,0.18,
2573,-0.125,0.2,
2574,-0.095,0.175,
2575,-0.08,0.155,
2576,-0.07,0.13,
2577,-0.085,0.1,
2578,-0.075,0.075,
2579,-0.055,0.045,
2580,-0.05,0.04,
2581,-0.07,-0.005,
2582,-0.075,-0.005,
2583,-0.105,-0.025,
2584,-0.15,-0.035,
2585,-0.155,-0.04,
2586,-0.205,-0.06,
2587,-0.225,-0.07,
2588,-0.25,-0.08,
2589,-0.24,-0.07,
2590,-0.245,-0.045,
2591,-0.22,-0.035,
2592,-0.235,-0.035,
2593,-0.27,-0.04,
2594,-0.29,-0.035,
2595,-0.315,-0.03,
2596,-0.315,-0.025,
2597,-0.325,-0.03,
2598,-0.36,-0.035,
2599,-0.395,-0.04,
2600,-0.425,-0.03,
2601,-0.46,-0.005,
2602,-0.48,0.015,
2603,-0.505,0.025,
2604,-0.535,0.01,
2605,-0.56,-0.01,
2606,-0.595,-0.025,
2607,-0.605,-0.01,
2608,-0.615,-0.005,
2609,-0.61,0.01,
2610,-0.625,-0.02,
2611,-0.66,-0.025,
2612,-0.67,-0.035,
2613,-0.69,-0.04,
2614,-0.685,-0.015,
2615,-0.685,-0.01,
2616,-0.695,-0.025,
2617,-0.705,-0.035,
2618,-0.715,-0.04,
2619,-0.71,-0.02,
2620,-0.71,-0.005,
2621,-0.695,-0.015,
2622,-0.695,-0.015,
2623,-0.705,-0.02,
2624,-0.72,-0.025,
2625,-0.72,-0.035,
2626,-0.695,-0.01,
2627,-0.705,-0.01,
2628,-0.715,-0.025,
2629,-0.715,-0.025,
2630,-0.72,-0.04,
2631,-0.725,-0.03,
2632,-0.72,-0.02,
2633,-0.72,-0.02,
2634,-0.725,-0.035,
2635,-0.74,-0.055,
2636,-0.755,-0.055,
2637,-0.755,-0.05,
2638,-0.74,-0.035,
2639,-0.74,-0.03,
2640,-0.74,-0.035,
2641,-0.745,-0.045,
2642,-0.755,-0.06,
2643,-0.755,-0.055,
2644,-0.75,-0.04,
2645,-0.745,-0.04,
2646,-0.755,-0.04,
2647,-0.76,-0.055,
2648,-0.775,-0.06,
2649,-0.77,-0.04,
2650,-0.765,-0.03,
2651,-0.75,-0.035,
2652,-0.745,-0.04,
2653,-0.76,-0.04,
2654,-0.78,-0.065,
2655,-0.765,-0.04,
2656,-0.77,-0.035,
2657,-0.75,-0.03,
2658,-0.755,-0.035,
2659,-0.765,-0.045,
2660,-0.765,-0.05,
2661,-0.765,-0.03,
2662,-0.755,-0.015,
2663,-0.76,-0.025,
2664,-0.765,-0.02,
2665,-0.775,-0.04,
2666,-0.77,-0.035,
2667,-0.77,-0.03,
2668,-0.76,-0.02,
2669,-0.755,-0.03,
2670,-0.745,-0.01,
2671,-0.745,-0.025,
2672,-0.755,-0.025,
2673,-0.745,-0.015,
2674,-0.735,0.005,
2675,-0.725,-0.01,
2676,-0.725,-0.005,
2677,-0.735,-0.02,
2678,-0.75,-0.01,
2679,-0.74,-0.01,
2680,-0.73,0.005,
2681,-0.72,-0.005,
2682,-0.715,0.005,
2683,-0.72,-0.005,
2684,-0.72,-0.02,
2685,-0.72,-0.015,
2686,-0.705,-0.005,
2687,-0.695,-0.005,
2688,-0.695,-0.02,
2689,-0.71,-0.025,
2690,-0.715,-0.03,
2691,-0.715,-0.025,
2692,-0.71,-0.005,
2693,-0.695,-0.01,
2694,-0.685,-0.015,
2695,-0.685,-0.03,
2696,-0.69,-0.03,
2697,-0.68,-0.03,
2698,-0.67,-0.02,
2699,-0.66,-0.035,
2700,-0.66,-0.03,
2701,-0.67,-0.045,
2702,-0.665,-0.055,
2703,-0.645,-0.055,
2704,-0.63,-0.05,
2705,-0.62,-0.06,
2706,-0.625,-0.07,
2707,-0.625,-0.095,
2708,-0.63,-0.12,
2709,-0.605,-0.185,
2710,-0.565,-0.4,
2711,-0.515,-0.77,
2712,-0.42,-0.98,
2713,-0.27,-0.87,
2714,0.09,-0.615,
2715,0.67,-0.455,
2716,1.22,-0.425,
2717,1.49,-0.42,
2718,1.4,-0.41,
2719,1.225,-0.385,
2720,1.105,-0.395,
2721,1.04,-0.39,/
2722,1.01,-0.39,
2723,0.93,-0.4,
2724,0.835,-0.42,
2725,0.73,-0.445,
2726,0.615,-0.465,
2727,0.51,-0.485,
2728,0.435,-0.5,
2729,0.345,-0.52,
2730,0.23,-0.53,
2731,0.105,-0.555,
2732,-0.025,-0.58,
2733,-0.155,-0.585,
2734,-0.305,-0.62,
2735,-0.435,-0.66,
2736,-0.595,-0.715,
2737,-0.77,-0.795,
2738,-0.96,-0.87,
2739,-1.14,-0.905,
2740,-1.305,-0.94,
2741,-1.48,-0.97,
2742,-1.65,-1.015,
2743,-1.845,-1.125,
2744,-2.01,-1.235,
2745,-2.165,-1.35,
2746,-2.29,-1.47,
2747,-2.345,-1.565,
2748,-2.39,-1.63,
2749,-2.435,-1.695,
2750,-2.485,-1.765,
2751,-2.52,-1.82,
2752,-2.555,-1.895,
2753,-2.595,-1.96,
2754,-2.67,-2.035,
2755,-2.725,-2.115,
2756,-2.78,-2.22,
2757,-2.835,-2.315,
2758,-2.865,-2.325,
2759,-2.88,-2.245,
2760,-2.885,-2.105,
2761,-2.84,-1.98,
2762,-2.74,-1.845,
2763,-2.6,-1.665,
2764,-2.42,-1.515,
2765,-2.25,-1.375,
2766,-2.075,-1.255,
2767,-1.895,-1.135,
2768,-1.745,-0.985,
2769,-1.64,-0.86,
2770,-1.555,-0.725,
2771,-1.475,-0.62,
2772,-1.39,-0.52,
2773,-1.32,-0.43,
2774,-1.245,-0.35,
2775,-1.17,-0.27,
2776,-1.105,-0.195,
2777,-1.08,-0.16,
2778,-1.06,-0.12,
2779,-1.05,-0.085,
2780,-1.03,-0.05,
2781,-0.98,-0.015,
2782,-0.9,0.035,
2783,-0.83,0.055,
2784,-0.795,0.09,
2785,-0.76,0.12,
2786,-0.72,0.14,
2787,-0.65,0.18,
2788,-0.585,0.215,
2789,-0.51,0.24,
2790,-0.435,0.255,
2791,-0.365,0.27,
2792,-0.305,0.275,
2793,-0.24,0.29,
2794,-0.185,0.3,
2795,-0.115,0.32,
2796,-0.05,0.325,
2797,-0.015,0.325,
2798,0.03,0.335,
2799,0.045,0.34,
2800,0.07,0.365,
2801,0.09,0.38,
2802,0.105,0.385,
2803,0.115,0.38,
2804,0.115,0.385,
2805,0.13,0.4,
2806,0.15,0.425,
2807,0.185,0.42,
2808,0.195,0.43,
2809,0.2,0.415,
2810,0.22,0.43,
2811,0.24,0.445,
2812,0.27,0.465,
2813,0.3,0.465,
2814,0.32,0.485,
2815,0.34,0.485,
2816,0.355,0.5,
2817,0.38,0.51,
2818,0.395,0.53,
2819,0.44,0.565,
2820,0.475,0.55,
2821,0.49,0.57,
2822,0.52,0.575,
2823,0.54,0.6,
2824,0.57,0.63,
2825,0.605,0.665,
2826,0.65,0.7,
2827,0.68,0.725,
2828,0.705,0.755,
2829,0.75,0.8,
2830,0.79,0.825,
2831,0.83,0.84,
2832,0.895,0.865,
2833,0.945,0.86,
2834,0.985,0.87,
2835,1.04,0.89,
2836,1.09,0.905,
2837,1.145,0.92,
2838,1.17,0.9,
2839,1.175,0.88,
2840,1.19,0.855,
2841,1.19,0.825,
2842,1.2,0.815,
2843,1.23,0.8,
2844,1.255,0.775,
2845,1.255,0.745,
2846,1.23,0.705,
2847,1.19,0.685,
2848,1.17,0.695,
2849,1.14,0.665,
2850,1.115,0.635,
2851,1.07,0.61,
2852,1.035,0.595,
2853,1.015,0.585,
2854,0.99,0.575,
2855,0.96,0.555,
2856,0.925,0.52,
2857,0.875,0.48,
2858,0.81,0.455,
2859,0.76,0.425,
2860,0.715,0.415,
2861,0.665,0.38,
2862,0.61,0.355,
2863,0.545,0.32,
2864,0.47,0.3,
2865,0.415,0.295,
2866,0.36,0.28,
2867,0.3,0.245,
2868,0.225,0.205,
2869,0.15,0.18,
2870,0.085,0.135,
2871,0.02,0.125,
2872,-0.035,0.11,
2873,-0.075,0.09,
2874,-0.13,0.065,
2875,-0.195,0.04,
2876,-0.26,0.025,
2877,-0.31,0.025,
2878,-0.34,0.025,
2879,-0.38,0.02,
2880,-0.415,0.005,
2881,-0.46,-0.005,
2882,-0.485,-0.01,
2883,-0.51,-0.015,
2884,-0.53,-0.01,
2885,-0.535,-0.015,
2886,-0.56,-0.025,
2887,-0.565,-0.025,
2888,-0.595,-0.025,
2889,-0.615,-0.02,
2890,-0.63,-0.015,
2891,-0.645,-0.01,
2892,-0.675,-0.025,
2893,-0.68,-0.03,
2894,-0.71,-0.04,
2895,-0.7,-0.03,
2896,-0.69,-0.015,
2897,-0.695,-0.01,
2898,-0.715,-0.02,
2899,-0.715,-0.03,
2900,-0.725,-0.03,
2901,-0.73,-0.03,
2902,-0.74,-0.005,
2903,-0.735,-0.01,
2904,-0.74,-0.005,
2905,-0.74,-0.025,
2906,-0.755,-0.03,
2907,-0.75,-0.005,
2908,-0.755,0.01,
2909,-0.74,-0.01,
2910,-0.76,0.005,
2911,-0.785,-0.005,
2912,-0.8,0.0,
2913,-0.795,0.0,
2914,-0.78,0.02,
2915,-0.775,0.02,
2916,-0.765,0.015,
2917,-0.77,0.01,
2918,-0.78,0.01,
2919,-0.76,0.03,
2920,-0.755,0.035,
2921,-0.76,0.03,
2922,-0.765,0.035,
2923,-0.78,0.03,
2924,-0.795,0.025,
2925,-0.79,0.04,
2926,-0.785,0.055,
2927,-0.775,0.055,
2928,-0.76,0.045,
2929,-0.78,0.025,
2930,-0.78,0.03,
2931,-0.77,0.05,
2932,-0.775,0.055,
2933,-0.75,0.05,
2934,-0.745,0.05,
2935,-0.745,0.035,
2936,-0.755,0.045,
2937,-0.755,0.04,
2938,-0.745,0.045,
2939,-0.74,0.055,
2940,-0.74,0.055,
2941,-0.74,0.05,
2942,-0.74,0.04,
2943,-0.735,0.045,
2944,-0.735,0.03,
2945,-0.74,0.04,
2946,-0.75,0.04,
2947,-0.765,0.035,
2948,-0.77,0.03,
2949,-0.76,0.04,
2950,-0.74,0.055,
2951,-0.74,0.05,
2952,-0.725,0.04,
2953,-0.745,0.03,
2954,-0.745,0.035,
2955,-0.745,0.045,
2956,-0.73,0.055,
2957,-0.72,0.045,
2958,-0.705,0.035,
2959,-0.73,0.025,
2960,-0.735,0.015,
2961,-0.74,0.03,
2962,-0.725,0.04,
2963,-0.725,0.045,
2964,-0.705,0.05,
2965,-0.7,0.02,
2966,-0.71,0.015,
2967,-0.715,0.02,
2968,-0.695,0.03,
2969,-0.695,0.03,
2970,-0.69,0.02,
2971,-0.71,0.025,
2972,-0.715,0.015,
2973,-0.71,0.015,
2974,-0.7,0.03,
2975,-0.695,0.03,
2976,-0.69,0.005,
2977,-0.685,0.0,
2978,-0.685,0.0,
2979,-0.685,0.005,
2980,-0.68,0.015,
2981,-0.67,0.005,
2982,-0.68,0.005,
2983,-0.685,-0.015,
2984,-0.68,-0.015,
2985,-0.685,0.0,
2986,-0.69,0.005,
2987,-0.69,0.01,
2988,-0.675,0.0,
2989,-0.67,-0.01,
2990,-0.665,0.0,
2991,-0.675,0.005,
2992,-0.67,0.005,
2993,-0.635,0.005,
2994,-0.64,-0.005,
2995,-0.655,-0.02,
2996,-0.665,-0.02,
2997,-0.645,0.0,
2998,-0.63,0.01,
2999,-0.63,-0.015,
3000,-0.62,-0.015,
3001,-0.63,-0.03,
3002,-0.64,-0.025,
3003,-0.655,-0.015,
3004,-0.65,-0.005,
3005,-0.64,-0.01,
3006,-0.63,-0.03,
3007,-0.63,-0.04,
3008,-0.645,-0.04,
3009,-0.64,-0.04,
3010,-0.63,-0.03,
3011,-0.615,-0.045,
3012,-0.61,-0.045,
3013,-0.61,-0.065,
3014,-0.635,-0.06,
3015,-0.62,-0.06,
3016,-0.6,-0.065,
3017,-0.59,-0.065,
3018,-0.585,-0.085,
3019,-0.58,-0.11,
3020,-0.58,-0.145,
3021,-0.555,-0.24,
3022,-0.525,-0.5,
3023,-0.475,-0.89,
3024,-0.41,-1.04,
3025,-0.27,-0.875,
3026,0.04,-0.625,
3027,0.59,-0.465,
3028,1.145,-0.44,
3029,1.415,-0.43,
3030,1.36,-0.42,
3031,1.18,-0.405,
3032,1.045,-0.395,
3033,0.995,-0.395,/
3034,0.94,-0.39,
3035,0.86,-0.405,
3036,0.77,-0.44,
3037,0.665,-0.46,
3038,0.555,-0.49,
3039,0.45,-0.495,
3040,0.34,-0.52,
3041,0.235,-0.525,
3042,0.12,-0.55,
3043,0.015,-0.58,
3044,-0.125,-0.605,
3045,-0.28,-0.61,
3046,-0.425,-0.615,
3047,-0.59,-0.645,
3048,-0.785,-0.69,
3049,-0.99,-0.76,
3050,-1.205,-0.815,
3051,-1.42,-0.86,
3052,-1.62,-0.885,
3053,-1.825,-0.935,
3054,-2.05,-0.99,
3055,-2.225,-1.045,
3056,-2.385,-1.13,
3057,-2.505,-1.22,
3058,-2.6,-1.345,
3059,-2.67,-1.455,
3060,-2.72,-1.545,
3061,-2.755,-1.605,
3062,-2.795,-1.675,
3063,-2.805,-1.74,
3064,-2.83,-1.81,
3065,-2.885,-1.9,
3066,-2.94,-1.98,
3067,-3.005,-2.085,
3068,-3.06,-2.18,
3069,-3.075,-2.255,
3070,-3.095,-2.26,
3071,-3.105,-2.175,
3072,-3.085,-2.065,
3073,-3.015,-1.915,
3074,-2.875,-1.76,
3075,-2.665,-1.58,
3076,-2.44,-1.42,
3077,-2.225,-1.3,
3078,-2.015,-1.165,
3079,-1.85,-1.06,
3080,-1.725,-0.92,
3081,-1.63,-0.81,
3082,-1.55,-0.68,
3083,-1.465,-0.585,
3084,-1.38,-0.505,
3085,-1.325,-0.46,
3086,-1.26,-0.385,
3087,-1.17,-0.3,
3088,-1.105,-0.225,
3089,-1.055,-0.165,
3090,-1.025,-0.09,
3091,-0.98,-0.05,
3092,-0.94,0.0,
3093,-0.875,0.045,
3094,-0.785,0.09,
3095,-0.685,0.14,
3096,-0.605,0.165,
3097,-0.535,0.185,
3098,-0.47,0.22,
3099,-0.38,0.275,
3100,-0.28,0.32,
3101,-0.2,0.35,
3102,-0.095,0.37,
3103,-0.015,0.365,
3104,0.065,0.35,
3105,0.155,0.34,
3106,0.225,0.315,
3107,0.3,0.295,
3108,0.385,0.275,
3109,0.46,0.255,
3110,0.53,0.245,
3111,0.565,0.245,
3112,0.565,0.24,
3113,0.575,0.23,
3114,0.545,0.225,
3115,0.545,0.215,
3116,0.53,0.21,
3117,0.555,0.23,
3118,0.59,0.245,
3119,0.62,0.25,
3120,0.65,0.26,
3121,0.655,0.27,
3122,0.64,0.25,
3123,0.65,0.285,
3124,0.665,0.3,
3125,0.695,0.305,
3126,0.68,0.315,
3127,0.67,0.32,
3128,0.675,0.33,
3129,0.68,0.355,
3130,0.705,0.385,
3131,0.72,0.405,
3132,0.73,0.415,
3133,0.725,0.41,
3134,0.725,0.415,
3135,0.755,0.425,
3136,0.78,0.44,
3137,0.795,0.445,
3138,0.81,0.445,
3139,0.815,0.445,
3140,0.815,0.455,
3141,0.81,0.475,
3142,0.855,0.49,
3143,0.875,0.51,
3144,0.915,0.5,
3145,0.935,0.505,
3146,0.94,0.51,
3147,0.96,0.525,
3148,0.985,0.55,
3149,1.01,0.545,
3150,1.03,0.555,
3151,1.03,0.545,
3152,1.025,0.54,
3153,1.045,0.575,
3154,1.055,0.58,
3155,1.06,0.58,
3156,1.06,0.575,
3157,1.035,0.56,
3158,1.015,0.56,
3159,1.015,0.56,
3160,1.005,0.57,
3161,0.99,0.555,
3162,0.955,0.535,
3163,0.92,0.52,
3164,0.885,0.51,
3165,0.87,0.5,
3166,0.865,0.495,
3167,0.845,0.47,
3168,0.815,0.44,
3169,0.77,0.41,
3170,0.715,0.385,
3171,0.67,0.37,
3172,0.645,0.365,
3173,0.6,0.335,
3174,0.555,0.31,
3175,0.495,0.265,
3176,0.445,0.235,
3177,0.415,0.22,
3178,0.37,0.21,
3179,0.33,0.18,
3180,0.285,0.15,
3181,0.225,0.12,
3182,0.16,0.095,
3183,0.125,0.085,
3184,0.09,0.06,
3185,0.04,0.035,
3186,-0.01,0.02,
3187,-0.06,0.0,
3188,-0.115,-0.025,
3189,-0.155,-0.03,
3190,-0.195,-0.025,
3191,-0.215,-0.035,
3192,-0.28,-0.04,
3193,-0.305,-0.055,
3194,-0.355,-0.065,
3195,-0.36,-0.06,
3196,-0.405,-0.06,
3197,-0.44,-0.065,
3198,-0.49,-0.065,
3199,-0.525,-0.075,
3200,-0.56,-0.095,
3201,-0.57,-0.07,
3202,-0.555,-0.07,
3203,-0.555,-0.065,
3204,-0.575,-0.065,
3205,-0.615,-0.075,
3206,-0.625,-0.075,
3207,-0.63,-0.07,
3208,-0.63,-0.05,
3209,-0.635,-0.05,
3210,-0.65,-0.05,
3211,-0.66,-0.055,
3212,-0.665,-0.05,
3213,-0.67,-0.035,
3214,-0.665,-0.03,
3215,-0.66,-0.04,
3216,-0.68,-0.03,
3217,-0.7,-0.045,
3218,-0.71,-0.025,
3219,-0.71,-0.02,
3220,-0.69,-0.015,
3221,-0.685,-0.005,
3222,-0.68,-0.01,
3223,-0.69,-0.015,
3224,-0.69,-0.005,
3225,-0.68,-0.005,
3226,-0.665,0.005,
3227,-0.66,-0.005,
3228,-0.67,0.0,
3229,-0.68,-0.01,
3230,-0.71,-0.005,
3231,-0.72,0.005,
3232,-0.705,0.02,
3233,-0.7,0.02,
3234,-0.71,0.025,
3235,-0.71,0.01,
3236,-0.71,0.005,
3237,-0.685,0.02,
3238,-0.67,0.02,
3239,-0.665,0.025,
3240,-0.66,0.015,
3241,-0.675,0.01,
3242,-0.69,0.015,
3243,-0.675,0.01,
3244,-0.655,0.02,
3245,-0.645,0.02,
3246,-0.635,0.02,
3247,-0.65,0.005,
3248,-0.655,0.005,
3249,-0.65,0.005,
3250,-0.64,0.02,
3251,-0.615,0.015,
3252,-0.615,0.0,
3253,-0.61,-0.005,
3254,-0.63,-0.02,
3255,-0.64,-0.005,
3256,-0.64,0.0,
3257,-0.635,-0.01,
3258,-0.625,0.0,
3259,-0.625,-0.02,
3260,-0.625,-0.025,
3261,-0.63,-0.01,
3262,-0.625,-0.015,
3263,-0.615,-0.02,
3264,-0.635,-0.02,
3265,-0.64,-0.03,
3266,-0.66,-0.035,
3267,-0.65,-0.025,
3268,-0.625,-0.01,
3269,-0.625,-0.03,
3270,-0.625,-0.03,
3271,-0.64,-0.035,
3272,-0.65,-0.035,
3273,-0.65,-0.035,
3274,-0.635,-0.03,
3275,-0.62,-0.025,
3276,-0.625,-0.035,
3277,-0.64,-0.045,
3278,-0.65,-0.05,
3279,-0.64,-0.035,
3280,-0.63,-0.03,
3281,-0.63,-0.03,
3282,-0.64,-0.035,
3283,-0.645,-0.04,
3284,-0.64,-0.05,
3285,-0.64,-0.045,
3286,-0.62,-0.025,
3287,-0.6,-0.03,
3288,-0.605,-0.05,
3289,-0.61,-0.04,
3290,-0.62,-0.04,
3291,-0.625,-0.04,
3292,-0.62,-0.025,
3293,-0.62,-0.03,
3294,-0.62,-0.025,
3295,-0.615,-0.045,
3296,-0.63,-0.05,
3297,-0.635,-0.05,
3298,-0.61,-0.035,
3299,-0.595,-0.035,
3300,-0.585,-0.035,
3301,-0.59,-0.05,
3302,-0.595,-0.05,
3303,-0.6,-0.035,
3304,-0.61,-0.025,
3305,-0.615,-0.03,
3306,-0.61,-0.03,
3307,-0.605,-0.04,
3308,-0.6,-0.055,
3309,-0.59,-0.05,
3310,-0.595,-0.05,
3311,-0.595,-0.045,
3312,-0.605,-0.035,
3313,-0.62,-0.05,
3314,-0.61,-0.055,
3315,-0.595,-0.045,
3316,-0.58,-0.03,
3317,-0.575,-0.05,
3318,-0.57,-0.05,
3319,-0.58,-0.07,
3320,-0.59,-0.07,
3321,-0.585,-0.055,
3322,-0.575,-0.04,
3323,-0.56,-0.055,
3324,-0.57,-0.045,
3325,-0.58,-0.07,
3326,-0.585,-0.075,
3327,-0.58,-0.075,
3328,-0.575,-0.065,
3329,-0.565,-0.065,
3330,-0.56,-0.07,
3331,-0.565,-0.09,
3332,-0.565,-0.105,
3333,-0.53,-0.11,
3334,-0.515,-0.14,
3335,-0.49,-0.21,
3336,-0.465,-0.455,
3337,-0.445,-0.825,
3338,-0.37,-1.005,
3339,-0.2,-0.83,
3340,0.14,-0.565,
3341,0.69,-0.42,
3342,1.235,-0.395,
3343,1.49,-0.39,
3344,1.39,-0.39,
3345,1.205,-0.36,
3346,1.07,-0.345,
3347,1.03,-0.355,/
3348,0.975,-0.37,
3349,0.895,-0.4,
3350,0.79,-0.405,
3351,0.685,-0.41,
3352,0.59,-0.425,
3353,0.505,-0.435,
3354,0.42,-0.445,
3355,0.315,-0.445,
3356,0.19,-0.435,
3357,0.06,-0.415,
3358,-0.095,-0.405,
3359,-0.23,-0.41,
3360,-0.385,-0.44,
3361,-0.54,-0.5,
3362,-0.71,-0.56,
3363,-0.9,-0.59,
3364,-1.075,-0.605,
3365,-1.245,-0.62,
3366,-1.415,-0.67,
3367,-1.585,-0.76,
3368,-1.75,-0.885,
3369,-1.93,-1.055,
3370,-2.055,-1.215,
3371,-2.155,-1.335,
3372,-2.19,-1.425,
3373,-2.22,-1.505,
3374,-2.245,-1.585,
3375,-2.285,-1.67,
3376,-2.325,-1.735,
3377,-2.42,-1.835,
3378,-2.525,-1.945,
3379,-2.615,-2.06,
3380,-2.695,-2.165,
3381,-2.755,-2.255,
3382,-2.815,-2.255,
3383,-2.865,-2.165,
3384,-2.84,-2.045,
3385,-2.77,-1.93,
3386,-2.615,-1.77,
3387,-2.405,-1.595,
3388,-2.165,-1.45,
3389,-1.955,-1.32,
3390,-1.78,-1.19,
3391,-1.625,-1.08,
3392,-1.55,-0.965,
3393,-1.475,-0.84,
3394,-1.42,-0.705,
3395,-1.355,-0.61,
3396,-1.285,-0.55,
3397,-1.25,-0.485,
3398,-1.235,-0.415,
3399,-1.195,-0.345,
3400,-1.165,-0.27,
3401,-1.155,-0.225,
3402,-1.14,-0.195,
3403,-1.135,-0.175,
3404,-1.11,-0.155,
3405,-1.065,-0.105,
3406,-1.01,-0.065,
3407,-0.97,-0.03,
3408,-0.93,-0.015,
3409,-0.885,0.01,
3410,-0.805,0.055,
3411,-0.7,0.085,
3412,-0.62,0.125,
3413,-0.54,0.135,
3414,-0.48,0.155,
3415,-0.425,0.155,
3416,-0.39,0.19,
3417,-0.34,0.205,
3418,-0.295,0.23,
3419,-0.23,0.235,
3420,-0.175,0.23,
3421,-0.125,0.235,
3422,-0.105,0.235,
3423,-0.085,0.265,
3424,-0.07,0.285,
3425,-0.045,0.295,
3426,-0.03,0.29,
3427,-0.01,0.29,
3428,0.0,0.295,
3429,0.02,0.32,
3430,0.045,0.335,
3431,0.085,0.345,
3432,0.105,0.36,
3433,0.1,0.37,
3434,0.11,0.355,
3435,0.11,0.385,
3436,0.13,0.4,
3437,0.155,0.415,
3438,0.175,0.42,
3439,0.19,0.435,
3440,0.21,0.44,
3441,0.24,0.475,
3442,0.27,0.485,
3443,0.3,0.5,
3444,0.31,0.51,
3445,0.33,0.51,
3446,0.345,0.515,
3447,0.38,0.545,
3448,0.42,0.575,
3449,0.45,0.59,
3450,0.475,0.595,
3451,0.49,0.605,
3452,0.52,0.62,
3453,0.555,0.645,
3454,0.6,0.66,
3455,0.645,0.675,
3456,0.67,0.695,
3457,0.68,0.69,
3458,0.7,0.695,
3459,0.725,0.715,
3460,0.74,0.735,
3461,0.78,0.74,
3462,0.78,0.745,
3463,0.795,0.74,
3464,0.79,0.745,
3465,0.8,0.745,
3466,0.825,0.76,
3467,0.835,0.755,
3468,0.84,0.755,
3469,0.84,0.74,
3470,0.83,0.73,
3471,0.85,0.73,
3472,0.84,0.72,
3473,0.83,0.715,
3474,0.82,0.69,
3475,0.795,0.665,
3476,0.77,0.645,
3477,0.745,0.64,
3478,0.75,0.635,
3479,0.73,0.605,
3480,0.71,0.57,
3481,0.675,0.545,
3482,0.645,0.52,
3483,0.605,0.49,
3484,0.58,0.47,
3485,0.535,0.445,
3486,0.475,0.41,
3487,0.455,0.375,
3488,0.405,0.345,
3489,0.355,0.325,
3490,0.315,0.315,
3491,0.295,0.285,
3492,0.255,0.25,
3493,0.215,0.22,
3494,0.155,0.19,
3495,0.12,0.175,
3496,0.075,0.165,
3497,0.045,0.145,
3498,-0.005,0.125,
3499,-0.035,0.1,
3500,-0.11,0.075,
3501,-0.145,0.08,
3502,-0.16,0.065,
3503,-0.19,0.065,
3504,-0.225,0.04,
3505,-0.275,0.035,
3506,-0.305,0.025,
3507,-0.325,0.015,
3508,-0.335,0.035,
3509,-0.365,0.025,
3510,-0.37,0.025,
3511,-0.4,0.015,
3512,-0.43,0.02,
3513,-0.45,0.03,
3514,-0.445,0.015,
3515,-0.455,0.015,
3516,-0.47,0.015,
3517,-0.49,0.005,
3518,-0.51,0.0,
3519,-0.515,0.01,
3520,-0.52,0.03,
3521,-0.52,0.02,
3522,-0.52,0.02,
3523,-0.515,0.01,
3524,-0.53,0.01,
3525,-0.545,0.025,
3526,-0.53,0.035,
3527,-0.535,0.02,
3528,-0.535,0.02,
3529,-0.54,0.015,
3530,-0.565,0.02,
3531,-0.565,0.025,
3532,-0.56,0.03,
3533,-0.57,0.03,
3534,-0.57,0.035,
3535,-0.585,0.02,
3536,-0.595,0.03,
3537,-0.585,0.025,
3538,-0.565,0.055,
3539,-0.555,0.06,
3540,-0.555,0.055,
3541,-0.585,0.045,
3542,-0.585,0.03,
3543,-0.585,0.055,
3544,-0.58,0.05,
3545,-0.58,0.05,
3546,-0.575,0.06,
3547,-0.585,0.06,
3548,-0.585,0.045,
3549,-0.57,0.055,
3550,-0.55,0.06,
3551,-0.535,0.06,
3552,-0.53,0.05,
3553,-0.54,0.045,
3554,-0.56,0.05,
3555,-0.56,0.055,
3556,-0.54,0.07,
3557,-0.52,0.07,
3558,-0.525,0.055,
3559,-0.53,0.05,
3560,-0.55,0.06,
3561,-0.545,0.05,
3562,-0.535,0.065,
3563,-0.53,0.055,
3564,-0.53,0.065,
3565,-0.53,0.04,
3566,-0.53,0.03,
3567,-0.52,0.06,
3568,-0.525,0.06,
3569,-0.52,0.06,
3570,-0.525,0.04,
3571,-0.53,0.04,
3572,-0.53,0.03,
3573,-0.53,0.04,
3574,-0.515,0.05,
3575,-0.5,0.05,
3576,-0.51,0.045,
3577,-0.525,0.025,
3578,-0.555,0.015,
3579,-0.55,0.03,
3580,-0.54,0.05,
3581,-0.53,0.035,
3582,-0.535,0.035,
3583,-0.555,0.02,
3584,-0.555,0.015,
3585,-0.56,0.025,
3586,-0.56,0.035,
3587,-0.53,0.03,
3588,-0.53,0.025,
3589,-0.545,0.015,
3590,-0.57,0.025,
3591,-0.555,0.025,
3592,-0.545,0.035,
3593,-0.55,0.025,
3594,-0.54,0.015,
3595,-0.56,0.01,
3596,-0.58,0.015,
3597,-0.58,0.01,
3598,-0.565,0.02,
3599,-0.555,0.02,
3600,-0.55,0.015,
3601,-0.56,0.005,
3602,-0.575,0.0,
3603,-0.575,0.015,
3604,-0.57,0.025,
3605,-0.565,0.02,
3606,-0.545,0.015,
3607,-0.57,0.015,
3608,-0.575,0.015,
3609,-0.58,0.02,
3610,-0.56,0.02,
3611,-0.55,0.015,
3612,-0.55,0.015,
3613,-0.555,0.01,
3614,-0.57,0.005,
3615,-0.57,0.015,
3616,-0.555,0.03,
3617,-0.54,0.025,
3618,-0.545,0.03,
3619,-0.555,0.035,
3620,-0.545,0.05,
3621,-0.535,0.09,
3622,-0.52,0.135,
3623,-0.515,0.145,
3624,-0.535,0.165,
3625,-0.52,0.165,
3626,-0.51,0.185,
3627,-0.48,0.205,
3628,-0.44,0.225,
3629,-0.415,0.24,
3630,-0.385,0.255,
3631,-0.335,0.27,
3632,-0.31,0.26,
3633,-0.275,0.24,
3634,-0.23,0.205,
3635,-0.205,0.15,
3636,-0.21,0.105,
3637,-0.225,0.06,
3638,-0.22,0.035,
3639,-0.17,0.03,
3640,-0.125,0.03,
3641,-0.115,-0.01,
3642,-0.14,-0.025,
3643,-0.17,-0.035,
3644,-0.21,-0.05,
3645,-0.22,-0.07,
3646,-0.225,-0.08,
3647,-0.225,-0.09,
3648,-0.21,-0.12,
3649,-0.2,-0.265,
3650,-0.185,-0.565,
3651,-0.15,-0.875,
3652,-0.1,-0.86,
3653,0.07,-0.62,
3654,0.435,-0.42,
3655,0.955,-0.365,
3656,1.39,-0.375,
3657,1.51,-0.34,
3658,1.4,-0.325,
3659,1.245,-0.295,
3660,1.14,-0.285,
3661,1.07,-0.305,/
3662,0.985,-0.325,
3663,0.9,-0.34,
3664,0.805,-0.365,
3665,0.7,-0.395,
3666,0.575,-0.41,
3667,0.46,-0.45,
3668,0.34,-0.465,
3669,0.235,-0.48,
3670,0.135,-0.5,
3671,0.03,-0.52,
3672,-0.1,-0.545,
3673,-0.27,-0.575,
3674,-0.45,-0.61,
3675,-0.615,-0.64,
3676,-0.805,-0.675,
3677,-0.975,-0.75,
3678,-1.16,-0.81,
3679,-1.36,-0.865,
3680,-1.575,-0.9,
3681,-1.74,-0.925,
3682,-1.9,-0.98,
3683,-2.05,-1.065,
3684,-2.205,-1.165,
3685,-2.3,-1.315,
3686,-2.385,-1.44,
3687,-2.445,-1.545,
3688,-2.485,-1.62,
3689,-2.505,-1.68,
3690,-2.52,-1.755,
3691,-2.545,-1.845,
3692,-2.595,-1.92,
3693,-2.65,-1.98,
3694,-2.71,-2.025,
3695,-2.75,-2.11,
3696,-2.805,-2.185,
3697,-2.885,-2.25,
3698,-2.95,-2.29,
3699,-3.0,-2.25,
3700,-3.015,-2.13,
3701,-2.97,-1.985,
3702,-2.865,-1.855,
3703,-2.69,-1.715,
3704,-2.495,-1.57,
3705,-2.265,-1.405,
3706,-2.06,-1.275,
3707,-1.925,-1.155,
3708,-1.79,-1.04,
3709,-1.66,-0.945,
3710,-1.58,-0.83,
3711,-1.505,-0.71,
3712,-1.435,-0.625,
3713,-1.405,-0.565,
3714,-1.365,-0.485,
3715,-1.33,-0.415,
3716,-1.31,-0.355,
3717,-1.275,-0.295,
3718,-1.25,-0.245,
3719,-1.24,-0.185,
3720,-1.215,-0.14,
3721,-1.19,-0.09,
3722,-1.13,-0.06,
3723,-1.06,-0.01,
3724,-0.975,0.04,
3725,-0.905,0.065,
3726,-0.85,0.11,
3727,-0.815,0.145,
3728,-0.755,0.16,
3729,-0.695,0.205,
3730,-0.615,0.245,
3731,-0.53,0.265,
3732,-0.45,0.29,
3733,-0.385,0.3,
3734,-0.33,0.325,
3735,-0.26,0.325,
3736,-0.195,0.335,
3737,-0.125,0.35,
3738,-0.08,0.34,
3739,-0.045,0.365,
3740,-0.035,0.37,
3741,-0.02,0.38,
3742,0.015,0.41,
3743,0.035,0.405,
3744,0.065,0.405,
3745,0.08,0.415,
3746,0.08,0.425,
3747,0.11,0.445,
3748,0.145,0.46,
3749,0.175,0.475,
3750,0.205,0.475,
3751,0.225,0.485,
3752,0.23,0.5,
3753,0.265,0.515,
3754,0.3,0.54,
3755,0.35,0.545,
3756,0.375,0.555,
3757,0.405,0.55,
3758,0.41,0.56,
3759,0.435,0.575,
3760,0.47,0.59,
3761,0.51,0.605,
3762,0.535,0.615,
3763,0.56,0.62,
3764,0.575,0.625,
3765,0.61,0.645,
3766,0.635,0.665,
3767,0.695,0.68,
3768,0.735,0.685,
3769,0.765,0.69,
3770,0.78,0.7,
3771,0.79,0.72,
3772,0.84,0.74,
3773,0.865,0.745,
3774,0.9,0.76,
3775,0.935,0.75,
3776,0.945,0.765,
3777,0.95,0.77,
3778,0.975,0.79,
3779,0.995,0.78,
3780,1.01,0.78,
3781,1.01,0.77,
3782,1.025,0.775,
3783,1.035,0.795,
3784,1.04,0.795,
3785,1.03,0.785,
3786,1.03,0.79,
3787,1.01,0.76,
3788,0.99,0.75,
3789,0.985,0.76,
3790,0.985,0.745,
3791,0.97,0.73,
3792,0.945,0.71,
3793,0.9,0.68,
3794,0.87,0.66,
3795,0.84,0.65,
3796,0.81,0.615,
3797,0.765,0.61,
3798,0.74,0.565,
3799,0.685,0.535,
3800,0.65,0.5,
3801,0.63,0.48,
3802,0.61,0.46,
3803,0.565,0.42,
3804,0.505,0.39,
3805,0.43,0.36,
3806,0.37,0.32,
3807,0.33,0.305,
3808,0.315,0.29,
3809,0.295,0.27,
3810,0.24,0.245,
3811,0.17,0.22,
3812,0.125,0.2,
3813,0.07,0.17,
3814,0.04,0.155,
3815,0.01,0.135,
3816,-0.03,0.12,
3817,-0.075,0.105,
3818,-0.12,0.1,
3819,-0.16,0.09,
3820,-0.19,0.09,
3821,-0.215,0.09,
3822,-0.235,0.09,
3823,-0.275,0.08,
3824,-0.315,0.07,
3825,-0.325,0.07,
3826,-0.35,0.075,
3827,-0.37,0.05,
3828,-0.39,0.05,
3829,-0.415,0.035,
3830,-0.435,0.035,
3831,-0.45,0.05,
3832,-0.465,0.06,
3833,-0.49,0.055,
3834,-0.5,0.06,
3835,-0.515,0.035,
3836,-0.515,0.035,
3837,-0.5,0.045,
3838,-0.5,0.055,
3839,-0.51,0.055,
3840,-0.515,0.065,
3841,-0.55,0.045,
3842,-0.545,0.045,
3843,-0.555,0.055,
3844,-0.54,0.07,
3845,-0.52,0.065,
3846,-0.505,0.065,
3847,-0.525,0.055,
3848,-0.535,0.05,
3849,-0.555,0.05,
3850,-0.56,0.07,
3851,-0.555,0.08,
3852,-0.545,0.065,
3853,-0.56,0.055,
3854,-0.58,0.055,
3855,-0.57,0.07,
3856,-0.565,0.065,
3857,-0.555,0.075,
3858,-0.575,0.07,
3859,-0.58,0.06,
3860,-0.59,0.07,
3861,-0.57,0.08,
3862,-0.565,0.085,
3863,-0.57,0.085,
3864,-0.58,0.095,
3865,-0.59,0.09,
3866,-0.605,0.085,
3867,-0.62,0.085,
3868,-0.605,0.095,
3869,-0.585,0.105,
3870,-0.575,0.095,
3871,-0.59,0.09,
3872,-0.59,0.085,
3873,-0.605,0.095,
3874,-0.59,0.1,
3875,-0.56,0.1,
3876,-0.56,0.09,
3877,-0.575,0.085,
3878,-0.58,0.095,
3879,-0.565,0.095,
3880,-0.57,0.105,
3881,-0.55,0.105,
3882,-0.555,0.105,
3883,-0.555,0.095,
3884,-0.56,0.115,
3885,-0.56,0.155,
3886,-0.535,0.19,
3887,-0.545,0.21,
3888,-0.52,0.225,
3889,-0.53,0.23,
3890,-0.54,0.25,
3891,-0.525,0.25,
3892,-0.5,0.28,
3893,-0.45,0.29,
3894,-0.445,0.3,
3895,-0.395,0.315,
3896,-0.355,0.32,
3897,-0.305,0.335,
3898,-0.28,0.31,
3899,-0.24,0.255,
3900,-0.24,0.23,
3901,-0.25,0.175,
3902,-0.26,0.14,
3903,-0.24,0.135,
3904,-0.21,0.125,
3905,-0.21,0.095,
3906,-0.22,0.075,
3907,-0.26,0.055,
3908,-0.3,0.05,
3909,-0.315,0.055,
3910,-0.325,0.045,
3911,-0.335,0.04,
3912,-0.34,0.035,
3913,-0.355,0.03,
3914,-0.365,0.04,
3915,-0.37,0.05,
3916,-0.375,0.055,
3917,-0.385,0.05,
3918,-0.39,0.045,
3919,-0.385,0.025,
3920,-0.41,0.025,
3921,-0.445,0.05,
3922,-0.48,0.06,
3923,-0.515,0.05,
3924,-0.555,0.07,
3925,-0.585,0.06,
3926,-0.6,0.06,
3927,-0.6,0.055,
3928,-0.625,0.065,
3929,-0.62,0.045,
3930,-0.655,0.035,
3931,-0.67,0.03,
3932,-0.715,0.015,
3933,-0.725,0.03,
3934,-0.725,0.02,
3935,-0.73,0.025,
3936,-0.735,0.025,
3937,-0.75,0.01,
3938,-0.775,0.015,
3939,-0.795,0.01,
3940,-0.79,0.035,
3941,-0.79,0.035,
3942,-0.795,0.03,
3943,-0.815,0.02,
3944,-0.815,0.025,
3945,-0.815,0.03,
3946,-0.81,0.025,
3947,-0.81,0.03,
3948,-0.81,0.02,
3949,-0.83,0.01,
3950,-0.825,0.0,
3951,-0.82,0.005,
3952,-0.805,0.015,
3953,-0.79,0.02,
3954,-0.81,0.01,
3955,-0.805,0.0,
3956,-0.805,0.0,
3957,-0.79,-0.005,
3958,-0.765,-0.015,
3959,-0.73,-0.025,
3960,-0.71,-0.12,
3961,-0.69,-0.38,
3962,-0.64,-0.75,
3963,-0.51,-0.835,
3964,-0.23,-0.59,
3965,0.295,-0.36,
3966,0.92,-0.27,
3967,1.345,-0.27,
3968,1.355,-0.27,
3969,1.15,-0.25,
3970,0.95,-0.225,
3971,0.87,-0.24,/
3972,0.81,-0.25,
3973,0.73,-0.28,
3974,0.625,-0.315,
3975,0.495,-0.31,
3976,0.415,-0.32,
3977,0.345,-0.335,
3978,0.265,-0.365,
3979,0.145,-0.39,
3980,0.015,-0.41,
3981,-0.105,-0.415,
3982,-0.245,-0.435,
3983,-0.355,-0.48,
3984,-0.5,-0.515,
3985,-0.64,-0.57,
3986,-0.81,-0.65,
3987,-0.965,-0.7,
3988,-1.12,-0.74,
3989,-1.265,-0.78,
3990,-1.44,-0.83,
3991,-1.595,-0.9,
3992,-1.76,-1.005,
3993,-1.91,-1.155,
3994,-2.07,-1.28,
3995,-2.195,-1.415,
3996,-2.29,-1.515,
3997,-2.34,-1.575,
3998,-2.38,-1.645,
3999,-2.405,-1.72,
4000,-2.425,-1.79,
4001,-2.485,-1.855,
4002,-2.59,-1.945,
4003,-2.69,-2.04,
4004,-2.78,-2.13,
4005,-2.83,-2.155,
4006,-2.88,-2.105,
4007,-2.9,-1.995,
4008,-2.92,-1.85,
4009,-2.855,-1.7,
4010,-2.745,-1.545,
4011,-2.59,-1.365,
4012,-2.43,-1.195,
4013,-2.235,-1.055,
4014,-2.055,-0.9,
4015,-1.9,-0.77,
4016,-1.815,-0.635,
4017,-1.75,-0.495,
4018,-1.67,-0.39,
4019,-1.59,-0.3,
4020,-1.52,-0.22,
4021,-1.475,-0.16,
4022,-1.45,-0.09,
4023,-1.405,-0.02,
4024,-1.375,0.025,
4025,-1.355,0.085,
4026,-1.32,0.12,
4027,-1.275,0.16,
4028,-1.21,0.195,
4029,-1.145,0.235,
4030,-1.06,0.27,
4031,-0.985,0.315,
4032,-0.925,0.355,
4033,-0.865,0.375,
4034,-0.815,0.405,
4035,-0.745,0.445,
4036,-0.665,0.465,
4037,-0.57,0.48,
4038,-0.495,0.48,
4039,-0.45,0.485,
4040,-0.405,0.505,
4041,-0.34,0.525,
4042,-0.275,0.555,
4043,-0.235,0.555,
4044,-0.205,0.555,
4045,-0.205,0.56,
4046,-0.195,0.565,
4047,-0.16,0.585,
4048,-0.13,0.615,
4049,-0.11,0.62,
4050,-0.105,0.625,
4051,-0.09,0.625,
4052,-0.085,0.64,
4053,-0.05,0.66,
4054,-0.02,0.675,
4055,0.02,0.68,
4056,0.05,0.695,
4057,0.085,0.685,
4058,0.08,0.71,
4059,0.115,0.735,
4060,0.13,0.76,
4061,0.17,0.775,
4062,0.21,0.775,
4063,0.24,0.79,
4064,0.25,0.8,
4065,0.27,0.825,
4066,0.295,0.845,
4067,0.33,0.85,
4068,0.365,0.865,
4069,0.39,0.865,
4070,0.43,0.885,
4071,0.465,0.915,
4072,0.505,0.94,
4073,0.53,0.94,
4074,0.57,0.955,
4075,0.595,0.96,
4076,0.625,0.96,
4077,0.66,0.99,
4078,0.685,0.995,
4079,0.675,1.01,
4080,0.695,1.01,
4081,0.695,0.995,
4082,0.715,1.005,
4083,0.745,1.01,
4084,0.765,1.02,
4085,0.755,1.005,
4086,0.735,0.995,
4087,0.715,0.985,
4088,0.675,0.985,
4089,0.65,0.975,
4090,0.65,0.98,
4091,0.625,0.96,
4092,0.595,0.94,
4093,0.58,0.905,
4094,0.54,0.885,
4095,0.51,0.875,
4096,0.495,0.865,
4097,0.47,0.815,
4098,0.43,0.785,
4099,0.375,0.745,
4100,0.33,0.72,
4101,0.3,0.69,
4102,0.26,0.675,
4103,0.245,0.63,
4104,0.17,0.61,
4105,0.11,0.565,
4106,0.045,0.54,
4107,0.0,0.525,
4108,-0.05,0.51,
4109,-0.08,0.48,
4110,-0.125,0.46,
4111,-0.16,0.43,
4112,-0.215,0.405,
4113,-0.26,0.395,
4114,-0.3,0.4,
4115,-0.35,0.39,
4116,-0.375,0.37,
4117,-0.425,0.345,
4118,-0.48,0.335,
4119,-0.51,0.35,
4120,-0.52,0.355,
4121,-0.525,0.345,
4122,-0.555,0.335,
4123,-0.57,0.32,
4124,-0.605,0.32,
4125,-0.615,0.315,
4126,-0.635,0.325,
4127,-0.655,0.32,
4128,-0.655,0.315,
4129,-0.67,0.3,
4130,-0.685,0.29,
4131,-0.68,0.305,
4132,-0.695,0.35,
4133,-0.725,0.36,
4134,-0.72,0.365,
4135,-0.715,0.38,
4136,-0.71,0.415,
4137,-0.7,0.445,
4138,-0.68,0.47,
4139,-0.65,0.485,
4140,-0.635,0.485,
4141,-0.63,0.48,
4142,-0.61,0.485,
4143,-0.565,0.5,
4144,-0.52,0.52,
4145,-0.48,0.51,
4146,-0.44,0.495,
4147,-0.43,0.47,
4148,-0.42,0.43,
4149,-0.405,0.425,
4150,-0.39,0.415,
4151,-0.37,0.38,
4152,-0.355,0.37,
4153,-0.355,0.34,
4154,-0.37,0.325,
4155,-0.39,0.315,
4156,-0.415,0.33,
4157,-0.445,0.32,
4158,-0.47,0.295,
4159,-0.48,0.275,
4160,-0.5,0.28,
4161,-0.49,0.3,
4162,-0.475,0.315,
4163,-0.47,0.315,
4164,-0.485,0.31,
4165,-0.49,0.3,
4166,-0.515,0.3,
4167,-0.52,0.3,
4168,-0.53,0.315,
4169,-0.54,0.305,
4170,-0.56,0.31,
4171,-0.59,0.305,
4172,-0.61,0.295,
4173,-0.635,0.325,
4174,-0.65,0.345,
4175,-0.675,0.325,
4176,-0.7,0.315,
4177,-0.725,0.285,
4178,-0.75,0.285,
4179,-0.77,0.29,
4180,-0.78,0.29,
4181,-0.785,0.275,
4182,-0.805,0.26,
4183,-0.815,0.245,
4184,-0.83,0.245,
4185,-0.83,0.245,
4186,-0.83,0.26,
4187,-0.84,0.25,
4188,-0.865,0.245,
4189,-0.875,0.235,
4190,-0.88,0.225,
4191,-0.89,0.24,
4192,-0.875,0.245,
4193,-0.845,0.24,
4194,-0.86,0.225,
4195,-0.87,0.235,
4196,-0.875,0.22,
4197,-0.89,0.22,
4198,-0.87,0.215,
4199,-0.875,0.225,
4200,-0.88,0.22,
4201,-0.89,0.21,
4202,-0.895,0.195,
4203,-0.89,0.21,
4204,-0.89,0.205,
4205,-0.89,0.21,
4206,-0.9,0.215,
4207,-0.91,0.215,
4208,-0.915,0.195,
4209,-0.91,0.22,
4210,-0.895,0.22,
4211,-0.875,0.22,
4212,-0.885,0.195,
4213,-0.9,0.19,
4214,-0.9,0.195,
4215,-0.9,0.205,
4216,-0.91,0.225,
4217,-0.91,0.205,
4218,-0.91,0.205,
4219,-0.91,0.195,
4220,-0.915,0.2,
4221,-0.905,0.205,
4222,-0.89,0.21,
4223,-0.895,0.2,
4224,-0.89,0.2,
4225,-0.9,0.205,
4226,-0.91,0.205,
4227,-0.9,0.225,
4228,-0.88,0.225,
4229,-0.885,0.23,
4230,-0.87,0.235,
4231,-0.88,0.23,
4232,-0.88,0.21,
4233,-0.865,0.225,
4234,-0.855,0.23,
4235,-0.845,0.225,
4236,-0.87,0.225,
4237,-0.885,0.215,
4238,-0.89,0.22,
4239,-0.87,0.23,
4240,-0.87,0.245,
4241,-0.855,0.225,
4242,-0.86,0.21,
4243,-0.86,0.21,
4244,-0.86,0.205,
4245,-0.845,0.215,
4246,-0.835,0.23,
4247,-0.825,0.215,
4248,-0.8,0.22,
4249,-0.795,0.215,
4250,-0.815,0.195,
4251,-0.8,0.19,
4252,-0.785,0.195,
4253,-0.77,0.18,
4254,-0.77,0.16,
4255,-0.755,0.115,
4256,-0.735,-0.02,
4257,-0.705,-0.3,
4258,-0.63,-0.66,
4259,-0.52,-0.715,
4260,-0.265,-0.44,
4261,0.26,-0.205,
4262,0.895,-0.105,
4263,1.46,-0.09,
4264,1.53,-0.09,
4265,1.315,-0.065,
4266,1.095,-0.08,
4267,1.005,-0.08,/
4268,0.95,-0.12,
4269,0.855,-0.13,
4270,0.77,-0.14,
4271,0.655,-0.165,
4272,0.555,-0.19,
4273,0.435,-0.23,
4274,0.33,-0.27,
4275,0.215,-0.295,
4276,0.095,-0.3,
4277,-0.025,-0.315,
4278,-0.18,-0.35,
4279,-0.345,-0.4,
4280,-0.525,-0.465,
4281,-0.7,-0.525,
4282,-0.88,-0.585,
4283,-1.08,-0.67,
4284,-1.29,-0.735,
4285,-1.505,-0.76,
4286,-1.685,-0.835,
4287,-1.84,-0.91,
4288,-2.005,-1.035,
4289,-2.155,-1.205,
4290,-2.27,-1.33,
4291,-2.35,-1.43,
4292,-2.405,-1.505,
4293,-2.425,-1.585,
4294,-2.44,-1.65,
4295,-2.475,-1.75,
4296,-2.53,-1.825,
4297,-2.61,-1.905,
4298,-2.695,-2.01,
4299,-2.755,-2.1,
4300,-2.785,-2.125,
4301,-2.8,-2.08,
4302,-2.82,-1.955,
4303,-2.785,-1.8,
4304,-2.725,-1.63,
4305,-2.575,-1.44,
4306,-2.42,-1.265,
4307,-2.235,-1.1,
4308,-2.015,-0.935,
4309,-1.795,-0.805,
4310,-1.675,-0.67,
4311,-1.585,-0.535,
4312,-1.53,-0.415,
4313,-1.45,-0.315,
4314,-1.39,-0.24,
4315,-1.335,-0.165,
4316,-1.29,-0.09,
4317,-1.225,-0.01,
4318,-1.18,0.045,
4319,-1.16,0.08,
4320,-1.125,0.115,
4321,-1.08,0.14,
4322,-1.035,0.18,
4323,-0.95,0.22,
4324,-0.875,0.26,
4325,-0.81,0.3,
4326,-0.755,0.315,
4327,-0.695,0.34,
4328,-0.625,0.37,
4329,-0.56,0.41,
4330,-0.48,0.435,
4331,-0.385,0.445,
4332,-0.3,0.455,
4333,-0.22,0.455,
4334,-0.17,0.46,
4335,-0.1,0.485,
4336,-0.055,0.52,
4337,-0.03,0.51,
4338,-0.005,0.525,
4339,0.005,0.51,
4340,0.02,0.525,
4341,0.055,0.55,
4342,0.075,0.555,
4343,0.1,0.57,
4344,0.115,0.56,
4345,0.13,0.575,
4346,0.16,0.575,
4347,0.175,0.595,
4348,0.215,0.615,
4349,0.25,0.625,
4350,0.285,0.625,
4351,0.3,0.63,
4352,0.33,0.64,
4353,0.365,0.66,
4354,0.395,0.685,
4355,0.425,0.69,
4356,0.455,0.685,
4357,0.485,0.69,
4358,0.505,0.71,
4359,0.545,0.725,
4360,0.575,0.755,
4361,0.615,0.76,
4362,0.655,0.755,
4363,0.69,0.785,
4364,0.72,0.795,
4365,0.74,0.825,
4366,0.78,0.84,
4367,0.81,0.825,
4368,0.84,0.83,
4369,0.87,0.835,
4370,0.88,0.85,
4371,0.9,0.86,
4372,0.925,0.88,
4373,0.955,0.875,
4374,0.96,0.87,
4375,0.965,0.88,
4376,0.965,0.87,
4377,0.985,0.885,
4378,1.005,0.895,
4379,1.01,0.905,
4380,1.0,0.905,
4381,0.99,0.91,
4382,0.98,0.915,
4383,0.98,0.955,
4384,0.985,0.96,
4385,0.975,0.935,
4386,0.955,0.895,
4387,0.94,0.865,
4388,0.94,0.865,
4389,0.955,0.84,
4390,0.97,0.835,
4391,0.98,0.795,
4392,0.965,0.755,
4393,0.94,0.675,
4394,0.895,0.615,
4395,0.88,0.56,
4396,0.86,0.51,
4397,0.855,0.465,
4398,0.79,0.425,
4399,0.735,0.375,
4400,0.65,0.325,
4401,0.57,0.29,
4402,0.51,0.28,
4403,0.465,0.245,
4404,0.4,0.21,
4405,0.335,0.175,
4406,0.275,0.16,
4407,0.245,0.16,
4408,0.215,0.17,
4409,0.165,0.15,
4410,0.105,0.12,
4411,0.045,0.105,
4412,-0.01,0.11,
4413,-0.055,0.11,
4414,-0.1,0.115,
4415,-0.145,0.12,
4416,-0.185,0.095,
4417,-0.235,0.08,
4418,-0.295,0.09,
4419,-0.32,0.105,
4420,-0.355,0.1,
4421,-0.375,0.095,
4422,-0.42,0.085,
4423,-0.46,0.08,
4424,-0.49,0.07,
4425,-0.515,0.075,
4426,-0.535,0.08,
4427,-0.565,0.065,
4428,-0.58,0.03,
4429,-0.625,0.02,
4430,-0.665,0.03,
4431,-0.68,0.03,
4432,-0.685,0.055,
4433,-0.66,0.035,
4434,-0.625,0.03,
4435,-0.62,0.035,
4436,-0.615,0.04,
4437,-0.62,0.04,
4438,-0.63,0.05,
4439,-0.65,0.04,
4440,-0.665,0.06,
4441,-0.68,0.05,
4442,-0.685,0.055,
4443,-0.665,0.06,
4444,-0.655,0.075,
4445,-0.64,0.05,
4446,-0.66,0.055,
4447,-0.67,0.045,
4448,-0.675,0.05,
4449,-0.68,0.06,
4450,-0.68,0.07,
4451,-0.67,0.06,
4452,-0.665,0.055,
4453,-0.675,0.05,
4454,-0.68,0.03,
4455,-0.66,0.045,
4456,-0.645,0.06,
4457,-0.635,0.07,
4458,-0.635,0.065,
4459,-0.645,0.045,
4460,-0.655,0.045,
4461,-0.66,0.05,
4462,-0.65,0.055,
4463,-0.655,0.035,
4464,-0.67,0.03,
4465,-0.68,0.035,
4466,-0.67,0.03,
4467,-0.65,0.03,
4468,-0.64,0.045,
4469,-0.63,0.045,
4470,-0.64,0.045,
4471,-0.645,0.04,
4472,-0.655,0.035,
4473,-0.665,0.045,
4474,-0.665,0.035,
4475,-0.64,0.03,
4476,-0.635,0.025,
4477,-0.645,0.035,
4478,-0.64,0.035,
4479,-0.645,0.055,
4480,-0.645,0.06,
4481,-0.64,0.035,
4482,-0.63,0.035,
4483,-0.63,0.04,
4484,-0.635,0.035,
4485,-0.635,0.065,
4486,-0.625,0.065,
4487,-0.625,0.055,
4488,-0.64,0.045,
4489,-0.645,0.065,
4490,-0.65,0.055,
4491,-0.635,0.06,
4492,-0.62,0.06,
4493,-0.625,0.06,
4494,-0.625,0.055,
4495,-0.63,0.06,
4496,-0.64,0.065,
4497,-0.625,0.065,
4498,-0.62,0.08,
4499,-0.63,0.07,
4500,-0.615,0.07,
4501,-0.605,0.06,
4502,-0.6,0.065,
4503,-0.6,0.07,
4504,-0.57,0.09,
4505,-0.565,0.085,
4506,-0.565,0.065,
4507,-0.58,0.07,
4508,-0.595,0.05,
4509,-0.59,0.07,
4510,-0.58,0.09,
4511,-0.58,0.085,
4512,-0.58,0.075,
4513,-0.605,0.075,
4514,-0.605,0.08,
4515,-0.565,0.08,
4516,-0.55,0.085,
4517,-0.545,0.065,
4518,-0.54,0.08,
4519,-0.555,0.065,
4520,-0.565,0.06,
4521,-0.55,0.07,
4522,-0.53,0.1,
4523,-0.52,0.09,
4524,-0.535,0.08,
4525,-0.545,0.055,
4526,-0.545,0.035,
4527,-0.53,0.025,
4528,-0.54,0.045,
4529,-0.55,0.05,
4530,-0.52,0.03,
4531,-0.495,0.02,
4532,-0.485,0.03,
4533,-0.485,0.06,
4534,-0.49,0.075,
4535,-0.495,0.065,
4536,-0.5,0.045,
4537,-0.495,0.045,
4538,-0.505,0.015,
4539,-0.48,0.02,
4540,-0.48,0.03,
4541,-0.485,0.02,
4542,-0.48,0.01,
4543,-0.47,0.0,
4544,-0.46,-0.015,
4545,-0.435,-0.025,
4546,-0.42,-0.05,
4547,-0.41,-0.08,
4548,-0.36,-0.155,
4549,-0.335,-0.425,
4550,-0.29,-0.775,
4551,-0.18,-0.805,
4552,0.1,-0.54,
4553,0.635,-0.32,
4554,1.27,-0.265,
4555,1.77,-0.28,
4556,1.81,-0.27,
4557,1.62,-0.25,
4558,1.49,-0.24,
4559,1.425,-0.26,
4560,1.365,-0.29,/
4561,1.285,-0.33,
4562,1.14,-0.33,
4563,1.03,-0.36,
4564,0.94,-0.37,
4565,0.85,-0.4,
4566,0.755,-0.425,
4567,0.64,-0.445,
4568,0.495,-0.435,
4569,0.35,-0.43,
4570,0.19,-0.465,
4571,-0.015,-0.52,
4572,-0.245,-0.56,
4573,-0.465,-0.61,
4574,-0.675,-0.64,
4575,-0.875,-0.69,
4576,-1.08,-0.705,
4577,-1.3,-0.735,
4578,-1.52,-0.78,
4579,-1.695,-0.84,
4580,-1.84,-0.93,
4581,-1.95,-1.045,
4582,-2.015,-1.17,
4583,-2.08,-1.255,
4584,-2.14,-1.315,
4585,-2.2,-1.36,
4586,-2.225,-1.475,
4587,-2.225,-1.565,
4588,-2.255,-1.65,
4589,-2.34,-1.715,
4590,-2.44,-1.805,
4591,-2.525,-1.92,
4592,-2.585,-2.045,
4593,-2.635,-2.07,
4594,-2.68,-2.0,
4595,-2.71,-1.855,
4596,-2.69,-1.735,
4597,-2.605,-1.59,
4598,-2.435,-1.415,
4599,-2.18,-1.235,
4600,-1.955,-1.09,
4601,-1.735,-0.985,
4602,-1.58,-0.89,
4603,-1.46,-0.775,
4604,-1.375,-0.675,
4605,-1.3,-0.595,
4606,-1.26,-0.57,
4607,-1.225,-0.525,
4608,-1.17,-0.455,
4609,-1.095,-0.37,
4610,-1.04,-0.31,
4611,-1.015,-0.23,
4612,-1.02,-0.175,
4613,-0.99,-0.105,
4614,-0.92,-0.08,
4615,-0.85,-0.08,
4616,-0.765,-0.05,
4617,-0.68,0.01,
4618,-0.62,0.03,
4619,-0.57,-0.015,
4620,-0.53,0.005,
4621,-0.48,0.035,
4622,-0.41,0.055,
4623,-0.325,0.085,
4624,-0.2,0.11,
4625,-0.09,0.13,
4626,-0.025,0.14,
4627,0.005,0.145,
4628,0.03,0.16,
4629,0.07,0.205,
4630,0.14,0.24,
4631,0.185,0.285,
4632,0.235,0.31,
4633,0.26,0.31,
4634,0.285,0.28,
4635,0.335,0.285,
4636,0.38,0.335,
4637,0.405,0.36,
4638,0.415,0.405,
4639,0.455,0.415,
4640,0.515,0.395,
4641,0.61,0.41,
4642,0.655,0.41,
4643,0.675,0.38,
4644,0.695,0.345,
4645,0.74,0.305,
4646,0.79,0.29,
4647,0.845,0.265,
4648,0.88,0.255,
4649,0.885,0.24,
4650,0.9,0.22,
4651,0.925,0.23,
4652,0.98,0.225,
4653,1.015,0.23,
4654,1.045,0.225,
4655,1.04,0.24,
4656,1.02,0.26,
4657,1.035,0.305,
4658,1.045,0.325,
4659,1.095,0.355,
4660,1.14,0.35,
4661,1.175,0.34,
4662,1.19,0.325,
4663,1.215,0.355,
4664,1.25,0.4,
4665,1.27,0.455,
4666,1.255,0.455,
4667,1.25,0.39,
4668,1.23,0.37,
4669,1.24,0.375,
4670,1.235,0.4,
4671,1.215,0.42,
4672,1.185,0.415,
4673,1.155,0.385,
4674,1.155,0.365,
4675,1.14,0.38,
4676,1.13,0.36,
4677,1.135,0.36,
4678,1.145,0.37,
4679,1.115,0.36,
4680,1.08,0.345,
4681,1.055,0.295,
4682,1.02,0.26,
4683,0.99,0.225,
4684,0.93,0.2,
4685,0.865,0.18,
4686,0.82,0.175,
4687,0.815,0.165,
4688,0.815,0.125,
4689,0.79,0.09,
4690,0.71,0.06,
4691,0.61,0.0,
4692,0.535,-0.04,
4693,0.525,-0.045,
4694,0.51,-0.06,
4695,0.5,-0.065,
4696,0.455,-0.075,
4697,0.385,-0.07,
4698,0.36,-0.085,
4699,0.33,-0.145,
4700,0.25,-0.2,
4701,0.13,-0.21,
4702,0.06,-0.21,
4703,0.035,-0.235,
4704,0.065,-0.265,
4705,0.07,-0.28,
4706,0.02,-0.28,
4707,-0.03,-0.27,
4708,-0.085,-0.255,
4709,-0.12,-0.26,
4710,-0.145,-0.27,
4711,-0.21,-0.285,
4712,-0.285,-0.305,
4713,-0.3,-0.315,
4714,-0.26,-0.3,
4715,-0.22,-0.285,
4716,-0.21,-0.285,
4717,-0.27,-0.325,
4718,-0.33,-0.34,
4719,-0.345,-0.34,
4720,-0.365,-0.32,
4721,-0.39,-0.315,
4722,-0.42,-0.315,
4723,-0.41,-0.315,
4724,-0.39,-0.315,
4725,-0.345,-0.3,
4726,-0.375,-0.29,
4727,-0.4,-0.305,
4728,-0.445,-0.315,
4729,-0.47,-0.315,
4730,-0.49,-0.285,
4731,-0.46,-0.245,
4732,-0.46,-0.215,
4733,-0.455,-0.245,
4734,-0.455,-0.28,
4735,-0.455,-0.295,
4736,-0.465,-0.285,
4737,-0.465,-0.26,
4738,-0.47,-0.23,
4739,-0.495,-0.225,
4740,-0.49,-0.245,
4741,-0.44,-0.27,
4742,-0.425,-0.27,
4743,-0.42,-0.25,
4744,-0.47,-0.225,
4745,-0.51,-0.215,
4746,-0.49,-0.23,
4747,-0.455,-0.265,
4748,-0.415,-0.26,
4749,-0.385,-0.255,
4750,-0.39,-0.24,
4751,-0.41,-0.22,
4752,-0.445,-0.235,
4753,-0.455,-0.225,
4754,-0.445,-0.22,
4755,-0.405,-0.23,
4756,-0.4,-0.225,
4757,-0.425,-0.235,
4758,-0.445,-0.235,
4759,-0.465,-0.255,
4760,-0.44,-0.26,
4761,-0.425,-0.235,
4762,-0.4,-0.225,
4763,-0.395,-0.225,
4764,-0.395,-0.245,
4765,-0.395,-0.26,
4766,-0.39,-0.24,
4767,-0.365,-0.22,
4768,-0.345,-0.215,
4769,-0.32,-0.235,
4770,-0.345,-0.245,
4771,-0.375,-0.26,
4772,-0.41,-0.265,
4773,-0.37,-0.27,
4774,-0.34,-0.255,
4775,-0.32,-0.25,
4776,-0.345,-0.255,
4777,-0.36,-0.27,
4778,-0.355,-0.28,
4779,-0.365,-0.265,
4780,-0.365,-0.265,
4781,-0.39,-0.27,
4782,-0.41,-0.275,
4783,-0.405,-0.3,
4784,-0.42,-0.305,
4785,-0.41,-0.29,
4786,-0.395,-0.29,
4787,-0.38,-0.3,
4788,-0.385,-0.31,
4789,-0.37,-0.33,
4790,-0.34,-0.31,
4791,-0.315,-0.3,
4792,-0.315,-0.29,
4793,-0.355,-0.295,
4794,-0.37,-0.3,
4795,-0.36,-0.31,
4796,-0.345,-0.3,
4797,-0.345,-0.285,
4798,-0.355,-0.295,
4799,-0.355,-0.31,
4800,-0.365,-0.33,
4801,-0.37,-0.335,
4802,-0.375,-0.325,
4803,-0.37,-0.31,
4804,-0.355,-0.305,
4805,-0.33,-0.315,
4806,-0.32,-0.325,
4807,-0.345,-0.33,
4808,-0.36,-0.325,
4809,-0.36,-0.33,
4810,-0.355,-0.325,
4811,-0.35,-0.34,
4812,-0.34,-0.335,
4813,-0.345,-0.335,
4814,-0.355,-0.33,
4815,-0.33,-0.33,
4816,-0.31,-0.325,
4817,-0.295,-0.335,
4818,-0.31,-0.33,
4819,-0.33,-0.315,
4820,-0.365,-0.325,
4821,-0.345,-0.315,
4822,-0.335,-0.325,
4823,-0.32,-0.33,
4824,-0.315,-0.33,
4825,-0.315,-0.335,
4826,-0.31,-0.33,
4827,-0.31,-0.33,
4828,-0.3,-0.34,
4829,-0.3,-0.335,
4830,-0.32,-0.345,
4831,-0.315,-0.345,
4832,-0.33,-0.34,
4833,-0.32,-0.33,
4834,-0.3,-0.315,
4835,-0.305,-0.325,
4836,-0.315,-0.335,
4837,-0.32,-0.345,
4838,-0.31,-0.34,
4839,-0.305,-0.345,
4840,-0.295,-0.35,
4841,-0.29,-0.34,
4842,-0.275,-0.34,
4843,-0.27,-0.37,
4844,-0.27,-0.375,
4845,-0.24,-0.365,
4846,-0.205,-0.365,
4847,-0.195,-0.39,
4848,-0.195,-0.535,
4849,-0.185,-0.895,
4850,-0.14,-1.21,
4851,0.015,-1.165,
4852,0.36,-0.915,
4853,0.93,-0.745,
4854,1.545,-0.71,
4855,1.935,-0.705,
4856,1.975,-0.695,
4857,1.885,-0.675,
4858,1.765,-0.645,
4859,1.71,-0.65,
4860,1.655,-0.665,/
4861,1.57,-0.69,
4862,1.455,-0.7,
4863,1.345,-0.705,
4864,1.245,-0.715,
4865,1.155,-0.72,
4866,1.045,-0.74,
4867,0.93,-0.77,
4868,0.785,-0.785,
4869,0.63,-0.79,
4870,0.475,-0.78,
4871,0.295,-0.795,
4872,0.105,-0.84,
4873,-0.125,-0.875,
4874,-0.355,-0.94,
4875,-0.585,-0.97,
4876,-0.81,-1.01,
4877,-1.06,-1.045,
4878,-1.31,-1.085,
4879,-1.54,-1.13,
4880,-1.74,-1.215,
4881,-1.9,-1.3,
4882,-2.03,-1.415,
4883,-2.125,-1.535,
4884,-2.23,-1.62,
4885,-2.285,-1.69,
4886,-2.3,-1.73,
4887,-2.285,-1.75,
4888,-2.28,-1.795,
4889,-2.33,-1.84,
4890,-2.42,-1.9,
4891,-2.51,-1.96,
4892,-2.58,-2.025,
4893,-2.625,-2.095,
4894,-2.66,-2.11,
4895,-2.7,-2.05,
4896,-2.705,-1.915,
4897,-2.635,-1.77,
4898,-2.47,-1.595,
4899,-2.21,-1.39,
4900,-1.935,-1.225,
4901,-1.665,-1.115,
4902,-1.43,-1.04,
4903,-1.225,-0.98,
4904,-1.06,-0.91,
4905,-0.945,-0.845,
4906,-0.855,-0.74,
4907,-0.765,-0.68,
4908,-0.68,-0.625,
4909,-0.6,-0.575,
4910,-0.535,-0.535,
4911,-0.495,-0.48,
4912,-0.48,-0.435,
4913,-0.465,-0.415,
4914,-0.47,-0.405,
4915,-0.46,-0.39,
4916,-0.45,-0.35,
4917,-0.395,-0.305,
4918,-0.295,-0.28,
4919,-0.215,-0.245,
4920,-0.155,-0.235,
4921,-0.13,-0.22,
4922,-0.09,-0.2,
4923,-0.03,-0.165,
4924,0.005,-0.13,
4925,0.065,-0.09,
4926,0.115,-0.08,
4927,0.14,-0.08,
4928,0.16,-0.06,
4929,0.215,-0.025,
4930,0.255,-0.005,
4931,0.31,-0.01,
4932,0.32,-0.015,
4933,0.31,-0.015,
4934,0.305,-0.015,
4935,0.325,0.01,
4936,0.315,0.015,
4937,0.32,0.02,
4938,0.325,0.005,
4939,0.33,0.005,
4940,0.34,0.005,
4941,0.34,0.045,
4942,0.355,0.065,
4943,0.37,0.075,
4944,0.385,0.075,
4945,0.395,0.085,
4946,0.405,0.095,
4947,0.435,0.105,
4948,0.47,0.125,
4949,0.52,0.145,
4950,0.525,0.155,
4951,0.545,0.15,
4952,0.555,0.17,
4953,0.585,0.195,
4954,0.615,0.23,
4955,0.65,0.235,
4956,0.67,0.23,
4957,0.7,0.235,
4958,0.715,0.245,
4959,0.755,0.27,
4960,0.785,0.295,
4961,0.805,0.305,
4962,0.825,0.32,
4963,0.84,0.32,
4964,0.84,0.33,
4965,0.88,0.36,
4966,0.94,0.37,
4967,0.98,0.37,
4968,0.995,0.375,
4969,0.985,0.37,
4970,0.99,0.385,
4971,1.02,0.395,
4972,1.03,0.425,
4973,1.06,0.42,
4974,1.045,0.41,
4975,1.05,0.415,
4976,1.04,0.405,
4977,1.04,0.41,
4978,1.04,0.415,
4979,1.04,0.42,
4980,1.02,0.395,
4981,0.995,0.375,
4982,0.97,0.36,
4983,0.96,0.355,
4984,0.955,0.35,
4985,0.93,0.325,
4986,0.875,0.29,
4987,0.83,0.255,
4988,0.785,0.245,
4989,0.775,0.23,
4990,0.76,0.215,
4991,0.71,0.195,
4992,0.675,0.155,
4993,0.615,0.115,
4994,0.575,0.09,
4995,0.535,0.065,
4996,0.505,0.05,
4997,0.45,0.025,
4998,0.415,0.005,
4999,0.365,-0.035,
5000,0.315,-0.055,
5001,0.275,-0.07,
5002,0.225,-0.075,
5003,0.175,-0.1,
5004,0.13,-0.12,
5005,0.105,-0.14,
5006,0.055,-0.14,
5007,0.035,-0.145,
5008,-0.015,-0.14,
5009,-0.05,-0.155,
5010,-0.1,-0.17,
5011,-0.13,-0.19,
5012,-0.18,-0.195,
5013,-0.205,-0.19,
5014,-0.23,-0.185,
5015,-0.24,-0.205,
5016,-0.255,-0.205,
5017,-0.285,-0.22,
5018,-0.325,-0.22,
5019,-0.35,-0.2,
5020,-0.36,-0.205,
5021,-0.345,-0.2,
5022,-0.365,-0.21,
5023,-0.39,-0.225,
5024,-0.405,-0.22,
5025,-0.415,-0.2,
5026,-0.42,-0.205,
5027,-0.42,-0.195,
5028,-0.43,-0.2,
5029,-0.425,-0.215,
5030,-0.44,-0.195,
5031,-0.455,-0.195,
5032,-0.435,-0.18,
5033,-0.435,-0.195,
5034,-0.45,-0.2,
5035,-0.465,-0.205,
5036,-0.48,-0.195,
5037,-0.475,-0.185,
5038,-0.455,-0.175,
5039,-0.45,-0.185,
5040,-0.455,-0.18,
5041,-0.47,-0.2,
5042,-0.49,-0.17,
5043,-0.485,-0.165,
5044,-0.485,-0.15,
5045,-0.48,-0.165,
5046,-0.485,-0.18,
5047,-0.495,-0.18,
5048,-0.5,-0.185,
5049,-0.5,-0.175,
5050,-0.5,-0.155,
5051,-0.49,-0.16,
5052,-0.485,-0.16,
5053,-0.485,-0.175,
5054,-0.51,-0.17,
5055,-0.5,-0.155,
5056,-0.49,-0.15,
5057,-0.475,-0.16,
5058,-0.465,-0.16,
5059,-0.47,-0.165,
5060,-0.47,-0.165,
5061,-0.475,-0.155,
5062,-0.47,-0.16,
5063,-0.47,-0.16,
5064,-0.47,-0.165,
5065,-0.47,-0.19,
5066,-0.47,-0.185,
5067,-0.465,-0.17,
5068,-0.47,-0.15,
5069,-0.455,-0.17,
5070,-0.46,-0.17,
5071,-0.455,-0.18,
5072,-0.47,-0.18,
5073,-0.455,-0.175,
5074,-0.43,-0.165,
5075,-0.4,-0.175,
5076,-0.425,-0.18,
5077,-0.44,-0.19,
5078,-0.45,-0.185,
5079,-0.45,-0.17,
5080,-0.455,-0.175,
5081,-0.45,-0.19,
5082,-0.44,-0.205,
5083,-0.455,-0.2,
5084,-0.465,-0.2,
5085,-0.46,-0.185,
5086,-0.46,-0.175,
5087,-0.455,-0.185,
5088,-0.46,-0.2,
5089,-0.475,-0.205,
5090,-0.49,-0.21,
5091,-0.49,-0.2,
5092,-0.485,-0.2,
5093,-0.48,-0.2,
5094,-0.475,-0.205,
5095,-0.455,-0.21,
5096,-0.465,-0.205,
5097,-0.47,-0.205,
5098,-0.475,-0.185,
5099,-0.49,-0.2,
5100,-0.475,-0.205,
5101,-0.485,-0.215,
5102,-0.5,-0.205,
5103,-0.495,-0.195,
5104,-0.49,-0.19,
5105,-0.49,-0.2,
5106,-0.49,-0.2,
5107,-0.49,-0.225,
5108,-0.49,-0.21,
5109,-0.5,-0.205,
5110,-0.485,-0.2,
5111,-0.48,-0.195,
5112,-0.49,-0.22,
5113,-0.495,-0.21,
5114,-0.505,-0.21,
5115,-0.5,-0.205,
5116,-0.49,-0.195,
5117,-0.475,-0.215,
5118,-0.47,-0.205,
5119,-0.475,-0.21,
5120,-0.49,-0.205,
5121,-0.485,-0.195,
5122,-0.485,-0.2,
5123,-0.48,-0.2,
5124,-0.485,-0.2,
5125,-0.48,-0.22,
5126,-0.495,-0.21,
5127,-0.485,-0.2,
5128,-0.48,-0.2,
5129,-0.485,-0.19,
5130,-0.495,-0.205,
5131,-0.505,-0.225,
5132,-0.525,-0.21,
5133,-0.51,-0.205,
5134,-0.485,-0.205,
5135,-0.48,-0.205,
5136,-0.475,-0.2,
5137,-0.475,-0.215,
5138,-0.49,-0.205,
5139,-0.49,-0.2,
5140,-0.485,-0.205,
5141,-0.485,-0.205,
5142,-0.48,-0.21,
5143,-0.47,-0.225,
5144,-0.47,-0.21,
5145,-0.46,-0.195,
5146,-0.455,-0.19,
5147,-0.46,-0.205,
5148,-0.465,-0.21,
5149,-0.45,-0.225,
5150,-0.465,-0.225,
5151,-0.455,-0.215,
5152,-0.455,-0.205,
5153,-0.445,-0.215,
5154,-0.445,-0.225,
5155,-0.445,-0.23,
5156,-0.435,-0.22,
5157,-0.425,-0.21,
5158,-0.375,-0.325,
5159,-0.345,-0.625,
5160,-0.28,-0.875,
5161,-0.15,-0.81,
5162,0.135,-0.585,
5163,0.645,-0.415,
5164,1.215,-0.335,
5165,1.63,-0.31,
5166,1.735,-0.29,
5167,1.635,-0.26,
5168,1.52,-0.235,
5169,1.48,-0.245,
5170,1.46,-0.285,/
5171,1.4,-0.345,
5172,1.325,-0.41,
5173,1.21,-0.47,
5174,1.135,-0.49,
5175,1.08,-0.5,
5176,1.035,-0.515,
5177,0.96,-0.555,
5178,0.845,-0.585,
5179,0.71,-0.62,
5180,0.56,-0.63,
5181,0.405,-0.65,
5182,0.25,-0.675,
5183,0.09,-0.695,
5184,-0.08,-0.75,
5185,-0.26,-0.785,
5186,-0.47,-0.83,
5187,-0.69,-0.89,
5188,-0.905,-0.92,
5189,-1.125,-0.955,
5190,-1.35,-1.005,
5191,-1.57,-1.05,
5192,-1.76,-1.135,
5193,-1.93,-1.23,
5194,-2.08,-1.34,
5195,-2.19,-1.45,
5196,-2.27,-1.555,
5197,-2.36,-1.6,
5198,-2.42,-1.62,
5199,-2.45,-1.655,
5200,-2.48,-1.715,
5201,-2.535,-1.785,
5202,-2.615,-1.85,
5203,-2.69,-1.92,
5204,-2.755,-1.985,
5205,-2.8,-2.05,
5206,-2.825,-2.115,
5207,-2.865,-2.185,
5208,-2.92,-2.19,
5209,-2.96,-2.125,
5210,-2.955,-2.02,
5211,-2.875,-1.88,
5212,-2.745,-1.755,
5213,-2.58,-1.61,
5214,-2.4,-1.49,
5215,-2.215,-1.375,
5216,-2.065,-1.265,
5217,-1.91,-1.145,
5218,-1.765,-1.03,
5219,-1.65,-0.93,
5220,-1.56,-0.845,
5221,-1.485,-0.745,
5222,-1.44,-0.685,
5223,-1.37,-0.605,
5224,-1.29,-0.525,
5225,-1.215,-0.475,
5226,-1.17,-0.42,
5227,-1.145,-0.405,
5228,-1.155,-0.36,
5229,-1.135,-0.295,
5230,-1.095,-0.25,
5231,-1.03,-0.23,
5232,-0.975,-0.205,
5233,-0.925,-0.175,
5234,-0.85,-0.14,
5235,-0.765,-0.105,
5236,-0.715,-0.055,
5237,-0.66,-0.03,
5238,-0.6,0.0,
5239,-0.54,0.015,
5240,-0.475,0.04,
5241,-0.375,0.065,
5242,-0.31,0.085,
5243,-0.23,0.09,
5244,-0.18,0.09,
5245,-0.145,0.095,
5246,-0.1,0.105,
5247,-0.045,0.13,
5248,0.01,0.155,
5249,0.045,0.165,
5250,0.04,0.165,
5251,0.055,0.15,
5252,0.07,0.175,
5253,0.095,0.2,
5254,0.105,0.215,
5255,0.125,0.23,
5256,0.145,0.225,
5257,0.155,0.23,
5258,0.16,0.23,
5259,0.175,0.255,
5260,0.205,0.27,
5261,0.24,0.29,
5262,0.27,0.3,
5263,0.29,0.3,
5264,0.305,0.335,
5265,0.32,0.345,
5266,0.345,0.36,
5267,0.375,0.37,
5268,0.415,0.39,
5269,0.415,0.39,
5270,0.445,0.405,
5271,0.485,0.44,
5272,0.525,0.455,
5273,0.56,0.455,
5274,0.585,0.465,
5275,0.61,0.475,
5276,0.635,0.495,
5277,0.66,0.52,
5278,0.705,0.54,
5279,0.76,0.56,
5280,0.815,0.57,
5281,0.855,0.565,
5282,0.865,0.58,
5283,0.9,0.605,
5284,0.92,0.63,
5285,0.935,0.655,
5286,0.975,0.655,
5287,0.985,0.64,
5288,1.005,0.65,
5289,1.04,0.66,
5290,1.055,0.665,
5291,1.06,0.66,
5292,1.055,0.655,
5293,1.045,0.645,
5294,1.035,0.645,
5295,1.045,0.655,
5296,1.07,0.655,
5297,1.07,0.645,
5298,1.06,0.625,
5299,1.03,0.615,
5300,1.015,0.605,
5301,1.0,0.61,
5302,0.985,0.59,
5303,0.98,0.57,
5304,0.955,0.53,
5305,0.9,0.51,
5306,0.885,0.49,
5307,0.86,0.48,
5308,0.835,0.455,
5309,0.795,0.425,
5310,0.75,0.385,
5311,0.71,0.355,
5312,0.655,0.325,
5313,0.625,0.305,
5314,0.595,0.275,
5315,0.565,0.25,
5316,0.525,0.205,
5317,0.48,0.18,
5318,0.405,0.165,
5319,0.355,0.15,
5320,0.32,0.14,
5321,0.265,0.12,
5322,0.24,0.095,
5323,0.185,0.07,
5324,0.145,0.045,
5325,0.11,0.045,
5326,0.065,0.04,
5327,0.03,0.02,
5328,-0.02,-0.005,
5329,-0.085,-0.025,
5330,-0.115,-0.035,
5331,-0.15,-0.025,
5332,-0.175,-0.015,
5333,-0.19,-0.035,
5334,-0.225,-0.035,
5335,-0.24,-0.065,
5336,-0.255,-0.04,
5337,-0.26,-0.045,
5338,-0.27,-0.03,
5339,-0.31,-0.04,
5340,-0.335,-0.065,
5341,-0.36,-0.07,
5342,-0.38,-0.075,
5343,-0.405,-0.06,
5344,-0.405,-0.045,
5345,-0.39,-0.05,
5346,-0.38,-0.065,
5347,-0.41,-0.055,
5348,-0.42,-0.055,
5349,-0.405,-0.045,
5350,-0.405,-0.04,
5351,-0.4,-0.035,
5352,-0.415,-0.055,
5353,-0.435,-0.055,
5354,-0.45,-0.055,
5355,-0.45,-0.05,
5356,-0.435,-0.025,
5357,-0.43,-0.02,
5358,-0.44,-0.025,
5359,-0.445,-0.045,
5360,-0.465,-0.03,
5361,-0.46,-0.02,
5362,-0.44,-0.01,
5363,-0.445,0.005,
5364,-0.435,-0.015,
5365,-0.45,-0.025,
5366,-0.455,-0.025,
5367,-0.445,0.005,
5368,-0.43,0.0,
5369,-0.43,0.0,
5370,-0.445,-0.005,
5371,-0.45,-0.015,
5372,-0.45,-0.01,
5373,-0.445,0.015,
5374,-0.43,0.01,
5375,-0.42,0.02,
5376,-0.425,0.01,
5377,-0.42,0.0,
5378,-0.425,0.01,
5379,-0.415,0.02,
5380,-0.425,0.025,
5381,-0.43,0.03,
5382,-0.43,0.015,
5383,-0.41,0.01,
5384,-0.41,0.01,
5385,-0.4,0.025,
5386,-0.38,0.025,
5387,-0.38,0.025,
5388,-0.38,0.01,
5389,-0.39,0.005,
5390,-0.4,0.015,
5391,-0.39,0.025,
5392,-0.395,0.025,
5393,-0.38,0.025,
5394,-0.37,0.0,
5395,-0.385,0.0,
5396,-0.385,0.01,
5397,-0.39,0.005,
5398,-0.385,0.02,
5399,-0.385,0.015,
5400,-0.39,0.01,
5401,-0.39,-0.005,
5402,-0.4,0.0,
5403,-0.405,0.015,
5404,-0.39,0.01,
5405,-0.395,0.01,
5406,-0.405,-0.005,
5407,-0.42,-0.01,
5408,-0.42,-0.01,
5409,-0.415,0.0,
5410,-0.4,0.005,
5411,-0.4,0.005,
5412,-0.405,-0.005,
5413,-0.42,-0.005,
5414,-0.43,-0.005,
5415,-0.41,-0.01,
5416,-0.405,-0.005,
5417,-0.415,-0.005,
5418,-0.415,-0.015,
5419,-0.425,-0.03,
5420,-0.415,-0.025,
5421,-0.415,-0.015,
5422,-0.415,-0.005,
5423,-0.415,-0.02,
5424,-0.405,-0.01,
5425,-0.41,-0.035,
5426,-0.415,-0.02,
5427,-0.41,-0.005,
5428,-0.4,0.03,
5429,-0.4,0.045,
5430,-0.395,0.065,
5431,-0.395,0.08,
5432,-0.395,0.11,
5433,-0.375,0.14,
5434,-0.35,0.16,
5435,-0.335,0.17,
5436,-0.325,0.16,
5437,-0.305,0.18,
5438,-0.28,0.195,
5439,-0.235,0.225,
5440,-0.18,0.25,
5441,-0.135,0.245,
5442,-0.11,0.215,
5443,-0.11,0.175,
5444,-0.105,0.145,
5445,-0.09,0.11,
5446,-0.07,0.08,
5447,-0.045,0.065,
5448,-0.03,0.03,
5449,-0.005,0.01,
5450,0.0,0.0,
5451,0.005,-0.01,
5452,0.0,-0.02,
5453,-0.01,-0.03,
5454,-0.05,-0.05,
5455,-0.065,-0.07,
5456,-0.085,-0.08,
5457,-0.075,-0.07,
5458,-0.065,-0.055,
5459,-0.065,-0.055,
5460,-0.075,-0.06,
5461,-0.09,-0.065,
5462,-0.105,-0.065,
5463,-0.105,-0.065,
5464,-0.1,-0.075,
5465,-0.105,-0.075,
5466,-0.14,-0.08,
5467,-0.17,-0.095,
5468,-0.205,-0.08,
5469,-0.225,-0.065,
5470,-0.225,-0.055,
5471,-0.25,-0.04,
5472,-0.27,-0.04,
5473,-0.305,-0.05,
5474,-0.315,-0.065,
5475,-0.325,-0.06,
5476,-0.325,-0.06,
5477,-0.33,-0.08,
5478,-0.345,-0.09,
5479,-0.335,-0.185,
5480,-0.31,-0.475,
5481,-0.255,-0.765,
5482,-0.145,-0.79,
5483,0.12,-0.59,
5484,0.585,-0.41,
5485,1.155,-0.385,
5486,1.575,-0.37,
5487,1.695,-0.345,
5488,1.57,-0.315,
5489,1.415,-0.315,
5490,1.32,-0.32,/
5491,1.26,-0.35,
5492,1.2,-0.355,
5493,1.135,-0.375,
5494,1.06,-0.375,
5495,0.97,-0.39,
5496,0.885,-0.41,
5497,0.795,-0.42,
5498,0.715,-0.43,
5499,0.655,-0.45,
5500,0.575,-0.465,
5501,0.495,-0.495,
5502,0.38,-0.515,
5503,0.26,-0.545,
5504,0.145,-0.58,
5505,0.025,-0.595,
5506,-0.08,-0.62,
5507,-0.205,-0.67,
5508,-0.345,-0.745,
5509,-0.5,-0.81,
5510,-0.625,-0.87,
5511,-0.765,-0.895,
5512,-0.91,-0.93,
5513,-1.1,-0.955,
5514,-1.275,-1.035,
5515,-1.44,-1.13,
5516,-1.615,-1.235,
5517,-1.765,-1.355,
5518,-1.865,-1.455,
5519,-1.94,-1.555,
5520,-2.015,-1.62,
5521,-2.065,-1.69,
5522,-2.115,-1.76,
5523,-2.125,-1.815,
5524,-2.14,-1.875,
5525,-2.205,-1.93,
5526,-2.325,-2.005,
5527,-2.415,-2.065,
5528,-2.49,-2.115,
5529,-2.535,-2.16,
5530,-2.6,-2.185,
5531,-2.645,-2.14,
5532,-2.675,-2.07,
5533,-2.67,-1.97,
5534,-2.585,-1.84,
5535,-2.445,-1.7,
5536,-2.3,-1.565,
5537,-2.165,-1.45,
5538,-2.02,-1.325,
5539,-1.865,-1.21,
5540,-1.72,-1.075,
5541,-1.585,-0.98,
5542,-1.505,-0.865,
5543,-1.465,-0.76,
5544,-1.425,-0.685,
5545,-1.385,-0.615,
5546,-1.35,-0.555,
5547,-1.29,-0.475,
5548,-1.245,-0.395,
5549,-1.185,-0.33,
5550,-1.165,-0.285,
5551,-1.15,-0.225,
5552,-1.145,-0.175,
5553,-1.105,-0.11,
5554,-1.06,-0.07,
5555,-0.995,-0.035,
5556,-0.935,0.01,
5557,-0.87,0.035,
5558,-0.79,0.075,
5559,-0.72,0.125,
5560,-0.66,0.155,
5561,-0.605,0.195,
5562,-0.55,0.21,
5563,-0.475,0.24,
5564,-0.39,0.255,
5565,-0.295,0.28,
5566,-0.215,0.3,
5567,-0.15,0.3,
5568,-0.095,0.315,
5569,-0.03,0.32,
5570,0.02,0.33,
5571,0.065,0.34,
5572,0.11,0.34,
5573,0.14,0.355,
5574,0.14,0.36,
5575,0.155,0.355,
5576,0.17,0.38,
5577,0.2,0.395,
5578,0.245,0.405,
5579,0.255,0.42,
5580,0.28,0.405,
5581,0.3,0.425,
5582,0.31,0.435,
5583,0.35,0.46,
5584,0.37,0.47,
5585,0.4,0.475,
5586,0.405,0.48,
5587,0.425,0.475,
5588,0.45,0.51,
5589,0.49,0.525,
5590,0.515,0.54,
5591,0.54,0.55,
5592,0.56,0.545,
5593,0.565,0.555,
5594,0.585,0.57,
5595,0.625,0.605,
5596,0.665,0.62,
5597,0.69,0.64,
5598,0.73,0.635,
5599,0.75,0.66,
5600,0.76,0.67,
5601,0.805,0.7,
5602,0.845,0.71,
5603,0.875,0.725,
5604,0.885,0.73,
5605,0.915,0.73,
5606,0.94,0.76,
5607,0.97,0.765,
5608,0.995,0.795,
5609,1.03,0.8,
5610,1.04,0.795,
5611,1.06,0.805,
5612,1.07,0.83,
5613,1.08,0.84,
5614,1.11,0.85,
5615,1.1,0.85,
5616,1.11,0.845,
5617,1.095,0.845,
5618,1.095,0.835,
5619,1.11,0.84,
5620,1.115,0.835,
5621,1.105,0.83,
5622,1.08,0.81,
5623,1.07,0.8,
5624,1.045,0.79,
5625,1.04,0.785,
5626,1.025,0.755,
5627,1.02,0.745,
5628,0.98,0.71,
5629,0.94,0.67,
5630,0.905,0.655,
5631,0.88,0.64,
5632,0.865,0.62,
5633,0.825,0.595,
5634,0.785,0.535,
5635,0.745,0.5,
5636,0.705,0.48,
5637,0.675,0.445,
5638,0.635,0.435,
5639,0.595,0.395,
5640,0.555,0.35,
5641,0.495,0.3,
5642,0.445,0.285,
5643,0.41,0.27,
5644,0.375,0.255,
5645,0.335,0.225,
5646,0.27,0.185,
5647,0.235,0.165,
5648,0.195,0.145,
5649,0.15,0.14,
5650,0.11,0.12,
5651,0.07,0.105,
5652,0.03,0.085,
5653,-0.03,0.065,
5654,-0.05,0.055,
5655,-0.075,0.08,
5656,-0.1,0.065,
5657,-0.12,0.07,
5658,-0.165,0.045,
5659,-0.2,0.02,
5660,-0.225,0.035,
5661,-0.23,0.04,
5662,-0.245,0.04,
5663,-0.255,0.045,
5664,-0.27,0.04,
5665,-0.3,0.02,
5666,-0.325,0.02,
5667,-0.325,0.04,
5668,-0.315,0.03,
5669,-0.32,0.045,
5670,-0.335,0.035,
5671,-0.345,0.025,
5672,-0.36,0.025,
5673,-0.35,0.035,
5674,-0.365,0.05,
5675,-0.365,0.05,
5676,-0.37,0.035,
5677,-0.375,0.03,
5678,-0.39,0.03,
5679,-0.385,0.045,
5680,-0.38,0.04,
5681,-0.37,0.05,
5682,-0.38,0.03,
5683,-0.395,0.04,
5684,-0.405,0.04,
5685,-0.395,0.05,
5686,-0.38,0.05,
5687,-0.38,0.045,
5688,-0.385,0.045,
5689,-0.385,0.055,
5690,-0.39,0.045,
5691,-0.38,0.06,
5692,-0.375,0.075,
5693,-0.375,0.07,
5694,-0.385,0.07,
5695,-0.385,0.06,
5696,-0.39,0.06,
5697,-0.375,0.075,
5698,-0.375,0.09,
5699,-0.37,0.105,
5700,-0.38,0.12,
5701,-0.375,0.14,
5702,-0.37,0.175,
5703,-0.345,0.21,
5704,-0.315,0.245,
5705,-0.3,0.255,
5706,-0.29,0.25,
5707,-0.28,0.25,
5708,-0.25,0.265,
5709,-0.205,0.315,
5710,-0.155,0.35,
5711,-0.115,0.365,
5712,-0.1,0.36,
5713,-0.08,0.3,
5714,-0.055,0.28,
5715,-0.035,0.225,
5716,-0.015,0.195,
5717,0.005,0.155,
5718,0.035,0.13,
5719,0.04,0.1,
5720,0.035,0.09,
5721,0.03,0.085,
5722,0.02,0.065,
5723,-0.01,0.05,
5724,-0.025,0.025,
5725,-0.045,0.01,
5726,-0.065,0.005,
5727,-0.055,0.01,
5728,-0.035,0.025,
5729,-0.055,0.015,
5730,-0.065,0.0,
5731,-0.08,-0.01,
5732,-0.1,0.0,
5733,-0.105,-0.01,
5734,-0.115,-0.005,
5735,-0.14,-0.015,
5736,-0.175,-0.02,
5737,-0.205,-0.015,
5738,-0.235,0.0,
5739,-0.25,0.025,
5740,-0.265,0.035,
5741,-0.29,0.045,
5742,-0.32,0.02,
5743,-0.35,-0.005,
5744,-0.38,0.0,
5745,-0.38,0.01,
5746,-0.4,0.01,
5747,-0.41,-0.01,
5748,-0.435,-0.01,
5749,-0.46,-0.02,
5750,-0.49,-0.015,
5751,-0.49,-0.005,
5752,-0.5,-0.005,
5753,-0.51,-0.005,
5754,-0.525,-0.025,
5755,-0.525,-0.03,
5756,-0.535,-0.025,
5757,-0.525,0.0,
5758,-0.53,-0.005,
5759,-0.53,-0.005,
5760,-0.53,-0.015,
5761,-0.54,-0.015,
5762,-0.55,-0.005,
5763,-0.545,0.01,
5764,-0.525,0.005,
5765,-0.53,0.02,
5766,-0.535,0.01,
5767,-0.54,0.0,
5768,-0.55,-0.005,
5769,-0.535,0.005,
5770,-0.53,0.01,
5771,-0.525,0.02,
5772,-0.53,0.02,
5773,-0.545,0.025,
5774,-0.54,0.025,
5775,-0.535,0.05,
5776,-0.525,0.05,
5777,-0.52,0.03,
5778,-0.515,0.02,
5779,-0.535,0.01,
5780,-0.535,0.05,
5781,-0.52,0.065,
5782,-0.515,0.07,
5783,-0.5,0.055,
5784,-0.51,0.045,
5785,-0.525,0.03,
5786,-0.525,0.045,
5787,-0.52,0.06,
5788,-0.495,0.065,
5789,-0.49,0.065,
5790,-0.47,0.045,
5791,-0.46,0.025,
5792,-0.455,0.035,
5793,-0.425,0.025,
5794,-0.395,-0.16,
5795,-0.36,-0.5,
5796,-0.26,-0.665,
5797,-0.04,-0.495,
5798,0.43,-0.255,
5799,1.065,-0.145,
5800,1.59,-0.145,
5801,1.695,-0.14,
5802,1.54,-0.13,
5803,1.35,-0.12,
5804,1.245,-0.115,/
5805,1.19,-0.11,
5806,1.15,-0.13,
5807,1.065,-0.14,
5808,0.975,-0.16,
5809,0.89,-0.2,
5810,0.825,-0.2,
5811,0.77,-0.21,
5812,0.72,-0.225,
5813,0.665,-0.25,
5814,0.58,-0.295,
5815,0.48,-0.335,
5816,0.395,-0.355,
5817,0.305,-0.365,
5818,0.235,-0.405,
5819,0.135,-0.45,
5820,0.02,-0.53,
5821,-0.115,-0.605,
5822,-0.25,-0.66,
5823,-0.375,-0.695,
5824,-0.525,-0.735,
5825,-0.64,-0.775,
5826,-0.78,-0.845,
5827,-0.955,-0.94,
5828,-1.125,-1.035,
5829,-1.265,-1.125,
5830,-1.38,-1.22,
5831,-1.48,-1.29,
5832,-1.54,-1.375,
5833,-1.615,-1.43,
5834,-1.66,-1.51,
5835,-1.71,-1.56,
5836,-1.77,-1.62,
5837,-1.86,-1.67,
5838,-1.99,-1.74,
5839,-2.1,-1.82,
5840,-2.17,-1.88,
5841,-2.22,-1.93,
5842,-2.285,-1.93,
5843,-2.35,-1.83,
5844,-2.375,-1.715,
5845,-2.345,-1.595,
5846,-2.24,-1.44,
5847,-2.125,-1.275,
5848,-2.005,-1.135,
5849,-1.885,-1.005,
5850,-1.74,-0.89,
5851,-1.625,-0.82,
5852,-1.54,-0.7,
5853,-1.455,-0.59,
5854,-1.395,-0.49,
5855,-1.3,-0.4,
5856,-1.245,-0.345,
5857,-1.205,-0.28,
5858,-1.165,-0.225,
5859,-1.11,-0.155,
5860,-1.065,-0.08,
5861,-1.03,-0.045,
5862,-1.025,-0.01,
5863,-1.015,0.005,
5864,-0.99,0.05,
5865,-0.945,0.105,
5866,-0.88,0.145,
5867,-0.81,0.17,
5868,-0.75,0.2,
5869,-0.7,0.225,
5870,-0.65,0.27,
5871,-0.58,0.305,
5872,-0.5,0.34,
5873,-0.42,0.37,
5874,-0.335,0.395,
5875,-0.265,0.395,
5876,-0.205,0.425,
5877,-0.13,0.445,
5878,-0.07,0.455,
5879,-0.005,0.455,
5880,0.06,0.45,
5881,0.095,0.46,
5882,0.115,0.475,
5883,0.135,0.495,
5884,0.155,0.505,
5885,0.165,0.515,
5886,0.175,0.505,
5887,0.195,0.515,
5888,0.2,0.535,
5889,0.225,0.55,
5890,0.26,0.57,
5891,0.275,0.58,
5892,0.29,0.58,
5893,0.3,0.58,
5894,0.31,0.59,
5895,0.33,0.605,
5896,0.365,0.635,
5897,0.39,0.635,
5898,0.405,0.64,
5899,0.42,0.645,
5900,0.43,0.67,
5901,0.475,0.695,
5902,0.49,0.705,
5903,0.52,0.71,
5904,0.55,0.725,
5905,0.56,0.725,
5906,0.575,0.745,
5907,0.62,0.77,
5908,0.64,0.8,
5909,0.67,0.815,
5910,0.69,0.815,
5911,0.715,0.82,
5912,0.745,0.85,
5913,0.765,0.87,
5914,0.8,0.895,
5915,0.82,0.9,
5916,0.835,0.895,
5917,0.855,0.915,
5918,0.885,0.94,
5919,0.92,0.95,
5920,0.92,0.97,
5921,0.945,0.965,
5922,0.945,0.965,
5923,0.96,0.955,
5924,0.955,0.97,
5925,0.975,0.98,
5926,0.985,0.99,
5927,0.985,0.98,
5928,0.98,0.975,
5929,0.97,0.97,
5930,0.95,0.975,
5931,0.955,0.975,
5932,0.955,0.97,
5933,0.95,0.95,
5934,0.945,0.93,
5935,0.92,0.9,
5936,0.9,0.885,
5937,0.885,0.875,
5938,0.855,0.855,
5939,0.84,0.82,
5940,0.8,0.775,
5941,0.765,0.735,
5942,0.735,0.7,
5943,0.7,0.695,
5944,0.685,0.66,
5945,0.65,0.635,
5946,0.605,0.58,
5947,0.57,0.53,
5948,0.53,0.515,
5949,0.505,0.495,
5950,0.475,0.465,
5951,0.445,0.45,
5952,0.365,0.405,
5953,0.315,0.38,
5954,0.275,0.36,
5955,0.25,0.345,
5956,0.22,0.34,
5957,0.175,0.315,
5958,0.125,0.3,
5959,0.085,0.275,
5960,0.04,0.265,
5961,0.005,0.28,
5962,-0.015,0.305,
5963,-0.04,0.32,
5964,-0.06,0.35,
5965,-0.1,0.35,
5966,-0.115,0.365,
5967,-0.115,0.385,
5968,-0.125,0.4,
5969,-0.11,0.38,
5970,-0.1,0.395,
5971,-0.085,0.405,
5972,-0.055,0.44,
5973,0.005,0.465,
5974,0.05,0.45,
5975,0.07,0.43,
5976,0.07,0.39,
5977,0.06,0.34,
5978,0.065,0.32,
5979,0.07,0.295,
5980,0.085,0.28,
5981,0.095,0.265,
5982,0.07,0.25,
5983,0.05,0.225,
5984,0.01,0.205,
5985,-0.03,0.19,
5986,-0.05,0.19,
5987,-0.055,0.185,
5988,-0.075,0.185,
5989,-0.095,0.18,
5990,-0.1,0.195,
5991,-0.09,0.2,
5992,-0.1,0.2,
5993,-0.11,0.195,
5994,-0.15,0.195,
5995,-0.17,0.17,
5996,-0.195,0.195,
5997,-0.205,0.205,
5998,-0.21,0.215,
5999,-0.235,0.21,
6000,-0.26,0.225,
6001,-0.285,0.215,
6002,-0.33,0.225,
6003,-0.35,0.23,
6004,-0.37,0.235,
6005,-0.4,0.23,
6006,-0.42,0.22,
6007,-0.47,0.21,
6008,-0.47,0.205,
6009,-0.465,0.2,
6010,-0.45,0.2,
6011,-0.465,0.195,
6012,-0.475,0.175,
6013,-0.505,0.17,
6014,-0.545,0.185,
6015,-0.54,0.19,
6016,-0.535,0.195,
6017,-0.53,0.195,
6018,-0.545,0.2,
6019,-0.555,0.165,
6020,-0.555,0.175,
6021,-0.55,0.185,
6022,-0.545,0.195,
6023,-0.55,0.195,
6024,-0.55,0.165,
6025,-0.57,0.16,
6026,-0.585,0.165,
6027,-0.57,0.17,
6028,-0.57,0.185,
6029,-0.56,0.18,
6030,-0.58,0.175,
6031,-0.59,0.16,
6032,-0.585,0.15,
6033,-0.58,0.17,
6034,-0.585,0.165,
6035,-0.6,0.175,
6036,-0.59,0.17,
6037,-0.57,0.15,
6038,-0.565,0.155,
6039,-0.585,0.175,
6040,-0.585,0.175,
6041,-0.59,0.175,
6042,-0.585,0.185,
6043,-0.565,0.165,
6044,-0.56,0.165,
6045,-0.56,0.18,
6046,-0.56,0.175,
6047,-0.565,0.17,
6048,-0.585,0.175,
6049,-0.595,0.17,
6050,-0.585,0.165,
6051,-0.585,0.175,
6052,-0.575,0.18,
6053,-0.58,0.195,
6054,-0.59,0.195,
6055,-0.61,0.185,
6056,-0.605,0.175,
6057,-0.58,0.185,
6058,-0.57,0.185,
6059,-0.565,0.19,
6060,-0.595,0.175,
6061,-0.59,0.185,
6062,-0.59,0.2,
6063,-0.585,0.21,
6064,-0.58,0.205,
6065,-0.57,0.225,
6066,-0.57,0.2,
6067,-0.58,0.19,
6068,-0.59,0.195,
6069,-0.57,0.215,
6070,-0.565,0.23,
6071,-0.565,0.23,
6072,-0.56,0.22,
6073,-0.56,0.195,
6074,-0.575,0.215,
6075,-0.545,0.22,
6076,-0.54,0.23,
6077,-0.54,0.235,
6078,-0.545,0.23,
6079,-0.545,0.235,
6080,-0.53,0.225,
6081,-0.525,0.24,
6082,-0.51,0.24,
6083,-0.505,0.235,
6084,-0.505,0.23,
6085,-0.5,0.22,
6086,-0.5,0.225,
6087,-0.49,0.225,
6088,-0.48,0.235,
6089,-0.475,0.235,
6090,-0.47,0.215,
6091,-0.47,0.215,
6092,-0.465,0.215,
6093,-0.46,0.22,
6094,-0.45,0.22,
6095,-0.435,0.215,
6096,-0.42,0.205,
6097,-0.43,0.19,
6098,-0.405,0.14,
6099,-0.37,-0.105,
6100,-0.31,-0.415,
6101,-0.21,-0.515,
6102,0.035,-0.325,
6103,0.485,-0.14,
6104,1.115,-0.045,
6105,1.59,-0.035,
6106,1.72,-0.035,
6107,1.565,-0.025,
6108,1.385,-0.015,
6109,1.275,-0.035,/
6110,1.21,-0.03,
6111,1.14,-0.05,
6112,1.06,-0.055,
6113,0.965,-0.085,
6114,0.875,-0.11,
6115,0.775,-0.135,
6116,0.675,-0.15,
6117,0.595,-0.175,
6118,0.49,-0.18,
6119,0.36,-0.205,
6120,0.22,-0.23,
6121,0.07,-0.27,
6122,-0.09,-0.31,
6123,-0.23,-0.355,
6124,-0.385,-0.415,
6125,-0.565,-0.485,
6126,-0.745,-0.545,
6127,-0.93,-0.58,
6128,-1.11,-0.63,
6129,-1.285,-0.69,
6130,-1.445,-0.765,
6131,-1.615,-0.885,
6132,-1.785,-1.025,
6133,-1.93,-1.15,
6134,-2.06,-1.225,
6135,-2.115,-1.27,
6136,-2.145,-1.345,
6137,-2.185,-1.44,
6138,-2.25,-1.535,
6139,-2.335,-1.62,
6140,-2.42,-1.7,
6141,-2.47,-1.77,
6142,-2.52,-1.87,
6143,-2.58,-1.92,
6144,-2.64,-1.885,
6145,-2.685,-1.795,
6146,-2.67,-1.65,
6147,-2.575,-1.49,
6148,-2.425,-1.325,
6149,-2.255,-1.175,
6150,-2.085,-1.05,
6151,-1.89,-0.91,
6152,-1.715,-0.8,
6153,-1.565,-0.67,
6154,-1.46,-0.55,
6155,-1.385,-0.445,
6156,-1.315,-0.36,
6157,-1.24,-0.3,
6158,-1.18,-0.205,
6159,-1.11,-0.125,
6160,-1.065,-0.05,
6161,-1.035,-0.005,
6162,-1.025,0.04,
6163,-1.02,0.08,
6164,-1.005,0.145,
6165,-0.945,0.19,
6166,-0.875,0.24,
6167,-0.805,0.29,
6168,-0.755,0.31,
6169,-0.695,0.34,
6170,-0.65,0.375,
6171,-0.58,0.425,
6172,-0.515,0.465,
6173,-0.445,0.49,
6174,-0.355,0.495,
6175,-0.29,0.52,
6176,-0.215,0.545,
6177,-0.135,0.57,
6178,-0.06,0.565,
6179,-0.005,0.58,
6180,0.05,0.59,
6181,0.105,0.58,
6182,0.12,0.61,
6183,0.145,0.625,
6184,0.175,0.64,
6185,0.185,0.65,
6186,0.215,0.655,
6187,0.235,0.655,
6188,0.245,0.675,
6189,0.26,0.68,
6190,0.265,0.695,
6191,0.28,0.705,
6192,0.3,0.71,
6193,0.325,0.715,
6194,0.355,0.745,
6195,0.365,0.765,
6196,0.405,0.78,
6197,0.44,0.79,
6198,0.46,0.8,
6199,0.465,0.81,
6200,0.475,0.83,
6201,0.52,0.845,
6202,0.555,0.88,
6203,0.58,0.88,
6204,0.61,0.9,
6205,0.625,0.905,
6206,0.665,0.93,
6207,0.695,0.96,
6208,0.72,0.985,
6209,0.73,1.0,
6210,0.775,1.02,
6211,0.795,1.03,
6212,0.815,1.085,
6213,0.84,1.13,
6214,0.865,1.185,
6215,0.905,1.225,
6216,0.935,1.255,
6217,0.96,1.27,
6218,0.97,1.31,
6219,1.015,1.32,
6220,1.05,1.35,
6221,1.09,1.375,
6222,1.11,1.38,
6223,1.125,1.39,
6224,1.155,1.415,
6225,1.195,1.4,
6226,1.22,1.375,
6227,1.215,1.315,
6228,1.215,1.27,
6229,1.215,1.215,
6230,1.215,1.185,
6231,1.225,1.17,
6232,1.22,1.13,
6233,1.2,1.075,
6234,1.155,1.01,
6235,1.09,0.965,
6236,1.045,0.905,
6237,1.025,0.87,
6238,0.995,0.835,
6239,0.96,0.805,
6240,0.925,0.75,
6241,0.88,0.71,
6242,0.86,0.675,
6243,0.81,0.635,
6244,0.775,0.605,
6245,0.73,0.57,
6246,0.67,0.525,
6247,0.595,0.48,
6248,0.525,0.46,
6249,0.475,0.445,
6250,0.425,0.435,
6251,0.355,0.41,
6252,0.28,0.38,
6253,0.19,0.35,
6254,0.115,0.33,
6255,0.055,0.315,
6256,0.01,0.3,
6257,-0.045,0.3,
6258,-0.1,0.26,
6259,-0.17,0.245,
6260,-0.21,0.235,
6261,-0.23,0.23,
6262,-0.27,0.22,
6263,-0.32,0.225,
6264,-0.365,0.21,
6265,-0.415,0.19,
6266,-0.435,0.19,
6267,-0.45,0.195,
6268,-0.46,0.195,
6269,-0.47,0.2,
6270,-0.49,0.185,
6271,-0.515,0.175,
6272,-0.535,0.19,
6273,-0.545,0.2,
6274,-0.535,0.2,
6275,-0.535,0.205,
6276,-0.545,0.19,
6277,-0.555,0.185,
6278,-0.58,0.195,
6279,-0.57,0.195,
6280,-0.58,0.215,
6281,-0.575,0.22,
6282,-0.59,0.21,
6283,-0.605,0.205,
6284,-0.615,0.21,
6285,-0.6,0.215,
6286,-0.595,0.215,
6287,-0.6,0.225,
6288,-0.605,0.215,
6289,-0.62,0.21,
6290,-0.625,0.22,
6291,-0.615,0.23,
6292,-0.605,0.235,
6293,-0.61,0.225,
6294,-0.625,0.23,
6295,-0.625,0.23,
6296,-0.62,0.23,
6297,-0.625,0.255,
6298,-0.63,0.255,
6299,-0.625,0.25,
6300,-0.625,0.25,
6301,-0.62,0.24,
6302,-0.615,0.24,
6303,-0.61,0.25,
6304,-0.6,0.26,
6305,-0.6,0.25,
6306,-0.605,0.25,
6307,-0.615,0.245,
6308,-0.61,0.26,
6309,-0.6,0.245,
6310,-0.605,0.275,
6311,-0.6,0.265,
6312,-0.605,0.265,
6313,-0.595,0.255,
6314,-0.61,0.265,
6315,-0.605,0.26,
6316,-0.59,0.265,
6317,-0.585,0.26,
6318,-0.59,0.25,
6319,-0.59,0.25,
6320,-0.6,0.26,
6321,-0.58,0.26,
6322,-0.57,0.27,
6323,-0.58,0.265,
6324,-0.605,0.265,
6325,-0.61,0.24,
6326,-0.605,0.255,
6327,-0.59,0.26,
6328,-0.585,0.265,
6329,-0.58,0.27,
6330,-0.58,0.265,
6331,-0.585,0.26,
6332,-0.585,0.25,
6333,-0.575,0.27,
6334,-0.575,0.28,
6335,-0.575,0.27,
6336,-0.57,0.265,
6337,-0.585,0.255,
6338,-0.585,0.27,
6339,-0.58,0.275,
6340,-0.565,0.28,
6341,-0.565,0.28,
6342,-0.56,0.27,
6343,-0.56,0.25,
6344,-0.57,0.265,
6345,-0.55,0.275,
6346,-0.555,0.275,
6347,-0.545,0.265,
6348,-0.55,0.26,
6349,-0.555,0.265,
6350,-0.555,0.27,
6351,-0.555,0.285,
6352,-0.54,0.275,
6353,-0.535,0.275,
6354,-0.535,0.28,
6355,-0.545,0.26,
6356,-0.54,0.265,
6357,-0.535,0.28,
6358,-0.53,0.3,
6359,-0.515,0.285,
6360,-0.525,0.27,
6361,-0.525,0.275,
6362,-0.525,0.285,
6363,-0.515,0.3,
6364,-0.49,0.315,
6365,-0.495,0.315,
6366,-0.49,0.3,
6367,-0.505,0.315,
6368,-0.515,0.32,
6369,-0.485,0.33,
6370,-0.48,0.33,
6371,-0.48,0.335,
6372,-0.485,0.33,
6373,-0.505,0.32,
6374,-0.505,0.325,
6375,-0.475,0.33,
6376,-0.465,0.34,
6377,-0.465,0.33,
6378,-0.46,0.32,
6379,-0.46,0.32,
6380,-0.46,0.325,
6381,-0.44,0.325,
6382,-0.43,0.33,
6383,-0.425,0.33,
6384,-0.435,0.32,
6385,-0.43,0.31,
6386,-0.435,0.325,
6387,-0.44,0.335,
6388,-0.425,0.335,
6389,-0.415,0.325,
6390,-0.415,0.31,
6391,-0.41,0.3,
6392,-0.415,0.295,
6393,-0.4,0.305,
6394,-0.37,0.305,
6395,-0.355,0.305,
6396,-0.345,0.26,
6397,-0.325,0.085,
6398,-0.295,-0.225,
6399,-0.205,-0.39,
6400,-0.025,-0.29,
6401,0.355,-0.065,
6402,0.92,0.035,
6403,1.46,0.045,
6404,1.715,0.06,
6405,1.655,0.085,
6406,1.48,0.1,
6407,1.37,0.1,/
6408,1.295,0.09,
6409,1.225,0.06,
6410,1.14,0.05,
6411,1.05,0.045,
6412,0.97,0.03,
6413,0.87,0.005,
6414,0.785,-0.015,
6415,0.71,-0.055,
6416,0.615,-0.065,
6417,0.52,-0.085,
6418,0.43,-0.09,
6419,0.31,-0.12,
6420,0.18,-0.155,
6421,0.04,-0.2,
6422,-0.1,-0.245,
6423,-0.245,-0.285,
6424,-0.405,-0.35,
6425,-0.605,-0.395,
6426,-0.835,-0.45,
6427,-1.075,-0.5,
6428,-1.285,-0.555,
6429,-1.475,-0.625,
6430,-1.62,-0.725,
6431,-1.745,-0.86,
6432,-1.845,-0.99,
6433,-1.95,-1.08,
6434,-2.01,-1.125,
6435,-2.06,-1.175,
6436,-2.09,-1.275,
6437,-2.135,-1.345,
6438,-2.225,-1.46,
6439,-2.31,-1.565,
6440,-2.365,-1.65,
6441,-2.41,-1.745,
6442,-2.465,-1.785,
6443,-2.525,-1.75,
6444,-2.57,-1.64,
6445,-2.565,-1.5,
6446,-2.48,-1.34,
6447,-2.295,-1.17,
6448,-2.095,-1.01,
6449,-1.895,-0.88,
6450,-1.73,-0.8,
6451,-1.595,-0.7,
6452,-1.46,-0.58,
6453,-1.34,-0.475,
6454,-1.255,-0.35,
6455,-1.17,-0.26,
6456,-1.13,-0.19,
6457,-1.085,-0.13,
6458,-1.05,-0.05,
6459,-1.0,0.035,
6460,-0.965,0.085,
6461,-0.95,0.135,
6462,-0.955,0.16,
6463,-0.945,0.195,
6464,-0.915,0.245,
6465,-0.85,0.29,
6466,-0.79,0.34,
6467,-0.72,0.385,
6468,-0.67,0.425,
6469,-0.63,0.485,
6470,-0.57,0.555,
6471,-0.495,0.62,
6472,-0.415,0.675,
6473,-0.32,0.73,
6474,-0.21,0.765,
6475,-0.105,0.77,
6476,-0.01,0.815,
6477,0.08,0.84,
6478,0.165,0.88,
6479,0.265,0.915,
6480,0.345,0.94,
6481,0.425,0.925,
6482,0.47,0.92,
6483,0.51,0.905,
6484,0.555,0.85,
6485,0.575,0.815,
6486,0.61,0.775,
6487,0.64,0.745,
6488,0.685,0.745,
6489,0.72,0.735,
6490,0.725,0.73,
6491,0.72,0.74,
6492,0.695,0.725,
6493,0.695,0.72,
6494,0.705,0.725,
6495,0.74,0.745,
6496,0.775,0.765,
6497,0.81,0.79,
6498,0.825,0.78,
6499,0.84,0.78,
6500,0.835,0.805,
6501,0.86,0.82,
6502,0.89,0.85,
6503,0.91,0.85,
6504,0.91,0.875,
6505,0.91,0.885,
6506,0.905,0.92,
6507,0.935,0.935,
6508,0.955,0.97,
6509,0.975,0.985,
6510,0.965,0.99,
6511,0.975,0.99,
6512,0.98,1.01,
6513,0.995,1.025,
6514,1.025,1.045,
6515,1.025,1.05,
6516,1.035,1.04,
6517,1.04,1.035,
6518,1.05,1.04,
6519,1.06,1.06,
6520,1.095,1.08,
6521,1.085,1.075,
6522,1.085,1.06,
6523,1.085,1.06,
6524,1.08,1.07,
6525,1.075,1.085,
6526,1.09,1.08,
6527,1.08,1.075,
6528,1.07,1.075,
6529,1.035,1.045,
6530,1.025,1.035,
6531,1.03,1.035,
6532,1.015,1.025,
6533,0.985,0.995,
6534,0.95,0.975,
6535,0.92,0.935,
6536,0.88,0.91,
6537,0.86,0.895,
6538,0.85,0.88,
6539,0.81,0.855,
6540,0.77,0.805,
6541,0.715,0.77,
6542,0.675,0.735,
6543,0.655,0.705,
6544,0.61,0.69,
6545,0.565,0.645,
6546,0.525,0.61,
6547,0.46,0.565,
6548,0.41,0.54,
6549,0.38,0.52,
6550,0.335,0.495,
6551,0.285,0.455,
6552,0.23,0.43,
6553,0.175,0.415,
6554,0.13,0.38,
6555,0.105,0.38,
6556,0.065,0.375,
6557,0.025,0.345,
6558,-0.03,0.325,
6559,-0.085,0.295,
6560,-0.125,0.3,
6561,-0.165,0.3,
6562,-0.185,0.3,
6563,-0.215,0.28,
6564,-0.245,0.265,
6565,-0.275,0.255,
6566,-0.3,0.265,
6567,-0.32,0.275,
6568,-0.34,0.28,
6569,-0.365,0.265,
6570,-0.39,0.265,
6571,-0.415,0.265,
6572,-0.425,0.27,
6573,-0.425,0.28,
6574,-0.43,0.28,
6575,-0.43,0.275,
6576,-0.44,0.28,
6577,-0.455,0.265,
6578,-0.465,0.28,
6579,-0.46,0.305,
6580,-0.46,0.295,
6581,-0.465,0.3,
6582,-0.485,0.285,
6583,-0.485,0.28,
6584,-0.49,0.305,
6585,-0.495,0.32,
6586,-0.475,0.325,
6587,-0.48,0.33,
6588,-0.49,0.32,
6589,-0.495,0.325,
6590,-0.5,0.335,
6591,-0.495,0.345,
6592,-0.5,0.35,
6593,-0.495,0.335,
6594,-0.485,0.33,
6595,-0.49,0.33,
6596,-0.5,0.345,
6597,-0.49,0.365,
6598,-0.485,0.365,
6599,-0.495,0.375,
6600,-0.49,0.355,
6601,-0.49,0.34,
6602,-0.49,0.355,
6603,-0.48,0.365,
6604,-0.46,0.385,
6605,-0.455,0.375,
6606,-0.455,0.37,
6607,-0.475,0.365,
6608,-0.47,0.365,
6609,-0.45,0.36,
6610,-0.44,0.365,
6611,-0.435,0.37,
6612,-0.445,0.355,
6613,-0.455,0.355,
6614,-0.45,0.36,
6615,-0.44,0.365,
6616,-0.43,0.375,
6617,-0.43,0.36,
6618,-0.43,0.365,
6619,-0.425,0.335,
6620,-0.435,0.355,
6621,-0.425,0.355,
6622,-0.415,0.355,
6623,-0.42,0.345,
6624,-0.415,0.345,
6625,-0.42,0.335,
6626,-0.425,0.34,
6627,-0.405,0.35,
6628,-0.4,0.355,
6629,-0.39,0.345,
6630,-0.4,0.34,
6631,-0.41,0.33,
6632,-0.41,0.34,
6633,-0.41,0.335,
6634,-0.41,0.335,
6635,-0.405,0.33,
6636,-0.4,0.335,
6637,-0.405,0.31,
6638,-0.405,0.325,
6639,-0.405,0.33,
6640,-0.395,0.35,
6641,-0.4,0.345,
6642,-0.41,0.32,
6643,-0.43,0.31,
6644,-0.425,0.3,
6645,-0.42,0.315,
6646,-0.41,0.32,
6647,-0.4,0.325,
6648,-0.4,0.315,
6649,-0.415,0.31,
6650,-0.42,0.31,
6651,-0.42,0.315,
6652,-0.4,0.32,
6653,-0.395,0.325,
6654,-0.395,0.305,
6655,-0.395,0.31,
6656,-0.395,0.305,
6657,-0.395,0.31,
6658,-0.38,0.32,
6659,-0.385,0.31,
6660,-0.4,0.285,
6661,-0.41,0.295,
6662,-0.41,0.3,
6663,-0.385,0.3,
6664,-0.37,0.3,
6665,-0.365,0.295,
6666,-0.375,0.29,
6667,-0.38,0.285,
6668,-0.375,0.28,
6669,-0.37,0.295,
6670,-0.365,0.295,
6671,-0.37,0.295,
6672,-0.36,0.28,
6673,-0.38,0.275,
6674,-0.38,0.275,
6675,-0.38,0.29,
6676,-0.37,0.29,
6677,-0.36,0.29,
6678,-0.37,0.28,
6679,-0.375,0.285,
6680,-0.375,0.265,
6681,-0.36,0.28,
6682,-0.35,0.285,
6683,-0.36,0.275,
6684,-0.375,0.275,
6685,-0.375,0.255,
6686,-0.375,0.27,
6687,-0.37,0.275,
6688,-0.36,0.28,
6689,-0.35,0.275,
6690,-0.345,0.27,
6691,-0.345,0.245,
6692,-0.36,0.26,
6693,-0.345,0.265,
6694,-0.335,0.275,
6695,-0.33,0.265,
6696,-0.325,0.265,
6697,-0.325,0.24,
6698,-0.315,0.235,
6699,-0.305,0.23,
6700,-0.295,0.155,
6701,-0.255,-0.11,
6702,-0.22,-0.465,
6703,-0.135,-0.54,
6704,0.08,-0.3,
6705,0.53,-0.07,
6706,1.145,0.02,
6707,1.655,0.015,
6708,1.785,0.02,
6709,1.63,0.025,
6710,1.435,0.035,
6711,1.34,0.045,
6712,1.305,0.025,/
6713,1.245,0.015,
6714,1.14,-0.01,
6715,1.03,-0.04,
6716,0.92,-0.05,
6717,0.83,-0.05,
6718,0.74,-0.075,
6719,0.66,-0.11,
6720,0.535,-0.13,
6721,0.405,-0.155,
6722,0.265,-0.16,
6723,0.105,-0.19,
6724,-0.04,-0.23,
6725,-0.195,-0.295,
