,MLII,V1,symbol
0,-0.125,-0.78,
1,-0.125,-0.78,
2,-0.125,-0.78,
3,-0.125,-0.78,
4,-0.125,-0.78,
5,-0.125,-0.78,
6,-0.125,-0.78,
7,-0.125,-0.8,
8,-0.135,-0.81,
9,-0.125,-0.84,
10,-0.125,-0.83,
11,-0.12,-0.82,
12,-0.095,-0.815,
13,-0.085,-0.81,
14,-0.105,-0.8,
15,-0.17,-0.815,
16,-0.225,-0.835,
17,-0.255,-0.84,
18,-0.28,-0.82,
19,-0.295,-0.81,
20,-0.34,-0.825,
21,-0.395,-0.85,
22,-0.41,-0.86,
23,-0.405,-0.845,+
24,-0.38,-0.84,
25,-0.37,-0.845,
26,-0.39,-0.85,
27,-0.41,-0.865,
28,-0.425,-0.875,
29,-0.42,-0.855,
30,-0.405,-0.85,
31,-0.37,-0.855,
32,-0.375,-0.855,
33,-0.39,-0.85,
34,-0.41,-0.865,
35,-0.405,-0.865,
36,-0.395,-0.855,
37,-0.375,-0.85,
38,-0.39,-0.845,
39,-0.395,-0.845,
40,-0.395,-0.86,
41,-0.395,-0.85,
42,-0.385,-0.84,
43,-0.38,-0.83,
44,-0.385,-0.84,
45,-0.4,-0.855,
46,-0.405,-0.86,
47,-0.405,-0.855,
48,-0.405,-0.855,
49,-0.415,-0.855,
50,-0.435,-0.855,
51,-0.425,-0.87,
52,-0.425,-0.87,
53,-0.39,-0.855,
54,-0.375,-0.845,
55,-0.365,-0.83,
56,-0.37,-0.815,
57,-0.365,-0.825,
58,-0.38,-0.835,
59,-0.405,-0.855,
60,-0.405,-0.905,
61,-0.39,-0.95,
62,-0.365,-1.045,
63,-0.33,-1.14,
64,-0.32,-1.26,
65,-0.295,-1.435,
66,-0.27,-1.67,
67,-0.28,-1.92,
68,-0.34,-2.095,
69,-0.44,-2.17,
70,-0.51,-2.17,
71,-0.52,-2.125,
72,-0.51,-2.08,
73,-0.51,-2.055,
74,-0.535,-2.03,
75,-0.54,-1.995,
76,-0.585,-1.955,
77,-0.625,-1.93,
78,-0.64,-1.89,
79,-0.65,-1.86,
80,-0.685,-1.835,
81,-0.73,-1.81,
82,-0.78,-1.765,
83,-0.835,-1.71,
84,-0.885,-1.665,
85,-0.915,-1.625,
86,-0.94,-1.6,
87,-0.975,-1.585,
88,-0.98,-1.53,N
89,-0.94,-1.445,
90,-0.915,-1.36,
91,-0.895,-1.27,
92,-0.89,-1.195,
93,-0.83,-1.14,
94,-0.76,-1.095,
95,-0.7,-1.025,
96,-0.625,-0.955,
97,-0.58,-0.885,
98,-0.545,-0.84,
99,-0.505,-0.82,
100,-0.485,-0.77,
101,-0.445,-0.725,
102,-0.395,-0.67,
103,-0.37,-0.655,
104,-0.37,-0.64,
105,-0.36,-0.645,
106,-0.36,-0.64,
107,-0.355,-0.615,
108,-0.325,-0.595,
109,-0.315,-0.585,
110,-0.32,-0.58,
111,-0.345,-0.595,
112,-0.345,-0.58,
113,-0.33,-0.58,
114,-0.3,-0.565,
115,-0.285,-0.555,
116,-0.3,-0.555,
117,-0.29,-0.545,
118,-0.295,-0.545,
119,-0.3,-0.54,
120,-0.29,-0.515,
121,-0.28,-0.51,
122,-0.285,-0.515,
123,-0.32,-0.53,
124,-0.32,-0.525,
125,-0.31,-0.51,
126,-0.295,-0.485,
127,-0.285,-0.485,
128,-0.275,-0.475,
129,-0.285,-0.485,
130,-0.29,-0.485,
131,-0.295,-0.475,
132,-0.285,-0.465,
133,-0.285,-0.475,
134,-0.29,-0.475,
135,-0.285,-0.485,
136,-0.275,-0.475,
137,-0.28,-0.465,
138,-0.27,-0.455,
139,-0.26,-0.45,
140,-0.27,-0.45,
141,-0.27,-0.47,
142,-0.275,-0.47,
143,-0.26,-0.455,
144,-0.24,-0.435,
145,-0.225,-0.425,
146,-0.24,-0.43,
147,-0.265,-0.435,
148,-0.28,-0.455,
149,-0.275,-0.435,
150,-0.24,-0.43,
151,-0.22,-0.425,
152,-0.22,-0.43,
153,-0.225,-0.44,
154,-0.24,-0.435,
155,-0.22,-0.43,
156,-0.2,-0.415,
157,-0.19,-0.415,
158,-0.185,-0.415,
159,-0.22,-0.435,
160,-0.245,-0.43,
161,-0.225,-0.42,
162,-0.195,-0.41,
163,-0.185,-0.405,
164,-0.165,-0.405,
165,-0.18,-0.42,
166,-0.19,-0.425,
167,-0.185,-0.415,
168,-0.18,-0.4,
169,-0.165,-0.395,
170,-0.17,-0.395,
171,-0.155,-0.415,
172,-0.16,-0.415,
173,-0.175,-0.425,
174,-0.175,-0.42,
175,-0.145,-0.425,
176,-0.17,-0.435,
177,-0.16,-0.44,
178,-0.165,-0.45,
179,-0.165,-0.455,
180,-0.16,-0.44,
181,-0.155,-0.445,
182,-0.165,-0.435,
183,-0.17,-0.455,
184,-0.19,-0.475,
185,-0.195,-0.475,
186,-0.195,-0.47,
187,-0.18,-0.48,
188,-0.18,-0.495,
189,-0.2,-0.5,
190,-0.2,-0.51,
191,-0.205,-0.49,
192,-0.2,-0.5,
193,-0.19,-0.515,
194,-0.19,-0.525,
195,-0.2,-0.55,
196,-0.23,-0.56,
197,-0.225,-0.57,
198,-0.21,-0.56,
199,-0.215,-0.565,
200,-0.205,-0.565,
201,-0.215,-0.565,
202,-0.23,-0.575,
203,-0.26,-0.57,
204,-0.255,-0.56,
205,-0.25,-0.57,
206,-0.24,-0.58,
207,-0.245,-0.58,
208,-0.25,-0.58,
209,-0.265,-0.58,
210,-0.27,-0.56,
211,-0.255,-0.555,
212,-0.265,-0.565,
213,-0.265,-0.575,
214,-0.27,-0.58,
215,-0.28,-0.565,
216,-0.26,-0.545,
217,-0.255,-0.545,
218,-0.26,-0.545,
219,-0.27,-0.565,
220,-0.275,-0.565,
221,-0.27,-0.56,
222,-0.255,-0.545,
223,-0.255,-0.54,
224,-0.26,-0.54,
225,-0.27,-0.54,
226,-0.275,-0.545,
227,-0.27,-0.535,
228,-0.265,-0.525,
229,-0.255,-0.515,
230,-0.265,-0.51,
231,-0.28,-0.52,
232,-0.285,-0.51,
233,-0.285,-0.5,
234,-0.28,-0.495,
235,-0.26,-0.48,
236,-0.265,-0.495,
237,-0.27,-0.5,
238,-0.28,-0.495,
239,-0.285,-0.48,
240,-0.285,-0.465,
241,-0.26,-0.46,
242,-0.255,-0.45,
243,-0.27,-0.465,
244,-0.275,-0.47,
245,-0.285,-0.45,
246,-0.27,-0.43,
247,-0.275,-0.425,
248,-0.29,-0.44,
249,-0.305,-0.44,
250,-0.32,-0.44,
251,-0.305,-0.435,
252,-0.29,-0.415,
253,-0.275,-0.415,
254,-0.285,-0.42,
255,-0.31,-0.425,
256,-0.325,-0.43,
257,-0.315,-0.41,
258,-0.315,-0.415,
259,-0.3,-0.41,
260,-0.31,-0.415,
261,-0.335,-0.43,
262,-0.34,-0.425,
263,-0.365,-0.41,
264,-0.355,-0.405,
265,-0.335,-0.4,
266,-0.34,-0.41,
267,-0.34,-0.425,
268,-0.375,-0.405,
269,-0.365,-0.41,
270,-0.35,-0.41,
271,-0.34,-0.41,
272,-0.36,-0.405,
273,-0.36,-0.41,
274,-0.375,-0.42,
275,-0.37,-0.415,
276,-0.355,-0.405,
277,-0.35,-0.4,
278,-0.35,-0.4,
279,-0.36,-0.415,
280,-0.37,-0.415,
281,-0.375,-0.42,
282,-0.375,-0.405,
283,-0.35,-0.41,
284,-0.36,-0.4,
285,-0.36,-0.415,
286,-0.38,-0.42,
287,-0.375,-0.41,
288,-0.355,-0.4,
289,-0.345,-0.4,
290,-0.34,-0.4,
291,-0.345,-0.415,
292,-0.355,-0.415,
293,-0.36,-0.405,
294,-0.345,-0.39,
295,-0.335,-0.38,
296,-0.345,-0.395,
297,-0.34,-0.405,
298,-0.34,-0.395,
299,-0.34,-0.395,
300,-0.33,-0.38,
301,-0.33,-0.385,
302,-0.325,-0.4,
303,-0.33,-0.395,
304,-0.335,-0.4,
305,-0.33,-0.375,
306,-0.31,-0.375,
307,-0.295,-0.38,
308,-0.3,-0.385,
309,-0.32,-0.395,
310,-0.33,-0.405,
311,-0.345,-0.39,
312,-0.325,-0.385,
313,-0.315,-0.38,
314,-0.31,-0.38,
315,-0.315,-0.385,
316,-0.345,-0.385,
317,-0.33,-0.385,
318,-0.31,-0.375,
319,-0.29,-0.37,
320,-0.315,-0.38,
321,-0.335,-0.395,
322,-0.335,-0.395,
323,-0.345,-0.37,
324,-0.325,-0.36,
325,-0.305,-0.365,
326,-0.3,-0.365,
327,-0.305,-0.37,
328,-0.305,-0.38,
329,-0.315,-0.36,
330,-0.3,-0.35,
331,-0.29,-0.345,
332,-0.3,-0.35,
333,-0.32,-0.345,
334,-0.325,-0.355,
335,-0.32,-0.35,
336,-0.305,-0.335,
337,-0.305,-0.325,
338,-0.31,-0.32,
339,-0.31,-0.35,
340,-0.31,-0.35,
341,-0.305,-0.355,
342,-0.3,-0.345,
343,-0.28,-0.325,
344,-0.265,-0.33,
345,-0.275,-0.32,
346,-0.28,-0.305,
347,-0.265,-0.315,
348,-0.25,-0.29,
349,-0.235,-0.275,
350,-0.225,-0.26,
351,-0.225,-0.255,
352,-0.23,-0.255,
353,-0.2,-0.24,
354,-0.18,-0.235,
355,-0.155,-0.235,
356,-0.145,-0.25,
357,-0.15,-0.285,
358,-0.15,-0.3,
359,-0.12,-0.285,
360,-0.105,-0.27,
361,-0.095,-0.28,
362,-0.085,-0.29,
363,-0.09,-0.29,
364,-0.095,-0.305,
365,-0.095,-0.3,
366,-0.075,-0.285,
367,-0.055,-0.28,
368,-0.05,-0.27,
369,-0.065,-0.285,
370,-0.11,-0.28,
371,-0.135,-0.275,
372,-0.165,-0.27,
373,-0.185,-0.275,
374,-0.22,-0.285,
375,-0.275,-0.295,
376,-0.32,-0.305,
377,-0.35,-0.3,
378,-0.37,-0.31,
379,-0.35,-0.305,
380,-0.35,-0.315,
381,-0.355,-0.325,
382,-0.36,-0.33,
383,-0.365,-0.32,
384,-0.36,-0.305,
385,-0.345,-0.3,
386,-0.34,-0.305,
387,-0.355,-0.31,
388,-0.37,-0.325,
389,-0.38,-0.32,
390,-0.39,-0.29,
391,-0.36,-0.295,
392,-0.34,-0.29,
393,-0.32,-0.295,
394,-0.34,-0.295,
395,-0.36,-0.29,
396,-0.355,-0.28,
397,-0.345,-0.285,
398,-0.34,-0.295,
399,-0.355,-0.3,
400,-0.35,-0.305,
401,-0.35,-0.285,
402,-0.345,-0.28,
403,-0.35,-0.28,
404,-0.355,-0.295,
405,-0.37,-0.305,
406,-0.37,-0.3,
407,-0.36,-0.295,
408,-0.345,-0.275,
409,-0.33,-0.275,
410,-0.33,-0.265,
411,-0.35,-0.28,
412,-0.36,-0.27,
413,-0.37,-0.27,
414,-0.375,-0.29,
415,-0.385,-0.36,
416,-0.39,-0.435,
417,-0.375,-0.525,
418,-0.345,-0.625,
419,-0.315,-0.75,
420,-0.275,-0.94,
421,-0.25,-1.195,
422,-0.265,-1.46,
423,-0.34,-1.66,
424,-0.425,-1.705,
425,-0.495,-1.665,
426,-0.51,-1.605,
427,-0.495,-1.57,
428,-0.485,-1.53,
429,-0.495,-1.51,
430,-0.53,-1.46,
431,-0.575,-1.41,
432,-0.6,-1.375,
433,-0.63,-1.355,
434,-0.655,-1.33,
435,-0.68,-1.295,
436,-0.725,-1.26,
437,-0.78,-1.2,
438,-0.845,-1.145,
439,-0.9,-1.095,
440,-0.915,-1.065,
441,-0.935,-1.025,
442,-0.935,-0.97,N
443,-0.915,-0.875,
444,-0.88,-0.755,
445,-0.855,-0.685,
446,-0.82,-0.615,
447,-0.755,-0.56,
448,-0.685,-0.475,
449,-0.61,-0.41,
450,-0.55,-0.33,
451,-0.51,-0.265,
452,-0.48,-0.215,
453,-0.44,-0.18,
454,-0.39,-0.14,
455,-0.355,-0.08,
456,-0.315,-0.045,
457,-0.3,-0.025,
458,-0.3,-0.005,
459,-0.3,-0.01,
460,-0.3,0.005,
461,-0.29,0.005,
462,-0.275,0.02,
463,-0.265,0.04,
464,-0.275,0.045,
465,-0.29,0.04,
466,-0.3,0.045,
467,-0.275,0.065,
468,-0.255,0.08,
469,-0.245,0.085,
470,-0.26,0.095,
471,-0.28,0.095,
472,-0.275,0.085,
473,-0.26,0.11,
474,-0.245,0.12,
475,-0.24,0.12,
476,-0.25,0.13,
477,-0.245,0.115,
478,-0.26,0.12,
479,-0.265,0.13,
480,-0.27,0.145,
481,-0.24,0.16,
482,-0.23,0.155,
483,-0.22,0.14,
484,-0.225,0.145,
485,-0.22,0.16,
486,-0.225,0.17,
487,-0.225,0.175,
488,-0.225,0.16,
489,-0.24,0.16,
490,-0.24,0.165,
491,-0.24,0.175,
492,-0.23,0.195,
493,-0.2,0.195,
494,-0.195,0.19,
495,-0.2,0.195,
496,-0.215,0.195,
497,-0.23,0.2,
498,-0.215,0.215,
499,-0.18,0.22,
500,-0.18,0.225,
501,-0.185,0.2,
502,-0.195,0.205,
503,-0.2,0.21,
504,-0.195,0.215,
505,-0.175,0.23,
506,-0.155,0.22,
507,-0.155,0.205,
508,-0.175,0.22,
509,-0.17,0.22,
510,-0.145,0.23,
511,-0.14,0.23,
512,-0.15,0.22,
513,-0.16,0.205,
514,-0.155,0.215,
515,-0.14,0.225,
516,-0.135,0.225,
517,-0.115,0.225,
518,-0.12,0.22,
519,-0.11,0.21,
520,-0.115,0.21,
521,-0.11,0.21,
522,-0.11,0.225,
523,-0.095,0.215,
524,-0.11,0.205,
525,-0.115,0.19,
526,-0.13,0.19,
527,-0.12,0.19,
528,-0.105,0.19,
529,-0.1,0.195,
530,-0.11,0.18,
531,-0.115,0.17,
532,-0.12,0.16,
533,-0.105,0.17,
534,-0.085,0.165,
535,-0.09,0.155,
536,-0.1,0.145,
537,-0.115,0.115,
538,-0.13,0.115,
539,-0.125,0.115,
540,-0.1,0.11,
541,-0.1,0.1,
542,-0.115,0.085,
543,-0.13,0.065,
544,-0.145,0.06,
545,-0.155,0.05,
546,-0.16,0.03,
547,-0.14,0.035,
548,-0.14,0.03,
549,-0.145,0.0,
550,-0.165,-0.005,
551,-0.19,0.0,
552,-0.195,0.0,
553,-0.17,-0.01,
554,-0.165,-0.015,
555,-0.18,-0.025,
556,-0.19,-0.035,
557,-0.205,-0.02,
558,-0.2,-0.01,
559,-0.17,-0.02,
560,-0.19,-0.015,
561,-0.205,-0.015,
562,-0.21,-0.035,
563,-0.215,-0.025,
564,-0.215,-0.01,
565,-0.205,-0.015,
566,-0.205,-0.01,
567,-0.215,-0.025,
568,-0.225,-0.03,
569,-0.21,-0.015,
570,-0.2,0.005,
571,-0.195,-0.005,
572,-0.21,-0.02,
573,-0.225,-0.015,
574,-0.24,-0.01,
575,-0.24,-0.005,
576,-0.24,0.005,
577,-0.245,-0.005,
578,-0.245,0.01,
579,-0.23,0.0,
580,-0.225,-0.005,
581,-0.22,0.005,
582,-0.225,0.025,
583,-0.235,0.04,
584,-0.235,0.035,
585,-0.26,0.015,
586,-0.265,0.02,
587,-0.25,0.015,
588,-0.235,0.035,
589,-0.225,0.035,
590,-0.235,0.035,
591,-0.25,0.035,
592,-0.285,0.035,
593,-0.28,0.06,
594,-0.26,0.055,
595,-0.25,0.065,
596,-0.26,0.055,
597,-0.27,0.05,
598,-0.275,0.045,
599,-0.285,0.07,
600,-0.265,0.08,
601,-0.26,0.08,
602,-0.27,0.08,
603,-0.3,0.06,
604,-0.305,0.065,
605,-0.3,0.075,
606,-0.31,0.075,
607,-0.29,0.08,
608,-0.27,0.07,
609,-0.3,0.075,
610,-0.32,0.06,
611,-0.31,0.07,
612,-0.305,0.08,
613,-0.285,0.075,
614,-0.285,0.075,
615,-0.295,0.07,
616,-0.315,0.055,
617,-0.32,0.07,
618,-0.32,0.08,
619,-0.315,0.085,
620,-0.32,0.085,
621,-0.315,0.065,
622,-0.34,0.06,
623,-0.335,0.08,
624,-0.315,0.075,
625,-0.31,0.065,
626,-0.32,0.07,
627,-0.335,0.055,
628,-0.34,0.05,
629,-0.345,0.065,
630,-0.33,0.06,
631,-0.315,0.065,
632,-0.32,0.055,
633,-0.325,0.045,
634,-0.34,0.045,
635,-0.345,0.05,
636,-0.34,0.075,
637,-0.33,0.07,
638,-0.33,0.07,
639,-0.31,0.055,
640,-0.315,0.05,
641,-0.305,0.065,
642,-0.31,0.065,
643,-0.31,0.065,
644,-0.305,0.075,
645,-0.315,0.06,
646,-0.32,0.055,
647,-0.305,0.075,
648,-0.3,0.08,
649,-0.3,0.08,
650,-0.305,0.065,
651,-0.305,0.06,
652,-0.32,0.045,
653,-0.32,0.065,
654,-0.31,0.075,
655,-0.31,0.07,
656,-0.305,0.065,
657,-0.295,0.055,
658,-0.295,0.065,
659,-0.3,0.07,
660,-0.295,0.09,
661,-0.3,0.08,
662,-0.295,0.075,
663,-0.305,0.07,
664,-0.305,0.065,
665,-0.285,0.07,
666,-0.275,0.085,
667,-0.29,0.085,
668,-0.285,0.08,
669,-0.285,0.07,
670,-0.315,0.055,
671,-0.3,0.07,
672,-0.29,0.09,
673,-0.285,0.08,
674,-0.295,0.09,
675,-0.3,0.075,
676,-0.29,0.07,
677,-0.285,0.085,
678,-0.265,0.095,
679,-0.27,0.085,
680,-0.28,0.085,
681,-0.29,0.09,
682,-0.295,0.075,
683,-0.3,0.085,
684,-0.285,0.09,
685,-0.275,0.095,
686,-0.27,0.085,
687,-0.27,0.085,
688,-0.285,0.08,
689,-0.29,0.08,
690,-0.28,0.09,
691,-0.275,0.1,
692,-0.275,0.1,
693,-0.275,0.09,
694,-0.275,0.105,
695,-0.26,0.12,
696,-0.225,0.13,
697,-0.205,0.14,
698,-0.2,0.15,
699,-0.205,0.15,
700,-0.215,0.16,
701,-0.205,0.185,
702,-0.2,0.19,
703,-0.175,0.19,
704,-0.15,0.2,
705,-0.12,0.18,
706,-0.115,0.17,
707,-0.09,0.15,
708,-0.085,0.155,
709,-0.065,0.155,
710,-0.065,0.145,
711,-0.085,0.13,
712,-0.08,0.12,
713,-0.04,0.13,
714,0.005,0.135,
715,0.01,0.14,
716,0.005,0.145,
717,-0.01,0.155,
718,-0.04,0.15,
719,-0.08,0.16,
720,-0.12,0.15,
721,-0.135,0.14,
722,-0.175,0.13,
723,-0.215,0.12,
724,-0.265,0.11,
725,-0.305,0.105,
726,-0.315,0.11,
727,-0.315,0.095,
728,-0.315,0.1,
729,-0.305,0.095,
730,-0.32,0.085,
731,-0.315,0.1,
732,-0.305,0.11,
733,-0.29,0.11,
734,-0.305,0.11,
735,-0.315,0.105,
736,-0.325,0.1,
737,-0.315,0.105,
738,-0.315,0.115,
739,-0.305,0.11,
740,-0.31,0.11,
741,-0.31,0.09,
742,-0.315,0.09,
743,-0.32,0.1,
744,-0.315,0.105,
745,-0.305,0.11,
746,-0.285,0.1,
747,-0.285,0.1,
748,-0.31,0.09,
749,-0.32,0.11,
750,-0.32,0.115,
751,-0.31,0.11,
752,-0.345,0.105,
753,-0.34,0.085,
754,-0.35,0.085,
755,-0.345,0.1,
756,-0.345,0.115,
757,-0.32,0.11,
758,-0.315,0.1,
759,-0.315,0.105,
760,-0.345,0.11,
761,-0.34,0.12,
762,-0.32,0.095,
763,-0.315,0.02,
764,-0.325,-0.06,
765,-0.35,-0.175,
766,-0.34,-0.295,
767,-0.32,-0.425,
768,-0.285,-0.605,
769,-0.27,-0.855,
770,-0.265,-1.14,
771,-0.28,-1.355,
772,-0.35,-1.44,
773,-0.425,-1.405,
774,-0.465,-1.34,
775,-0.47,-1.29,
776,-0.49,-1.24,
777,-0.51,-1.2,
778,-0.53,-1.155,
779,-0.565,-1.105,
780,-0.605,-1.075,
781,-0.625,-1.055,
782,-0.655,-1.02,
783,-0.68,-0.99,
784,-0.705,-0.94,
785,-0.76,-0.895,
786,-0.82,-0.84,
787,-0.86,-0.77,
788,-0.9,-0.72,
789,-0.915,-0.685,N
790,-0.925,-0.62,
791,-0.895,-0.535,
792,-0.84,-0.43,
793,-0.815,-0.35,
794,-0.79,-0.275,
795,-0.745,-0.21,
796,-0.67,-0.155,
797,-0.58,-0.065,
798,-0.515,0.0,
799,-0.475,0.055,
800,-0.46,0.11,
801,-0.425,0.145,
802,-0.395,0.195,
803,-0.345,0.24,
804,-0.315,0.28,
805,-0.295,0.29,
806,-0.29,0.305,
807,-0.28,0.31,
808,-0.28,0.315,
809,-0.285,0.325,
810,-0.27,0.345,
811,-0.26,0.34,
812,-0.255,0.355,
813,-0.265,0.35,
814,-0.265,0.345,
815,-0.265,0.36,
816,-0.265,0.385,
817,-0.265,0.38,
818,-0.26,0.395,
819,-0.27,0.385,
820,-0.285,0.395,
821,-0.26,0.405,
822,-0.215,0.415,
823,-0.19,0.405,
824,-0.21,0.4,
825,-0.23,0.41,
826,-0.255,0.4,
827,-0.255,0.415,
828,-0.23,0.41,
829,-0.235,0.43,
830,-0.235,0.42,
831,-0.245,0.42,
832,-0.23,0.41,
833,-0.215,0.43,
834,-0.22,0.435,
835,-0.22,0.44,
836,-0.22,0.435,
837,-0.225,0.435,
838,-0.23,0.44,
839,-0.225,0.44,
840,-0.205,0.455,
841,-0.19,0.455,
842,-0.2,0.46,
843,-0.215,0.435,
844,-0.23,0.445,
845,-0.22,0.445,
846,-0.185,0.455,
847,-0.17,0.46,
848,-0.16,0.46,
849,-0.18,0.44,
850,-0.2,0.43,
851,-0.205,0.445,
852,-0.175,0.46,
853,-0.135,0.45,
854,-0.11,0.445,
855,-0.145,0.445,
856,-0.175,0.435,
857,-0.18,0.44,
858,-0.155,0.46,
859,-0.135,0.465,
860,-0.125,0.445,
861,-0.145,0.44,
862,-0.15,0.44,
863,-0.14,0.45,
864,-0.145,0.45,
865,-0.12,0.44,
866,-0.095,0.435,
867,-0.1,0.42,
868,-0.12,0.41,
869,-0.105,0.415,
870,-0.11,0.415,
871,-0.11,0.41,
872,-0.115,0.395,
873,-0.115,0.37,
874,-0.125,0.37,
875,-0.105,0.395,
876,-0.095,0.395,
877,-0.09,0.395,
878,-0.085,0.38,
879,-0.1,0.37,
880,-0.13,0.35,
881,-0.15,0.36,
882,-0.14,0.345,
883,-0.11,0.345,
884,-0.07,0.335,
885,-0.065,0.315,
886,-0.105,0.315,
887,-0.135,0.3,
888,-0.14,0.315,
889,-0.11,0.3,
890,-0.09,0.285,
891,-0.105,0.26,
892,-0.125,0.255,
893,-0.13,0.25,
894,-0.145,0.25,
895,-0.13,0.23,
896,-0.15,0.235,
897,-0.18,0.21,
898,-0.185,0.22,
899,-0.19,0.215,
900,-0.185,0.23,
901,-0.17,0.215,
902,-0.175,0.21,
903,-0.2,0.19,
904,-0.21,0.185,
905,-0.215,0.2,
906,-0.21,0.205,
907,-0.21,0.21,
908,-0.225,0.205,
909,-0.235,0.185,
910,-0.245,0.185,
911,-0.25,0.195,
912,-0.23,0.21,
913,-0.22,0.195,
914,-0.225,0.2,
915,-0.235,0.19,
916,-0.265,0.195,
917,-0.255,0.2,
918,-0.25,0.215,
919,-0.24,0.215,
920,-0.24,0.225,
921,-0.255,0.205,
922,-0.27,0.205,
923,-0.275,0.21,
924,-0.265,0.225,
925,-0.25,0.22,
926,-0.265,0.225,
927,-0.27,0.21,
928,-0.3,0.205,
929,-0.275,0.215,
930,-0.265,0.23,
931,-0.265,0.23,
932,-0.26,0.22,
933,-0.27,0.215,
934,-0.295,0.205,
935,-0.295,0.225,
936,-0.285,0.24,
937,-0.275,0.235,
938,-0.275,0.23,
939,-0.295,0.225,
940,-0.31,0.23,
941,-0.325,0.235,
942,-0.31,0.245,
943,-0.29,0.245,
944,-0.29,0.24,
945,-0.295,0.235,
946,-0.305,0.235,
947,-0.315,0.23,
948,-0.31,0.25,
949,-0.305,0.245,
950,-0.29,0.24,
951,-0.31,0.23,
952,-0.335,0.235,
953,-0.345,0.235,
954,-0.345,0.245,
955,-0.335,0.235,
956,-0.33,0.24,
957,-0.33,0.225,
958,-0.34,0.225,
959,-0.35,0.235,
960,-0.345,0.24,
961,-0.33,0.24,
962,-0.33,0.235,
963,-0.345,0.225,
964,-0.375,0.22,
965,-0.36,0.215,
966,-0.35,0.245,
967,-0.34,0.235,
968,-0.345,0.22,
969,-0.37,0.21,
970,-0.37,0.195,
971,-0.36,0.205,
972,-0.365,0.22,
973,-0.345,0.21,
974,-0.355,0.21,
975,-0.37,0.19,
976,-0.37,0.2,
977,-0.375,0.195,
978,-0.355,0.21,
979,-0.345,0.215,
980,-0.34,0.205,
981,-0.35,0.2,
982,-0.365,0.205,
983,-0.37,0.21,
984,-0.365,0.21,
985,-0.355,0.205,
986,-0.365,0.195,
987,-0.375,0.21,
988,-0.37,0.2,
989,-0.365,0.205,
990,-0.34,0.215,
991,-0.315,0.205,
992,-0.335,0.21,
993,-0.35,0.2,
994,-0.365,0.2,
995,-0.35,0.2,
996,-0.35,0.21,
997,-0.335,0.22,
998,-0.34,0.2,
999,-0.355,0.19,
1000,-0.35,0.205,
1001,-0.335,0.215,
1002,-0.34,0.2,
1003,-0.33,0.205,
1004,-0.35,0.195,
1005,-0.355,0.2,
1006,-0.35,0.21,
1007,-0.325,0.22,
1008,-0.315,0.215,
1009,-0.325,0.2,
1010,-0.34,0.195,
1011,-0.365,0.18,
1012,-0.36,0.185,
1013,-0.34,0.205,
1014,-0.325,0.205,
1015,-0.32,0.215,
1016,-0.33,0.19,
1017,-0.34,0.195,
1018,-0.355,0.195,
1019,-0.33,0.2,
1020,-0.32,0.205,
1021,-0.325,0.2,
1022,-0.335,0.19,
1023,-0.325,0.2,
1024,-0.33,0.2,
1025,-0.325,0.215,
1026,-0.32,0.205,
1027,-0.33,0.21,
1028,-0.34,0.2,
1029,-0.345,0.19,
1030,-0.325,0.195,
1031,-0.31,0.2,
1032,-0.31,0.2,
1033,-0.31,0.195,
1034,-0.31,0.2,
1035,-0.325,0.19,
1036,-0.32,0.2,
1037,-0.305,0.205,
1038,-0.3,0.21,
1039,-0.305,0.205,
1040,-0.335,0.195,
1041,-0.335,0.19,
1042,-0.335,0.2,
1043,-0.305,0.21,
1044,-0.29,0.215,
1045,-0.3,0.23,
1046,-0.315,0.2,
1047,-0.335,0.205,
1048,-0.32,0.205,
1049,-0.305,0.23,
1050,-0.29,0.23,
1051,-0.295,0.225,
1052,-0.3,0.205,
1053,-0.32,0.21,
1054,-0.305,0.215,
1055,-0.285,0.25,
1056,-0.28,0.24,
1057,-0.275,0.245,
1058,-0.265,0.245,
1059,-0.25,0.24,
1060,-0.23,0.28,
1061,-0.22,0.3,
1062,-0.21,0.295,
1063,-0.195,0.3,
1064,-0.19,0.295,
1065,-0.18,0.3,
1066,-0.165,0.3,
1067,-0.135,0.3,
1068,-0.11,0.295,
1069,-0.09,0.275,
1070,-0.095,0.265,
1071,-0.1,0.265,
1072,-0.11,0.25,
1073,-0.115,0.25,
1074,-0.09,0.255,
1075,-0.075,0.245,
1076,-0.075,0.24,
1077,-0.07,0.23,
1078,-0.055,0.25,
1079,-0.04,0.26,
1080,-0.065,0.24,
1081,-0.115,0.245,
1082,-0.165,0.235,
1083,-0.225,0.22,
1084,-0.245,0.24,
1085,-0.285,0.245,
1086,-0.305,0.23,
1087,-0.35,0.22,
1088,-0.365,0.215,
1089,-0.37,0.19,
1090,-0.355,0.2,
1091,-0.35,0.21,
1092,-0.345,0.2,
1093,-0.345,0.19,
1094,-0.36,0.19,
1095,-0.36,0.19,
1096,-0.35,0.195,
1097,-0.34,0.21,
1098,-0.335,0.21,
1099,-0.355,0.195,
1100,-0.365,0.18,
1101,-0.38,0.18,
1102,-0.37,0.185,
1103,-0.355,0.21,
1104,-0.33,0.205,
1105,-0.34,0.2,
1106,-0.35,0.175,
1107,-0.355,0.185,
1108,-0.355,0.19,
1109,-0.35,0.21,
1110,-0.34,0.2,
1111,-0.345,0.205,
1112,-0.355,0.19,
1113,-0.36,0.19,
1114,-0.35,0.2,
1115,-0.35,0.195,
1116,-0.33,0.195,
1117,-0.335,0.195,
1118,-0.355,0.185,
1119,-0.365,0.175,
1120,-0.355,0.19,
1121,-0.355,0.195,
1122,-0.35,0.195,
1123,-0.345,0.195,
1124,-0.34,0.2,
1125,-0.34,0.2,
1126,-0.35,0.185,
1127,-0.36,0.16,
1128,-0.37,0.095,
1129,-0.38,0.025,
1130,-0.345,-0.07,
1131,-0.325,-0.18,
1132,-0.28,-0.31,
1133,-0.24,-0.515,
1134,-0.22,-0.76,
1135,-0.245,-1.025,
1136,-0.32,-1.2,
1137,-0.44,-1.255,
1138,-0.515,-1.225,
1139,-0.515,-1.17,
1140,-0.51,-1.135,
1141,-0.5,-1.105,
1142,-0.505,-1.08,
1143,-0.555,-1.04,
1144,-0.6,-0.995,
1145,-0.635,-0.95,
1146,-0.65,-0.945,
1147,-0.675,-0.905,
1148,-0.705,-0.865,
1149,-0.745,-0.83,
1150,-0.785,-0.775,
1151,-0.845,-0.72,
1152,-0.87,-0.67,
1153,-0.9,-0.635,
1154,-0.935,-0.605,
1155,-0.945,-0.545,N
1156,-0.91,-0.44,
1157,-0.87,-0.345,
1158,-0.845,-0.26,
1159,-0.82,-0.2,
1160,-0.765,-0.13,
1161,-0.69,-0.055,
1162,-0.61,0.02,
1163,-0.55,0.095,
1164,-0.515,0.16,
1165,-0.475,0.195,
1166,-0.44,0.23,
1167,-0.385,0.27,
1168,-0.37,0.32,
1169,-0.33,0.35,
1170,-0.305,0.39,
1171,-0.28,0.4,
1172,-0.28,0.405,
1173,-0.295,0.405,
1174,-0.305,0.42,
1175,-0.29,0.435,
1176,-0.28,0.455,
1177,-0.29,0.44,
1178,-0.29,0.455,
1179,-0.29,0.445,
1180,-0.285,0.465,
1181,-0.275,0.49,
1182,-0.27,0.49,
1183,-0.285,0.475,
1184,-0.28,0.48,
1185,-0.3,0.475,
1186,-0.3,0.495,
1187,-0.27,0.51,
1188,-0.255,0.52,
1189,-0.26,0.525,
1190,-0.26,0.505,
1191,-0.28,0.525,
1192,-0.27,0.53,
1193,-0.27,0.545,
1194,-0.255,0.54,
1195,-0.27,0.53,
1196,-0.26,0.53,
1197,-0.28,0.525,
1198,-0.275,0.535,
1199,-0.27,0.535,
1200,-0.25,0.54,
1201,-0.24,0.545,
1202,-0.235,0.54,
1203,-0.265,0.54,
1204,-0.265,0.545,
1205,-0.245,0.565,
1206,-0.245,0.565,
1207,-0.24,0.55,
1208,-0.24,0.56,
1209,-0.245,0.55,
1210,-0.235,0.56,
1211,-0.205,0.575,
1212,-0.185,0.575,
1213,-0.2,0.58,
1214,-0.205,0.57,
1215,-0.22,0.575,
1216,-0.215,0.585,
1217,-0.205,0.585,
1218,-0.2,0.585,
1219,-0.2,0.585,
1220,-0.195,0.57,
1221,-0.195,0.565,
1222,-0.185,0.565,
1223,-0.18,0.58,
1224,-0.18,0.575,
1225,-0.17,0.57,
1226,-0.17,0.555,
1227,-0.19,0.55,
1228,-0.195,0.555,
1229,-0.16,0.57,
1230,-0.15,0.565,
1231,-0.135,0.56,
1232,-0.16,0.545,
1233,-0.17,0.55,
1234,-0.16,0.53,
1235,-0.15,0.545,
1236,-0.13,0.545,
1237,-0.13,0.525,
1238,-0.15,0.52,
1239,-0.155,0.505,
1240,-0.16,0.5,
1241,-0.15,0.505,
1242,-0.16,0.505,
1243,-0.16,0.485,
1244,-0.15,0.465,
1245,-0.145,0.445,
1246,-0.15,0.455,
1247,-0.15,0.455,
1248,-0.14,0.44,
1249,-0.155,0.425,
1250,-0.15,0.41,
1251,-0.175,0.405,
1252,-0.18,0.39,
1253,-0.17,0.38,
1254,-0.175,0.37,
1255,-0.18,0.35,
1256,-0.2,0.325,
1257,-0.215,0.315,
1258,-0.215,0.32,
1259,-0.21,0.315,
1260,-0.2,0.31,
1261,-0.21,0.29,
1262,-0.215,0.28,
1263,-0.235,0.265,
1264,-0.245,0.27,
1265,-0.24,0.27,
1266,-0.25,0.28,
1267,-0.255,0.275,
1268,-0.25,0.255,
1269,-0.265,0.245,
1270,-0.26,0.265,
1271,-0.25,0.26,
1272,-0.255,0.26,
1273,-0.24,0.26,
1274,-0.24,0.245,
1275,-0.255,0.24,
1276,-0.265,0.245,
1277,-0.27,0.265,
1278,-0.255,0.255,
1279,-0.255,0.255,
1280,-0.25,0.26,
1281,-0.25,0.25,
1282,-0.255,0.265,
1283,-0.26,0.27,
1284,-0.245,0.27,
1285,-0.25,0.28,
1286,-0.25,0.27,
1287,-0.275,0.265,
1288,-0.265,0.28,
1289,-0.265,0.295,
1290,-0.25,0.305,
1291,-0.255,0.3,
1292,-0.27,0.295,
1293,-0.275,0.285,
1294,-0.27,0.3,
1295,-0.28,0.315,
1296,-0.265,0.3,
1297,-0.265,0.3,
1298,-0.28,0.285,
1299,-0.285,0.295,
1300,-0.29,0.305,
1301,-0.27,0.32,
1302,-0.26,0.315,
1303,-0.275,0.325,
1304,-0.3,0.325,
1305,-0.295,0.315,
1306,-0.275,0.33,
1307,-0.275,0.345,
1308,-0.275,0.345,
1309,-0.275,0.35,
1310,-0.29,0.335,
1311,-0.315,0.32,
1312,-0.305,0.34,
1313,-0.315,0.345,
1314,-0.29,0.34,
1315,-0.285,0.35,
1316,-0.305,0.335,
1317,-0.31,0.315,
1318,-0.32,0.335,
1319,-0.305,0.325,
1320,-0.315,0.33,
1321,-0.31,0.32,
1322,-0.345,0.315,
1323,-0.355,0.315,
1324,-0.35,0.33,
1325,-0.335,0.34,
1326,-0.315,0.35,
1327,-0.315,0.34,
1328,-0.35,0.335,
1329,-0.35,0.325,
1330,-0.335,0.33,
1331,-0.335,0.335,
1332,-0.325,0.33,
1333,-0.325,0.315,
1334,-0.34,0.31,
1335,-0.35,0.315,
1336,-0.355,0.315,
1337,-0.35,0.32,
1338,-0.335,0.31,
1339,-0.335,0.31,
1340,-0.34,0.3,
1341,-0.375,0.295,
1342,-0.37,0.295,
1343,-0.345,0.32,
1344,-0.31,0.32,
1345,-0.305,0.32,
1346,-0.32,0.305,
1347,-0.335,0.3,
1348,-0.33,0.315,
1349,-0.315,0.315,
1350,-0.3,0.315,
1351,-0.29,0.31,
1352,-0.305,0.305,
1353,-0.32,0.305,
1354,-0.31,0.305,
1355,-0.32,0.32,
1356,-0.31,0.325,
1357,-0.315,0.305,
1358,-0.33,0.3,
1359,-0.32,0.29,
1360,-0.32,0.31,
1361,-0.31,0.32,
1362,-0.29,0.32,
1363,-0.305,0.315,
1364,-0.3,0.31,
1365,-0.315,0.305,
1366,-0.315,0.3,
1367,-0.32,0.315,
1368,-0.31,0.305,
1369,-0.305,0.3,
1370,-0.305,0.31,
1371,-0.31,0.29,
1372,-0.295,0.3,
1373,-0.28,0.31,
1374,-0.28,0.32,
1375,-0.29,0.295,
1376,-0.315,0.28,
1377,-0.34,0.28,
1378,-0.34,0.3,
1379,-0.315,0.315,
1380,-0.27,0.31,
1381,-0.26,0.3,
1382,-0.27,0.3,
1383,-0.29,0.3,
1384,-0.285,0.31,
1385,-0.29,0.315,
1386,-0.28,0.315,
1387,-0.28,0.31,
1388,-0.3,0.29,
1389,-0.3,0.295,
1390,-0.31,0.295,
1391,-0.29,0.305,
1392,-0.28,0.305,
1393,-0.285,0.285,
1394,-0.29,0.295,
1395,-0.305,0.29,
1396,-0.31,0.3,
1397,-0.28,0.315,
1398,-0.26,0.305,
1399,-0.255,0.315,
1400,-0.24,0.32,
1401,-0.245,0.33,
1402,-0.235,0.35,
1403,-0.22,0.37,
1404,-0.215,0.375,
1405,-0.21,0.395,
1406,-0.2,0.38,
1407,-0.185,0.385,
1408,-0.17,0.4,
1409,-0.14,0.4,
1410,-0.125,0.38,
1411,-0.115,0.355,
1412,-0.105,0.325,
1413,-0.1,0.325,
1414,-0.08,0.33,
1415,-0.065,0.34,
1416,-0.055,0.335,
1417,-0.06,0.33,
1418,-0.06,0.31,
1419,-0.06,0.32,
1420,-0.065,0.33,
1421,-0.06,0.355,
1422,-0.055,0.36,
1423,-0.07,0.34,
1424,-0.09,0.33,
1425,-0.145,0.315,
1426,-0.19,0.32,
1427,-0.225,0.32,
1428,-0.27,0.315,
1429,-0.31,0.295,
1430,-0.345,0.265,
1431,-0.36,0.265,
1432,-0.36,0.27,
1433,-0.345,0.285,
1434,-0.32,0.285,
1435,-0.315,0.275,
1436,-0.325,0.255,
1437,-0.34,0.27,
1438,-0.345,0.265,
1439,-0.345,0.285,
1440,-0.34,0.275,
1441,-0.345,0.28,
1442,-0.37,0.265,
1443,-0.365,0.26,
1444,-0.345,0.265,
1445,-0.335,0.275,
1446,-0.315,0.28,
1447,-0.325,0.27,
1448,-0.345,0.255,
1449,-0.37,0.265,
1450,-0.36,0.27,
1451,-0.335,0.27,
1452,-0.34,0.27,
1453,-0.34,0.265,
1454,-0.335,0.26,
1455,-0.36,0.255,
1456,-0.36,0.265,
1457,-0.35,0.275,
1458,-0.33,0.265,
1459,-0.335,0.275,
1460,-0.325,0.26,
1461,-0.335,0.26,
1462,-0.34,0.28,
1463,-0.345,0.29,
1464,-0.325,0.29,
1465,-0.325,0.285,
1466,-0.34,0.23,
1467,-0.375,0.16,
1468,-0.39,0.095,
1469,-0.37,0.0,
1470,-0.33,-0.125,
1471,-0.31,-0.305,
1472,-0.3,-0.56,
1473,-0.29,-0.845,
1474,-0.295,-1.11,
1475,-0.345,-1.245,
1476,-0.445,-1.255,
1477,-0.495,-1.205,
1478,-0.525,-1.17,
1479,-0.53,-1.13,
1480,-0.515,-1.08,
1481,-0.525,-1.025,
1482,-0.54,-0.965,
1483,-0.595,-0.945,
1484,-0.64,-0.925,
1485,-0.69,-0.925,
1486,-0.71,-0.87,
1487,-0.73,-0.805,
1488,-0.76,-0.755,
1489,-0.825,-0.715,
1490,-0.875,-0.66,
1491,-0.915,-0.6,
1492,-0.92,-0.56,
1493,-0.915,-0.48,N
1494,-0.88,-0.4,
1495,-0.865,-0.3,
1496,-0.85,-0.21,
1497,-0.835,-0.125,
1498,-0.77,-0.03,
1499,-0.665,0.07,
1500,-0.585,0.145,
1501,-0.53,0.215,
1502,-0.485,0.265,
1503,-0.455,0.325,
1504,-0.405,0.41,
1505,-0.355,0.45,
1506,-0.325,0.49,
1507,-0.3,0.485,
1508,-0.295,0.5,
1509,-0.3,0.52,
1510,-0.3,0.53,
1511,-0.29,0.56,
1512,-0.275,0.565,
1513,-0.28,0.58,
1514,-0.285,0.57,
1515,-0.285,0.585,
1516,-0.265,0.61,
1517,-0.245,0.625,
1518,-0.245,0.64,
1519,-0.25,0.63,
1520,-0.28,0.63,
1521,-0.3,0.64,
1522,-0.275,0.655,
1523,-0.23,0.67,
1524,-0.215,0.66,
1525,-0.21,0.675,
1526,-0.22,0.655,
1527,-0.24,0.65,
1528,-0.25,0.67,
1529,-0.255,0.68,
1530,-0.245,0.675,
1531,-0.24,0.675,
1532,-0.25,0.675,
1533,-0.245,0.67,
1534,-0.245,0.695,
1535,-0.235,0.705,
1536,-0.23,0.7,
1537,-0.22,0.69,
1538,-0.225,0.69,
1539,-0.23,0.7,
1540,-0.205,0.715,
1541,-0.2,0.72,
1542,-0.19,0.705,
1543,-0.185,0.71,
1544,-0.18,0.705,
1545,-0.195,0.715,
1546,-0.21,0.715,
1547,-0.215,0.73,
1548,-0.19,0.73,
1549,-0.18,0.715,
1550,-0.175,0.72,
1551,-0.185,0.715,
1552,-0.195,0.73,
1553,-0.18,0.74,
1554,-0.16,0.735,
1555,-0.145,0.74,
1556,-0.16,0.74,
1557,-0.165,0.72,
1558,-0.145,0.715,
1559,-0.145,0.745,
1560,-0.13,0.735,
1561,-0.16,0.735,
1562,-0.17,0.715,
1563,-0.185,0.73,
1564,-0.16,0.72,
1565,-0.115,0.725,
1566,-0.1,0.715,
1567,-0.105,0.705,
1568,-0.125,0.69,
1569,-0.135,0.69,
1570,-0.105,0.695,
1571,-0.07,0.705,
1572,-0.045,0.705,
1573,-0.045,0.68,
1574,-0.1,0.655,
1575,-0.115,0.655,
1576,-0.105,0.66,
1577,-0.095,0.655,
1578,-0.07,0.655,
1579,-0.075,0.63,
1580,-0.09,0.6,
1581,-0.115,0.59,
1582,-0.13,0.58,
1583,-0.125,0.57,
1584,-0.095,0.555,
1585,-0.105,0.545,
1586,-0.145,0.515,
1587,-0.125,0.505,
1588,-0.1,0.51,
1589,-0.1,0.505,
1590,-0.12,0.505,
1591,-0.155,0.47,
1592,-0.165,0.44,
1593,-0.175,0.45,
1594,-0.185,0.46,
1595,-0.17,0.475,
1596,-0.17,0.465,
1597,-0.195,0.445,
1598,-0.235,0.425,
1599,-0.24,0.425,
1600,-0.2,0.435,
1601,-0.165,0.45,
1602,-0.15,0.44,
1603,-0.18,0.44,
1604,-0.205,0.435,
1605,-0.22,0.435,
1606,-0.185,0.445,
1607,-0.17,0.46,
1608,-0.16,0.45,
1609,-0.16,0.44,
1610,-0.19,0.435,
1611,-0.225,0.43,
1612,-0.22,0.455,
1613,-0.2,0.475,
1614,-0.195,0.47,
1615,-0.215,0.47,
1616,-0.19,0.465,
1617,-0.2,0.455,
1618,-0.21,0.46,
1619,-0.215,0.47,
1620,-0.21,0.475,
1621,-0.215,0.48,
1622,-0.22,0.455,
1623,-0.205,0.465,
1624,-0.195,0.48,
1625,-0.175,0.49,
1626,-0.15,0.485,
1627,-0.17,0.49,
1628,-0.2,0.475,
1629,-0.23,0.475,
1630,-0.235,0.5,
1631,-0.225,0.51,
1632,-0.21,0.51,
1633,-0.21,0.505,
1634,-0.215,0.485,
1635,-0.23,0.49,
1636,-0.225,0.51,
1637,-0.22,0.515,
1638,-0.225,0.51,
1639,-0.235,0.505,
1640,-0.24,0.5,
1641,-0.245,0.49,
1642,-0.24,0.495,
1643,-0.245,0.525,
1644,-0.25,0.515,
1645,-0.26,0.505,
1646,-0.275,0.505,
1647,-0.29,0.51,
1648,-0.27,0.51,
1649,-0.23,0.515,
1650,-0.25,0.51,
1651,-0.28,0.505,
1652,-0.305,0.49,
1653,-0.295,0.49,
1654,-0.31,0.48,
1655,-0.33,0.495,
1656,-0.35,0.49,
1657,-0.34,0.49,
1658,-0.345,0.48,
1659,-0.375,0.47,
1660,-0.41,0.475,
1661,-0.345,0.49,
1662,-0.26,0.49,
1663,-0.25,0.47,
1664,-0.3,0.465,
1665,-0.3,0.475,
1666,-0.275,0.49,
1667,-0.245,0.49,
1668,-0.23,0.475,
1669,-0.245,0.47,
1670,-0.28,0.45,
1671,-0.285,0.44,
1672,-0.235,0.44,
1673,-0.195,0.465,
1674,-0.2,0.46,
1675,-0.225,0.46,
1676,-0.24,0.45,
1677,-0.24,0.43,
1678,-0.23,0.43,
1679,-0.225,0.455,
1680,-0.23,0.445,
1681,-0.235,0.445,
1682,-0.245,0.43,
1683,-0.265,0.425,
1684,-0.25,0.44,
1685,-0.22,0.45,
1686,-0.225,0.45,
1687,-0.22,0.44,
1688,-0.24,0.435,
1689,-0.255,0.42,
1690,-0.26,0.435,
1691,-0.235,0.44,
1692,-0.225,0.435,
1693,-0.23,0.43,
1694,-0.245,0.435,
1695,-0.245,0.425,
1696,-0.245,0.43,
1697,-0.23,0.445,
1698,-0.23,0.425,
1699,-0.225,0.43,
1700,-0.245,0.425,
1701,-0.255,0.425,
1702,-0.25,0.44,
1703,-0.235,0.455,
1704,-0.21,0.455,
1705,-0.22,0.45,
1706,-0.255,0.44,
1707,-0.265,0.43,
1708,-0.265,0.425,
1709,-0.26,0.435,
1710,-0.23,0.44,
1711,-0.225,0.44,
1712,-0.225,0.43,
1713,-0.27,0.425,
1714,-0.255,0.425,
1715,-0.265,0.445,
1716,-0.26,0.425,
1717,-0.27,0.435,
1718,-0.25,0.42,
1719,-0.235,0.43,
1720,-0.225,0.44,
1721,-0.25,0.445,
1722,-0.285,0.44,
1723,-0.3,0.44,
1724,-0.27,0.435,
1725,-0.205,0.44,
1726,-0.12,0.445,
1727,-0.105,0.465,
1728,-0.145,0.475,
1729,-0.145,0.48,
1730,-0.14,0.475,
1731,-0.145,0.49,
1732,-0.15,0.505,
1733,-0.16,0.52,
1734,-0.145,0.535,
1735,-0.11,0.535,
1736,-0.09,0.525,
1737,-0.095,0.52,
1738,-0.08,0.545,
1739,-0.065,0.53,
1740,-0.045,0.51,
1741,-0.035,0.5,
1742,-0.045,0.49,
1743,-0.035,0.485,
1744,-0.015,0.49,
1745,-0.005,0.49,
1746,0.0,0.485,
1747,-0.015,0.48,
1748,0.0,0.47,
1749,0.005,0.455,
1750,0.01,0.485,
1751,0.01,0.5,
1752,0.005,0.475,
1753,-0.03,0.47,
1754,-0.08,0.455,
1755,-0.13,0.45,
1756,-0.165,0.455,
1757,-0.205,0.45,
1758,-0.25,0.44,
1759,-0.28,0.435,
1760,-0.285,0.415,
1761,-0.275,0.42,
1762,-0.24,0.415,
1763,-0.22,0.44,
1764,-0.245,0.435,
1765,-0.28,0.415,
1766,-0.315,0.405,
1767,-0.33,0.4,
1768,-0.3,0.405,
1769,-0.265,0.415,
1770,-0.25,0.415,
1771,-0.265,0.41,
1772,-0.31,0.395,
1773,-0.365,0.395,
1774,-0.39,0.405,
1775,-0.39,0.42,
1776,-0.36,0.42,
1777,-0.3,0.42,
1778,-0.255,0.41,
1779,-0.27,0.415,
1780,-0.295,0.425,
1781,-0.285,0.445,
1782,-0.305,0.425,
1783,-0.325,0.41,
1784,-0.28,0.405,
1785,-0.23,0.405,
1786,-0.205,0.425,
1787,-0.23,0.415,
1788,-0.255,0.415,
1789,-0.255,0.41,
1790,-0.27,0.39,
1791,-0.3,0.4,
1792,-0.31,0.395,
1793,-0.28,0.41,
1794,-0.265,0.43,
1795,-0.26,0.42,
1796,-0.3,0.355,
1797,-0.385,0.255,
1798,-0.43,0.11,
1799,-0.4,-0.06,
1800,-0.36,-0.3,
1801,-0.38,-0.555,
1802,-0.4,-0.875,
1803,-0.425,-1.165,
1804,-0.465,-1.385,
1805,-0.51,-1.46,
1806,-0.56,-1.43,
1807,-0.59,-1.36,
1808,-0.575,-1.315,
1809,-0.59,-1.265,
1810,-0.61,-1.2,
1811,-0.63,-1.13,
1812,-0.675,-1.1,
1813,-0.705,-1.075,
1814,-0.73,-1.06,
1815,-0.735,-0.99,
1816,-0.75,-0.92,
1817,-0.78,-0.82,
1818,-0.84,-0.755,
1819,-0.905,-0.69,
1820,-0.945,-0.63,
1821,-0.955,-0.565,N
1822,-0.9,-0.47,
1823,-0.825,-0.335,
1824,-0.76,-0.22,
1825,-0.73,-0.095,
1826,-0.7,-0.01,
1827,-0.635,0.09,
1828,-0.565,0.19,
1829,-0.5,0.285,
1830,-0.45,0.36,
1831,-0.405,0.44,
1832,-0.315,0.51,
1833,-0.235,0.585,
1834,-0.215,0.63,
1835,-0.21,0.675,
1836,-0.195,0.695,
1837,-0.195,0.72,
1838,-0.195,0.72,
1839,-0.225,0.735,
1840,-0.215,0.755,
1841,-0.205,0.78,
1842,-0.175,0.775,
1843,-0.19,0.79,
1844,-0.215,0.79,
1845,-0.235,0.805,
1846,-0.23,0.805,
1847,-0.205,0.83,
1848,-0.19,0.83,
1849,-0.18,0.835,
1850,-0.165,0.83,
1851,-0.15,0.84,
1852,-0.15,0.855,
1853,-0.175,0.865,
1854,-0.215,0.87,
1855,-0.26,0.86,
1856,-0.235,0.87,
1857,-0.185,0.88,
1858,-0.115,0.895,
1859,-0.075,0.915,
1860,-0.065,0.92,
1861,-0.1,0.9,
1862,-0.125,0.88,
1863,-0.14,0.885,
1864,-0.165,0.9,
1865,-0.14,0.915,
1866,-0.145,0.915,
1867,-0.135,0.91,
1868,-0.13,0.905,
1869,-0.13,0.905,
1870,-0.125,0.92,
1871,-0.12,0.935,
1872,-0.11,0.935,
1873,-0.11,0.935,
1874,-0.11,0.935,
1875,-0.13,0.935,
1876,-0.12,0.945,
1877,-0.095,0.965,
1878,-0.07,0.965,
1879,-0.06,0.97,
1880,-0.06,0.95,
1881,-0.06,0.95,
1882,-0.075,0.955,
1883,-0.08,0.955,
1884,-0.075,0.97,
1885,-0.07,0.955,
1886,-0.065,0.96,
1887,-0.065,0.94,
1888,-0.065,0.955,
1889,-0.07,0.96,
1890,-0.07,0.955,
1891,-0.075,0.945,
1892,-0.035,0.945,
1893,-0.015,0.945,
1894,-0.03,0.95,
1895,-0.055,0.95,
1896,-0.045,0.955,
1897,-0.025,0.94,
1898,-0.015,0.93,
1899,-0.02,0.92,
1900,-0.005,0.925,
1901,0.005,0.915,
1902,-0.01,0.9,
1903,-0.01,0.885,
1904,-0.01,0.875,
1905,-0.01,0.855,
1906,-0.015,0.845,
1907,-0.01,0.85,
1908,-0.01,0.835,
1909,-0.04,0.815,
1910,-0.065,0.775,
1911,-0.08,0.76,
1912,-0.09,0.76,
1913,-0.09,0.76,
1914,-0.055,0.75,
1915,-0.035,0.715,
1916,-0.04,0.7,
1917,-0.075,0.68,
1918,-0.1,0.675,
1919,-0.09,0.675,
1920,-0.075,0.655,
1921,-0.07,0.655,
1922,-0.085,0.64,
1923,-0.115,0.64,
1924,-0.13,0.635,
1925,-0.125,0.63,
1926,-0.125,0.61,
1927,-0.135,0.605,
1928,-0.16,0.59,
1929,-0.17,0.595,
1930,-0.16,0.605,
1931,-0.16,0.6,
1932,-0.165,0.6,
1933,-0.155,0.615,
1934,-0.17,0.595,
1935,-0.18,0.585,
1936,-0.18,0.595,
1937,-0.175,0.615,
1938,-0.18,0.62,
1939,-0.185,0.615,
1940,-0.195,0.605,
1941,-0.205,0.61,
1942,-0.21,0.605,
1943,-0.215,0.615,
1944,-0.205,0.62,
1945,-0.2,0.61,
1946,-0.21,0.61,
1947,-0.21,0.605,
1948,-0.215,0.625,
1949,-0.225,0.64,
1950,-0.225,0.635,
1951,-0.255,0.64,
1952,-0.25,0.63,
1953,-0.255,0.645,
1954,-0.245,0.655,
1955,-0.25,0.67,
1956,-0.25,0.66,
1957,-0.24,0.67,
1958,-0.215,0.66,
1959,-0.21,0.66,
1960,-0.22,0.66,
1961,-0.23,0.675,
1962,-0.225,0.685,
1963,-0.225,0.685,
1964,-0.245,0.665,
1965,-0.27,0.675,
1966,-0.26,0.69,
1967,-0.255,0.69,
1968,-0.245,0.69,
1969,-0.245,0.685,
1970,-0.265,0.67,
1971,-0.285,0.675,
1972,-0.285,0.69,
1973,-0.29,0.71,
1974,-0.285,0.715,
1975,-0.3,0.7,
1976,-0.31,0.705,
1977,-0.315,0.68,
1978,-0.315,0.695,
1979,-0.305,0.705,
1980,-0.305,0.71,
1981,-0.315,0.7,
1982,-0.34,0.695,
1983,-0.35,0.675,
1984,-0.35,0.69,
1985,-0.33,0.71,
1986,-0.325,0.71,
1987,-0.325,0.705,
1988,-0.335,0.69,
1989,-0.37,0.695,
1990,-0.37,0.7,
1991,-0.37,0.7,
1992,-0.345,0.7,
1993,-0.345,0.695,
1994,-0.35,0.685,
1995,-0.365,0.67,
1996,-0.375,0.69,
1997,-0.365,0.69,
1998,-0.355,0.68,
1999,-0.36,0.67,
2000,-0.36,0.67,
2001,-0.355,0.675,
2002,-0.345,0.685,
2003,-0.365,0.685,
2004,-0.405,0.67,
2005,-0.41,0.675,
2006,-0.365,0.66,
2007,-0.33,0.655,
2008,-0.32,0.67,
2009,-0.33,0.675,
2010,-0.36,0.68,
2011,-0.37,0.68,
2012,-0.37,0.66,
2013,-0.37,0.655,
2014,-0.37,0.66,
2015,-0.37,0.67,
2016,-0.365,0.68,
2017,-0.375,0.675,
2018,-0.37,0.675,
2019,-0.38,0.65,
2020,-0.36,0.665,
2021,-0.345,0.655,
2022,-0.34,0.665,
2023,-0.33,0.65,
2024,-0.335,0.645,
2025,-0.36,0.64,
2026,-0.37,0.65,
2027,-0.35,0.655,
2028,-0.34,0.655,
2029,-0.35,0.655,
2030,-0.37,0.64,
2031,-0.39,0.63,
2032,-0.385,0.63,
2033,-0.36,0.645,
2034,-0.35,0.635,
2035,-0.35,0.635,
2036,-0.35,0.625,
2037,-0.36,0.62,
2038,-0.355,0.615,
2039,-0.34,0.63,
2040,-0.355,0.615,
2041,-0.36,0.615,
2042,-0.375,0.6,
2043,-0.36,0.61,
2044,-0.355,0.6,
2045,-0.365,0.61,
2046,-0.375,0.6,
2047,-0.38,0.59,
2048,-0.37,0.58,
2049,-0.355,0.575,
2050,-0.35,0.58,
2051,-0.35,0.595,
2052,-0.36,0.6,
2053,-0.365,0.58,
2054,-0.375,0.58,
2055,-0.375,0.585,
2056,-0.355,0.59,
2057,-0.35,0.61,
2058,-0.345,0.59,
2059,-0.345,0.58,
2060,-0.365,0.57,
2061,-0.37,0.565,
2062,-0.34,0.56,
2063,-0.305,0.58,
2064,-0.3,0.585,
2065,-0.32,0.585,
2066,-0.34,0.575,
2067,-0.33,0.585,
2068,-0.29,0.605,
2069,-0.26,0.615,
2070,-0.26,0.61,
2071,-0.275,0.615,
2072,-0.285,0.615,
2073,-0.29,0.63,
2074,-0.295,0.64,
2075,-0.27,0.65,
2076,-0.24,0.665,
2077,-0.175,0.665,
2078,-0.15,0.645,
2079,-0.155,0.625,
2080,-0.155,0.6,
2081,-0.14,0.61,
2082,-0.12,0.59,
2083,-0.125,0.575,
2084,-0.135,0.56,
2085,-0.125,0.565,
2086,-0.125,0.57,
2087,-0.115,0.575,
2088,-0.1,0.575,
2089,-0.105,0.565,
2090,-0.135,0.56,
2091,-0.175,0.545,
2092,-0.2,0.555,
2093,-0.21,0.57,
2094,-0.235,0.56,
2095,-0.28,0.545,
2096,-0.34,0.53,
2097,-0.39,0.52,
2098,-0.41,0.515,
2099,-0.405,0.52,
2100,-0.385,0.505,
2101,-0.38,0.505,
2102,-0.385,0.49,
2103,-0.395,0.475,
2104,-0.38,0.495,
2105,-0.37,0.495,
2106,-0.365,0.505,
2107,-0.385,0.505,
2108,-0.395,0.475,
2109,-0.4,0.475,
2110,-0.37,0.495,
2111,-0.37,0.5,
2112,-0.37,0.49,
2113,-0.37,0.485,
2114,-0.375,0.48,
2115,-0.385,0.46,
2116,-0.4,0.475,
2117,-0.39,0.48,
2118,-0.36,0.485,
2119,-0.365,0.47,
2120,-0.38,0.46,
2121,-0.395,0.46,
2122,-0.405,0.48,
2123,-0.39,0.465,
2124,-0.365,0.465,
2125,-0.355,0.46,
2126,-0.36,0.435,
2127,-0.38,0.45,
2128,-0.39,0.465,
2129,-0.365,0.475,
2130,-0.345,0.48,
2131,-0.355,0.45,
2132,-0.39,0.39,
2133,-0.445,0.29,
2134,-0.445,0.19,
2135,-0.415,0.06,
2136,-0.385,-0.11,
2137,-0.39,-0.33,
2138,-0.395,-0.655,
2139,-0.425,-0.98,
2140,-0.465,-1.18,
2141,-0.545,-1.235,
2142,-0.61,-1.195,
2143,-0.64,-1.145,
2144,-0.64,-1.11,
2145,-0.65,-1.055,
2146,-0.655,-1.0,
2147,-0.68,-0.94,
2148,-0.72,-0.91,
2149,-0.76,-0.885,
2150,-0.82,-0.86,
2151,-0.86,-0.83,
2152,-0.84,-0.755,
2153,-0.85,-0.675,
2154,-0.9,-0.625,
2155,-0.945,-0.56,
2156,-0.985,-0.52,
2157,-1.0,-0.48,N
2158,-0.96,-0.37,
2159,-0.895,-0.25,
2160,-0.855,-0.14,
2161,-0.84,-0.035,
2162,-0.805,0.035,
2163,-0.745,0.125,
2164,-0.665,0.21,
2165,-0.62,0.3,
2166,-0.565,0.38,
2167,-0.52,0.445,
2168,-0.445,0.48,
2169,-0.4,0.535,
2170,-0.355,0.585,
2171,-0.345,0.625,
2172,-0.335,0.65,
2173,-0.33,0.65,
2174,-0.335,0.64,
2175,-0.34,0.66,
2176,-0.315,0.665,
2177,-0.295,0.69,
2178,-0.285,0.695,
2179,-0.285,0.695,
2180,-0.31,0.7,
2181,-0.325,0.7,
2182,-0.315,0.715,
2183,-0.285,0.725,
2184,-0.275,0.74,
2185,-0.28,0.725,
2186,-0.3,0.725,
2187,-0.315,0.735,
2188,-0.3,0.75,
2189,-0.305,0.75,
2190,-0.285,0.76,
2191,-0.265,0.745,
2192,-0.275,0.745,
2193,-0.28,0.755,
2194,-0.28,0.745,
2195,-0.275,0.76,
2196,-0.28,0.75,
2197,-0.29,0.765,
2198,-0.3,0.75,
2199,-0.31,0.75,
2200,-0.285,0.755,
2201,-0.25,0.77,
2202,-0.22,0.77,
2203,-0.225,0.77,
2204,-0.245,0.76,
2205,-0.265,0.76,
2206,-0.25,0.775,
2207,-0.24,0.795,
2208,-0.225,0.785,
2209,-0.225,0.79,
2210,-0.215,0.795,
2211,-0.225,0.78,
2212,-0.22,0.785,
2213,-0.215,0.785,
2214,-0.2,0.79,
2215,-0.2,0.79,
2216,-0.2,0.77,
2217,-0.205,0.775,
2218,-0.205,0.79,
2219,-0.205,0.785,
2220,-0.19,0.79,
2221,-0.195,0.77,
2222,-0.19,0.765,
2223,-0.205,0.76,
2224,-0.19,0.76,
2225,-0.16,0.78,
2226,-0.135,0.775,
2227,-0.125,0.775,
2228,-0.145,0.755,
2229,-0.155,0.75,
2230,-0.14,0.76,
2231,-0.14,0.765,
2232,-0.13,0.755,
2233,-0.135,0.755,
2234,-0.15,0.74,
2235,-0.155,0.74,
2236,-0.15,0.73,
2237,-0.125,0.73,
2238,-0.1,0.73,
2239,-0.11,0.715,
2240,-0.11,0.705,
2241,-0.14,0.685,
2242,-0.13,0.68,
2243,-0.13,0.67,
2244,-0.11,0.675,
2245,-0.13,0.66,
2246,-0.12,0.645,
2247,-0.15,0.63,
2248,-0.145,0.62,
2249,-0.135,0.615,
2250,-0.135,0.6,
2251,-0.155,0.58,
2252,-0.175,0.555,
2253,-0.165,0.53,
2254,-0.14,0.53,
2255,-0.135,0.535,
2256,-0.15,0.53,
2257,-0.175,0.495,
2258,-0.2,0.475,
2259,-0.205,0.46,
2260,-0.2,0.46,
2261,-0.19,0.465,
2262,-0.19,0.45,
2263,-0.215,0.435,
2264,-0.215,0.425,
2265,-0.245,0.41,
2266,-0.235,0.41,
2267,-0.245,0.42,
2268,-0.245,0.41,
2269,-0.25,0.405,
2270,-0.255,0.395,
2271,-0.265,0.39,
2272,-0.25,0.405,
2273,-0.23,0.415,
2274,-0.23,0.395,
2275,-0.25,0.385,
2276,-0.26,0.365,
2277,-0.28,0.37,
2278,-0.26,0.38,
2279,-0.265,0.39,
2280,-0.265,0.39,
2281,-0.295,0.395,
2282,-0.315,0.385,
2283,-0.3,0.375,
2284,-0.255,0.385,
2285,-0.225,0.405,
2286,-0.23,0.4,
2287,-0.26,0.4,
2288,-0.285,0.4,
2289,-0.31,0.4,
2290,-0.305,0.4,
2291,-0.28,0.42,
2292,-0.26,0.415,
2293,-0.245,0.405,
2294,-0.25,0.41,
2295,-0.28,0.4,
2296,-0.28,0.41,
2297,-0.285,0.42,
2298,-0.275,0.425,
2299,-0.28,0.42,
2300,-0.28,0.405,
2301,-0.295,0.41,
2302,-0.305,0.43,
2303,-0.285,0.445,
2304,-0.275,0.45,
2305,-0.275,0.445,
2306,-0.295,0.42,
2307,-0.315,0.43,
2308,-0.31,0.445,
2309,-0.29,0.45,
2310,-0.275,0.445,
2311,-0.295,0.45,
2312,-0.31,0.445,
2313,-0.325,0.435,
2314,-0.305,0.46,
2315,-0.3,0.45,
2316,-0.28,0.45,
2317,-0.31,0.44,
2318,-0.32,0.425,
2319,-0.33,0.435,
2320,-0.305,0.44,
2321,-0.31,0.455,
2322,-0.305,0.455,
2323,-0.315,0.43,
2324,-0.345,0.425,
2325,-0.345,0.425,
2326,-0.34,0.42,
2327,-0.33,0.44,
2328,-0.32,0.43,
2329,-0.33,0.43,
2330,-0.345,0.425,
2331,-0.35,0.43,
2332,-0.35,0.43,
2333,-0.345,0.43,
2334,-0.345,0.415,
2335,-0.345,0.415,
2336,-0.37,0.405,
2337,-0.385,0.39,
2338,-0.375,0.395,
2339,-0.35,0.4,
2340,-0.335,0.4,
2341,-0.325,0.4,
2342,-0.345,0.38,
2343,-0.365,0.385,
2344,-0.38,0.39,
2345,-0.385,0.395,
2346,-0.375,0.39,
2347,-0.37,0.375,
2348,-0.365,0.365,
2349,-0.355,0.36,
2350,-0.35,0.38,
2351,-0.345,0.395,
2352,-0.33,0.39,
2353,-0.345,0.385,
2354,-0.36,0.38,
2355,-0.365,0.365,
2356,-0.35,0.37,
2357,-0.35,0.39,
2358,-0.35,0.39,
2359,-0.365,0.38,
2360,-0.375,0.35,
2361,-0.385,0.34,
2362,-0.375,0.355,
2363,-0.35,0.365,
2364,-0.325,0.365,
2365,-0.32,0.36,
2366,-0.325,0.355,
2367,-0.34,0.355,
2368,-0.34,0.36,
2369,-0.335,0.355,
2370,-0.33,0.365,
2371,-0.33,0.365,
2372,-0.315,0.355,
2373,-0.33,0.365,
2374,-0.33,0.37,
2375,-0.325,0.375,
2376,-0.32,0.37,
2377,-0.32,0.36,
2378,-0.33,0.34,
2379,-0.335,0.345,
2380,-0.32,0.35,
2381,-0.325,0.36,
2382,-0.3,0.355,
2383,-0.31,0.36,
2384,-0.315,0.345,
2385,-0.325,0.34,
2386,-0.32,0.355,
2387,-0.31,0.355,
2388,-0.305,0.345,
2389,-0.3,0.335,
2390,-0.31,0.335,
2391,-0.315,0.34,
2392,-0.305,0.35,
2393,-0.3,0.365,
2394,-0.29,0.355,
2395,-0.28,0.355,
2396,-0.3,0.33,
2397,-0.315,0.35,
2398,-0.315,0.35,
2399,-0.305,0.345,
2400,-0.29,0.34,
2401,-0.305,0.335,
2402,-0.305,0.32,
2403,-0.315,0.33,
2404,-0.315,0.34,
2405,-0.31,0.345,
2406,-0.29,0.335,
2407,-0.295,0.33,
2408,-0.31,0.32,
2409,-0.315,0.315,
2410,-0.305,0.33,
2411,-0.295,0.335,
2412,-0.3,0.335,
2413,-0.305,0.33,
2414,-0.29,0.325,
2415,-0.315,0.32,
2416,-0.32,0.34,
2417,-0.3,0.345,
2418,-0.245,0.365,
2419,-0.22,0.355,
2420,-0.21,0.355,
2421,-0.22,0.36,
2422,-0.22,0.38,
2423,-0.21,0.41,
2424,-0.19,0.41,
2425,-0.2,0.4,
2426,-0.17,0.4,
2427,-0.165,0.4,
2428,-0.13,0.405,
2429,-0.12,0.39,
2430,-0.11,0.375,
2431,-0.085,0.355,
2432,-0.095,0.35,
2433,-0.095,0.34,
2434,-0.1,0.345,
2435,-0.095,0.335,
2436,-0.085,0.345,
2437,-0.075,0.33,
2438,-0.07,0.325,
2439,-0.06,0.33,
2440,-0.06,0.33,
2441,-0.045,0.33,
2442,-0.07,0.33,
2443,-0.105,0.3,
2444,-0.16,0.29,
2445,-0.2,0.3,
2446,-0.215,0.305,
2447,-0.25,0.31,
2448,-0.28,0.295,
2449,-0.32,0.295,
2450,-0.335,0.27,
2451,-0.35,0.26,
2452,-0.345,0.26,
2453,-0.33,0.265,
2454,-0.34,0.27,
2455,-0.34,0.265,
2456,-0.36,0.26,
2457,-0.36,0.255,
2458,-0.38,0.26,
2459,-0.36,0.25,
2460,-0.32,0.265,
2461,-0.3,0.24,
2462,-0.315,0.25,
2463,-0.33,0.24,
2464,-0.345,0.25,
2465,-0.35,0.275,
2466,-0.33,0.245,
2467,-0.34,0.245,
2468,-0.36,0.23,
2469,-0.35,0.24,
2470,-0.35,0.245,
2471,-0.345,0.25,
2472,-0.345,0.25,
2473,-0.35,0.245,
2474,-0.36,0.23,
2475,-0.365,0.22,
2476,-0.355,0.235,
2477,-0.34,0.235,
2478,-0.335,0.225,
2479,-0.34,0.225,
2480,-0.34,0.21,
2481,-0.335,0.22,
2482,-0.35,0.22,
2483,-0.35,0.215,
2484,-0.355,0.215,
2485,-0.35,0.22,
2486,-0.35,0.23,
2487,-0.375,0.225,
2488,-0.39,0.215,
2489,-0.375,0.165,
2490,-0.38,0.095,
2491,-0.4,-0.01,
2492,-0.42,-0.155,
2493,-0.425,-0.31,
2494,-0.415,-0.49,
2495,-0.415,-0.695,
2496,-0.39,-0.995,
2497,-0.385,-1.26,
2498,-0.435,-1.475,
2499,-0.53,-1.55,
2500,-0.585,-1.505,
2501,-0.61,-1.445,
2502,-0.585,-1.39,
2503,-0.575,-1.35,
2504,-0.605,-1.305,
2505,-0.635,-1.26,
2506,-0.665,-1.2,
2507,-0.7,-1.16,
2508,-0.725,-1.145,
2509,-0.76,-1.13,
2510,-0.79,-1.09,
2511,-0.795,-1.055,
2512,-0.8,-0.995,
2513,-0.85,-0.915,
2514,-0.91,-0.875,
2515,-0.955,-0.815,
2516,-0.965,-0.78,
2517,-0.975,-0.72,N
2518,-0.95,-0.635,
2519,-0.91,-0.535,
2520,-0.87,-0.425,
2521,-0.84,-0.33,
2522,-0.81,-0.25,
2523,-0.775,-0.165,
2524,-0.695,-0.075,
2525,-0.615,0.02,
2526,-0.555,0.085,
2527,-0.51,0.135,
2528,-0.485,0.19,
2529,-0.44,0.275,
2530,-0.36,0.345,
2531,-0.335,0.4,
2532,-0.315,0.425,
2533,-0.295,0.445,
2534,-0.285,0.445,
2535,-0.285,0.445,
2536,-0.285,0.46,
2537,-0.275,0.485,
2538,-0.265,0.495,
2539,-0.245,0.51,
2540,-0.255,0.5,
2541,-0.26,0.5,
2542,-0.26,0.51,
2543,-0.24,0.53,
2544,-0.225,0.545,
2545,-0.245,0.56,
2546,-0.25,0.535,
2547,-0.27,0.525,
2548,-0.27,0.53,
2549,-0.25,0.545,
2550,-0.24,0.555,
2551,-0.22,0.55,
2552,-0.245,0.54,
2553,-0.25,0.535,
2554,-0.24,0.54,
2555,-0.23,0.55,
2556,-0.22,0.575,
2557,-0.22,0.57,
2558,-0.22,0.555,
2559,-0.235,0.545,
2560,-0.215,0.56,
2561,-0.215,0.58,
2562,-0.215,0.585,
2563,-0.2,0.575,
2564,-0.215,0.56,
2565,-0.22,0.565,
2566,-0.215,0.565,
2567,-0.225,0.565,
2568,-0.215,0.55,
2569,-0.215,0.55,
2570,-0.22,0.555,
2571,-0.23,0.565,
2572,-0.21,0.57,
2573,-0.195,0.57,
2574,-0.2,0.565,
2575,-0.2,0.56,
2576,-0.185,0.545,
2577,-0.18,0.545,
2578,-0.17,0.565,
2579,-0.18,0.57,
2580,-0.19,0.575,
2581,-0.185,0.57,
2582,-0.175,0.565,
2583,-0.195,0.56,
2584,-0.17,0.575,
2585,-0.165,0.595,
2586,-0.14,0.58,
2587,-0.13,0.57,
2588,-0.13,0.55,
2589,-0.13,0.545,
2590,-0.135,0.535,
2591,-0.13,0.53,
2592,-0.135,0.525,
2593,-0.125,0.53,
2594,-0.12,0.535,
2595,-0.115,0.555,
2596,-0.115,0.525,
2597,-0.13,0.505,
2598,-0.115,0.485,
2599,-0.115,0.48,
2600,-0.11,0.48,
2601,-0.115,0.485,
2602,-0.085,0.5,
2603,-0.07,0.5,
2604,-0.08,0.485,
2605,-0.08,0.485,
2606,-0.105,0.465,
2607,-0.115,0.47,
2608,-0.115,0.46,
2609,-0.115,0.445,
2610,-0.12,0.42,
2611,-0.12,0.405,
2612,-0.12,0.4,
2613,-0.125,0.385,
2614,-0.13,0.38,
2615,-0.13,0.375,
2616,-0.135,0.37,
2617,-0.14,0.345,
2618,-0.155,0.33,
2619,-0.155,0.3,
2620,-0.145,0.29,
2621,-0.145,0.295,
2622,-0.155,0.29,
2623,-0.19,0.27,
2624,-0.205,0.245,
2625,-0.22,0.235,
2626,-0.21,0.24,
2627,-0.215,0.245,
2628,-0.23,0.215,
2629,-0.24,0.19,
2630,-0.245,0.17,
2631,-0.24,0.165,
2632,-0.25,0.18,
2633,-0.255,0.185,
2634,-0.23,0.17,
2635,-0.235,0.17,
2636,-0.25,0.15,
2637,-0.28,0.145,
2638,-0.27,0.145,
2639,-0.265,0.145,
2640,-0.265,0.155,
2641,-0.285,0.135,
2642,-0.275,0.115,
2643,-0.28,0.125,
2644,-0.255,0.145,
2645,-0.26,0.16,
2646,-0.27,0.145,
2647,-0.275,0.14,
2648,-0.29,0.14,
2649,-0.29,0.14,
2650,-0.305,0.145,
2651,-0.315,0.135,
2652,-0.305,0.14,
2653,-0.3,0.13,
2654,-0.3,0.125,
2655,-0.3,0.13,
2656,-0.3,0.12,
2657,-0.28,0.14,
2658,-0.28,0.15,
2659,-0.28,0.15,
2660,-0.3,0.15,
2661,-0.31,0.145,
2662,-0.305,0.155,
2663,-0.3,0.17,
2664,-0.29,0.15,
2665,-0.31,0.13,
2666,-0.345,0.135,
2667,-0.355,0.145,
2668,-0.335,0.16,
2669,-0.315,0.17,
2670,-0.32,0.16,
2671,-0.325,0.145,
2672,-0.34,0.14,
2673,-0.345,0.15,
2674,-0.365,0.175,
2675,-0.355,0.175,
2676,-0.32,0.175,
2677,-0.32,0.15,
2678,-0.34,0.135,
2679,-0.355,0.13,
2680,-0.35,0.155,
2681,-0.33,0.165,
2682,-0.31,0.18,
2683,-0.315,0.175,
2684,-0.335,0.16,
2685,-0.365,0.155,
2686,-0.37,0.15,
2687,-0.355,0.16,
2688,-0.345,0.155,
2689,-0.345,0.155,
2690,-0.38,0.14,
2691,-0.405,0.145,
2692,-0.395,0.15,
2693,-0.39,0.15,
2694,-0.38,0.13,
2695,-0.385,0.13,
2696,-0.39,0.12,
2697,-0.41,0.13,
2698,-0.4,0.14,
2699,-0.4,0.15,
2700,-0.41,0.14,
2701,-0.405,0.13,
2702,-0.395,0.11,
2703,-0.4,0.12,
2704,-0.385,0.135,
2705,-0.39,0.13,
2706,-0.39,0.12,
2707,-0.395,0.105,
2708,-0.41,0.095,
2709,-0.41,0.105,
2710,-0.405,0.13,
2711,-0.38,0.14,
2712,-0.385,0.135,
2713,-0.405,0.115,
2714,-0.41,0.08,
2715,-0.415,0.075,
2716,-0.4,0.095,
2717,-0.395,0.095,
2718,-0.4,0.095,
2719,-0.395,0.095,
2720,-0.395,0.085,
2721,-0.41,0.08,
2722,-0.41,0.065,
2723,-0.4,0.08,
2724,-0.385,0.08,
2725,-0.375,0.085,
2726,-0.375,0.065,
2727,-0.39,0.075,
2728,-0.4,0.075,
2729,-0.385,0.09,
2730,-0.38,0.085,
2731,-0.375,0.085,
2732,-0.39,0.07,
2733,-0.4,0.07,
2734,-0.375,0.08,
2735,-0.37,0.085,
2736,-0.38,0.075,
2737,-0.4,0.065,
2738,-0.4,0.055,
2739,-0.375,0.06,
2740,-0.345,0.07,
2741,-0.33,0.075,
2742,-0.33,0.08,
2743,-0.36,0.06,
2744,-0.39,0.05,
2745,-0.405,0.055,
2746,-0.375,0.065,
2747,-0.35,0.075,
2748,-0.345,0.085,
2749,-0.36,0.065,
2750,-0.355,0.06,
2751,-0.365,0.075,
2752,-0.35,0.075,
2753,-0.335,0.09,
2754,-0.35,0.075,
2755,-0.36,0.06,
2756,-0.36,0.045,
2757,-0.37,0.05,
2758,-0.355,0.065,
2759,-0.34,0.075,
2760,-0.345,0.07,
2761,-0.34,0.055,
2762,-0.35,0.045,
2763,-0.365,0.045,
2764,-0.38,0.065,
2765,-0.37,0.07,
2766,-0.35,0.065,
2767,-0.325,0.04,
2768,-0.33,0.05,
2769,-0.35,0.055,
2770,-0.36,0.07,
2771,-0.35,0.07,
2772,-0.35,0.065,
2773,-0.325,0.05,
2774,-0.31,0.055,
2775,-0.335,0.07,
2776,-0.345,0.065,
2777,-0.35,0.04,
2778,-0.345,0.05,
2779,-0.355,0.04,
2780,-0.35,0.04,
2781,-0.36,0.035,
2782,-0.355,0.055,
2783,-0.345,0.055,
2784,-0.34,0.06,
2785,-0.335,0.055,
2786,-0.345,0.065,
2787,-0.365,0.07,
2788,-0.39,0.06,
2789,-0.38,0.06,
2790,-0.34,0.08,
2791,-0.28,0.07,
2792,-0.26,0.06,
2793,-0.28,0.065,
2794,-0.28,0.075,
2795,-0.275,0.085,
2796,-0.26,0.105,
2797,-0.26,0.1,
2798,-0.27,0.105,
2799,-0.285,0.12,
2800,-0.245,0.135,
2801,-0.23,0.155,
2802,-0.205,0.145,
2803,-0.195,0.135,
2804,-0.185,0.12,
2805,-0.18,0.11,
2806,-0.14,0.125,
2807,-0.13,0.135,
2808,-0.105,0.11,
2809,-0.13,0.08,
2810,-0.15,0.055,
2811,-0.145,0.045,
2812,-0.12,0.065,
2813,-0.105,0.085,
2814,-0.07,0.075,
2815,-0.08,0.07,
2816,-0.085,0.065,
2817,-0.135,0.06,
2818,-0.21,0.06,
2819,-0.25,0.05,
2820,-0.26,0.05,
2821,-0.285,0.04,
2822,-0.315,0.03,
2823,-0.36,0.01,
2824,-0.375,0.01,
2825,-0.385,0.025,
2826,-0.365,0.025,
2827,-0.37,0.01,
2828,-0.37,0.0,
2829,-0.395,0.0,
2830,-0.385,0.015,
2831,-0.37,0.025,
2832,-0.375,0.03,
2833,-0.39,0.01,
2834,-0.395,-0.02,
2835,-0.4,-0.01,
2836,-0.39,-0.015,
2837,-0.385,0.005,
2838,-0.385,-0.005,
2839,-0.38,-0.005,
2840,-0.4,-0.02,
2841,-0.4,-0.015,
2842,-0.385,0.0,
2843,-0.375,0.0,
2844,-0.36,0.0,
2845,-0.375,0.005,
2846,-0.39,-0.005,
2847,-0.39,0.0,
2848,-0.405,0.005,
2849,-0.4,0.0,
2850,-0.39,0.005,
2851,-0.365,-0.005,
2852,-0.385,-0.01,
2853,-0.395,-0.015,
2854,-0.4,-0.005,
2855,-0.395,0.005,
2856,-0.39,0.0,
2857,-0.385,-0.02,
2858,-0.385,-0.03,
2859,-0.4,-0.02,
2860,-0.385,0.0,
2861,-0.375,0.01,
2862,-0.385,-0.01,
2863,-0.405,-0.075,
2864,-0.45,-0.165,
2865,-0.44,-0.255,
2866,-0.415,-0.36,
2867,-0.395,-0.48,
2868,-0.375,-0.665,
2869,-0.38,-0.91,
2870,-0.395,-1.2,
2871,-0.465,-1.46,
2872,-0.54,-1.58,
2873,-0.6,-1.575,
2874,-0.62,-1.52,
2875,-0.64,-1.49,
2876,-0.655,-1.455,
2877,-0.65,-1.425,
2878,-0.65,-1.35,
2879,-0.68,-1.285,
2880,-0.735,-1.26,
2881,-0.78,-1.25,
2882,-0.82,-1.25,
2883,-0.855,-1.215,
2884,-0.855,-1.14,
2885,-0.89,-1.065,
2886,-0.935,-1.015,
2887,-0.985,-0.985,
2888,-1.015,-0.945,
2889,-1.02,-0.89,N
2890,-1.015,-0.83,
2891,-0.985,-0.745,
2892,-0.93,-0.645,
2893,-0.885,-0.54,
2894,-0.88,-0.47,
2895,-0.835,-0.39,
2896,-0.74,-0.3,
2897,-0.655,-0.2,
2898,-0.585,-0.14,
2899,-0.545,-0.07,
2900,-0.525,-0.025,
2901,-0.505,0.03,
2902,-0.45,0.1,
2903,-0.39,0.15,
2904,-0.335,0.185,
2905,-0.315,0.2,
2906,-0.31,0.215,
2907,-0.32,0.215,
2908,-0.31,0.25,
2909,-0.3,0.265,
2910,-0.285,0.275,
2911,-0.285,0.275,
2912,-0.285,0.29,
2913,-0.305,0.295,
2914,-0.29,0.31,
2915,-0.28,0.305,
2916,-0.28,0.3,
2917,-0.275,0.31,
2918,-0.28,0.3,
2919,-0.3,0.31,
2920,-0.29,0.33,
2921,-0.275,0.35,
2922,-0.26,0.35,
2923,-0.265,0.34,
2924,-0.27,0.32,
2925,-0.28,0.325,
2926,-0.285,0.35,
2927,-0.285,0.355,
2928,-0.275,0.36,
2929,-0.25,0.345,
2930,-0.25,0.36,
2931,-0.26,0.35,
2932,-0.28,0.365,
2933,-0.265,0.375,
2934,-0.25,0.37,
2935,-0.26,0.38,
2936,-0.255,0.36,
2937,-0.255,0.355,
2938,-0.26,0.365,
2939,-0.245,0.375,
2940,-0.245,0.375,
2941,-0.24,0.37,
2942,-0.23,0.37,
2943,-0.235,0.37,
2944,-0.225,0.37,
2945,-0.225,0.38,
2946,-0.2,0.375,
2947,-0.21,0.38,
2948,-0.225,0.365,
2949,-0.235,0.38,
2950,-0.23,0.405,
2951,-0.225,0.41,
2952,-0.2,0.405,
2953,-0.18,0.395,
2954,-0.185,0.38,
2955,-0.185,0.39,
2956,-0.19,0.39,
2957,-0.2,0.4,
2958,-0.185,0.39,
2959,-0.17,0.375,
2960,-0.16,0.38,
2961,-0.17,0.37,
2962,-0.17,0.39,
2963,-0.155,0.395,
2964,-0.155,0.375,
2965,-0.15,0.365,
2966,-0.15,0.36,
2967,-0.165,0.365,
2968,-0.16,0.385,
2969,-0.15,0.38,
2970,-0.15,0.37,
2971,-0.15,0.355,
2972,-0.15,0.34,
2973,-0.145,0.335,
2974,-0.135,0.36,
2975,-0.145,0.355,
2976,-0.15,0.335,
2977,-0.145,0.32,
2978,-0.15,0.31,
2979,-0.165,0.285,
2980,-0.15,0.29,
2981,-0.13,0.285,
2982,-0.12,0.275,
2983,-0.13,0.27,
2984,-0.135,0.255,
2985,-0.145,0.245,
2986,-0.145,0.24,
2987,-0.15,0.24,
2988,-0.155,0.23,
2989,-0.165,0.22,
2990,-0.175,0.2,
2991,-0.2,0.175,
2992,-0.215,0.16,
2993,-0.22,0.175,
2994,-0.205,0.16,
2995,-0.21,0.155,
2996,-0.22,0.13,
2997,-0.23,0.115,
2998,-0.235,0.105,
2999,-0.245,0.1,
3000,-0.235,0.1,
3001,-0.25,0.095,
3002,-0.27,0.075,
3003,-0.27,0.07,
3004,-0.28,0.09,
3005,-0.265,0.09,
3006,-0.255,0.075,
3007,-0.255,0.06,
3008,-0.285,0.04,
3009,-0.29,0.06,
3010,-0.28,0.07,
3011,-0.275,0.07,
3012,-0.27,0.06,
3013,-0.275,0.07,
3014,-0.265,0.06,
3015,-0.275,0.065,
3016,-0.285,0.075,
3017,-0.275,0.075,
3018,-0.265,0.07,
3019,-0.28,0.075,
3020,-0.29,0.065,
3021,-0.295,0.06,
3022,-0.285,0.075,
3023,-0.265,0.08,
3024,-0.27,0.08,
3025,-0.28,0.07,
3026,-0.295,0.07,
3027,-0.305,0.075,
3028,-0.3,0.08,
3029,-0.28,0.115,
3030,-0.285,0.125,
3031,-0.285,0.115,
3032,-0.305,0.095,
3033,-0.315,0.095,
3034,-0.315,0.105,
3035,-0.295,0.125,
3036,-0.295,0.12,
3037,-0.295,0.115,
3038,-0.3,0.1,
3039,-0.31,0.11,
3040,-0.32,0.13,
3041,-0.305,0.13,
3042,-0.3,0.145,
3043,-0.305,0.135,
3044,-0.305,0.115,
3045,-0.33,0.105,
3046,-0.335,0.115,
3047,-0.335,0.13,
3048,-0.315,0.145,
3049,-0.315,0.14,
3050,-0.33,0.13,
3051,-0.355,0.135,
3052,-0.335,0.14,
3053,-0.325,0.145,
3054,-0.325,0.135,
3055,-0.325,0.125,
3056,-0.33,0.135,
3057,-0.355,0.12,
3058,-0.36,0.13,
3059,-0.35,0.125,
3060,-0.35,0.145,
3061,-0.345,0.13,
3062,-0.355,0.115,
3063,-0.38,0.11,
3064,-0.375,0.115,
3065,-0.37,0.12,
3066,-0.365,0.105,
3067,-0.37,0.105,
3068,-0.385,0.1,
3069,-0.405,0.1,
3070,-0.4,0.11,
3071,-0.395,0.115,
3072,-0.37,0.11,
3073,-0.37,0.11,
3074,-0.39,0.1,
3075,-0.41,0.09,
3076,-0.4,0.11,
3077,-0.405,0.11,
3078,-0.385,0.1,
3079,-0.365,0.1,
3080,-0.375,0.08,
3081,-0.395,0.065,
3082,-0.405,0.085,
3083,-0.4,0.1,
3084,-0.38,0.11,
3085,-0.365,0.105,
3086,-0.365,0.1,
3087,-0.385,0.09,
3088,-0.395,0.075,
3089,-0.4,0.085,
3090,-0.385,0.09,
3091,-0.375,0.09,
3092,-0.39,0.08,
3093,-0.38,0.07,
3094,-0.355,0.085,
3095,-0.34,0.09,
3096,-0.36,0.08,
3097,-0.38,0.065,
3098,-0.39,0.05,
3099,-0.38,0.06,
3100,-0.365,0.075,
3101,-0.365,0.085,
3102,-0.355,0.075,
3103,-0.355,0.065,
3104,-0.37,0.05,
3105,-0.375,0.045,
3106,-0.385,0.055,
3107,-0.375,0.08,
3108,-0.375,0.07,
3109,-0.375,0.065,
3110,-0.345,0.07,
3111,-0.345,0.065,
3112,-0.35,0.07,
3113,-0.35,0.075,
3114,-0.35,0.055,
3115,-0.355,0.045,
3116,-0.345,0.05,
3117,-0.355,0.055,
3118,-0.35,0.05,
3119,-0.355,0.06,
3120,-0.355,0.045,
3121,-0.37,0.055,
3122,-0.36,0.05,
3123,-0.365,0.045,
3124,-0.36,0.04,
3125,-0.35,0.07,
3126,-0.345,0.06,
3127,-0.36,0.065,
3128,-0.355,0.05,
3129,-0.375,0.045,
3130,-0.36,0.075,
3131,-0.355,0.09,
3132,-0.36,0.065,
3133,-0.365,0.04,
3134,-0.36,0.035,
3135,-0.365,0.045,
3136,-0.36,0.05,
3137,-0.35,0.06,
3138,-0.34,0.05,
3139,-0.335,0.055,
3140,-0.335,0.05,
3141,-0.35,0.04,
3142,-0.33,0.055,
3143,-0.31,0.08,
3144,-0.32,0.095,
3145,-0.31,0.095,
3146,-0.305,0.095,
3147,-0.32,0.095,
3148,-0.31,0.115,
3149,-0.285,0.145,
3150,-0.275,0.145,
3151,-0.265,0.155,
3152,-0.22,0.15,
3153,-0.19,0.135,
3154,-0.17,0.125,
3155,-0.185,0.105,
3156,-0.175,0.1,
3157,-0.155,0.095,
3158,-0.15,0.085,
3159,-0.155,0.075,
3160,-0.155,0.07,
3161,-0.145,0.08,
3162,-0.12,0.07,
3163,-0.1,0.08,
3164,-0.11,0.075,
3165,-0.14,0.08,
3166,-0.15,0.09,
3167,-0.185,0.08,
3168,-0.21,0.075,
3169,-0.245,0.065,
3170,-0.285,0.05,
3171,-0.325,0.045,
3172,-0.37,0.05,
3173,-0.395,0.03,
3174,-0.4,0.015,
3175,-0.42,0.015,
3176,-0.41,-0.015,
3177,-0.415,0.0,
3178,-0.425,0.015,
3179,-0.405,0.025,
3180,-0.405,0.02,
3181,-0.405,0.015,
3182,-0.415,0.015,
3183,-0.425,0.005,
3184,-0.44,0.01,
3185,-0.44,0.015,
3186,-0.41,0.005,
3187,-0.395,0.015,
3188,-0.405,-0.01,
3189,-0.43,-0.015,
3190,-0.43,0.0,
3191,-0.425,0.01,
3192,-0.405,0.0,
3193,-0.42,-0.005,
3194,-0.41,-0.01,
3195,-0.405,-0.005,
3196,-0.4,0.015,
3197,-0.4,0.01,
3198,-0.4,-0.01,
3199,-0.42,-0.03,
3200,-0.43,-0.03,
3201,-0.44,-0.03,
3202,-0.43,-0.02,
3203,-0.42,-0.01,
3204,-0.425,-0.005,
3205,-0.41,0.005,
3206,-0.4,-0.005,
3207,-0.42,-0.01,
3208,-0.415,-0.025,
3209,-0.415,0.0,
3210,-0.41,-0.005,
3211,-0.425,-0.06,
3212,-0.445,-0.11,
3213,-0.475,-0.185,
3214,-0.46,-0.275,
3215,-0.42,-0.38,
3216,-0.38,-0.505,
3217,-0.39,-0.675,
3218,-0.41,-0.92,
3219,-0.405,-1.215,
3220,-0.435,-1.46,
3221,-0.505,-1.575,
3222,-0.605,-1.6,
3223,-0.65,-1.56,
3224,-0.665,-1.51,
3225,-0.665,-1.47,
3226,-0.68,-1.415,
3227,-0.69,-1.35,
3228,-0.695,-1.3,
3229,-0.74,-1.275,
3230,-0.795,-1.25,
3231,-0.845,-1.235,
3232,-0.885,-1.185,
3233,-0.9,-1.12,
3234,-0.915,-1.065,
3235,-0.965,-1.005,
3236,-1.02,-0.96,
3237,-1.07,-0.915,
3238,-1.065,-0.855,N
3239,-1.045,-0.79,
3240,-1.005,-0.705,
3241,-0.955,-0.61,
3242,-0.925,-0.525,
3243,-0.915,-0.445,
3244,-0.875,-0.365,
3245,-0.79,-0.27,
3246,-0.695,-0.19,
3247,-0.63,-0.125,
3248,-0.6,-0.08,
3249,-0.575,-0.02,
3250,-0.515,0.055,
3251,-0.44,0.13,
3252,-0.395,0.175,
3253,-0.38,0.185,
3254,-0.385,0.195,
3255,-0.385,0.205,
3256,-0.375,0.23,
3257,-0.36,0.245,
3258,-0.34,0.255,
3259,-0.33,0.275,
3260,-0.34,0.255,
3261,-0.35,0.25,
3262,-0.35,0.265,
3263,-0.33,0.3,
3264,-0.325,0.3,
3265,-0.33,0.3,
3266,-0.335,0.285,
3267,-0.335,0.29,
3268,-0.325,0.315,
3269,-0.305,0.33,
3270,-0.295,0.325,
3271,-0.295,0.315,
3272,-0.305,0.32,
3273,-0.32,0.325,
3274,-0.32,0.34,
3275,-0.33,0.325,
3276,-0.31,0.305,
3277,-0.305,0.32,
3278,-0.295,0.32,
3279,-0.31,0.335,
3280,-0.3,0.34,
3281,-0.3,0.355,
3282,-0.29,0.35,
3283,-0.28,0.345,
3284,-0.285,0.345,
3285,-0.29,0.35,
3286,-0.28,0.355,
3287,-0.265,0.345,
3288,-0.25,0.36,
3289,-0.26,0.36,
3290,-0.27,0.36,
3291,-0.28,0.35,
3292,-0.26,0.355,
3293,-0.255,0.375,
3294,-0.27,0.355,
3295,-0.265,0.345,
3296,-0.255,0.345,
3297,-0.245,0.35,
3298,-0.235,0.36,
3299,-0.24,0.36,
3300,-0.23,0.355,
3301,-0.21,0.36,
3302,-0.21,0.365,
3303,-0.22,0.36,
3304,-0.225,0.375,
3305,-0.215,0.38,
3306,-0.205,0.36,
3307,-0.205,0.355,
3308,-0.205,0.355,
3309,-0.21,0.36,
3310,-0.2,0.365,
3311,-0.21,0.355,
3312,-0.19,0.34,
3313,-0.19,0.335,
3314,-0.19,0.33,
3315,-0.2,0.33,
3316,-0.21,0.32,
3317,-0.215,0.325,
3318,-0.175,0.325,
3319,-0.155,0.315,
3320,-0.165,0.305,
3321,-0.185,0.285,
3322,-0.18,0.3,
3323,-0.165,0.315,
3324,-0.15,0.3,
3325,-0.15,0.29,
3326,-0.165,0.27,
3327,-0.18,0.255,
3328,-0.19,0.25,
3329,-0.18,0.255,
3330,-0.185,0.245,
3331,-0.21,0.21,
3332,-0.22,0.19,
3333,-0.235,0.175,
3334,-0.235,0.185,
3335,-0.23,0.185,
3336,-0.225,0.165,
3337,-0.24,0.155,
3338,-0.255,0.13,
3339,-0.265,0.12,
3340,-0.275,0.12,
3341,-0.265,0.115,
3342,-0.27,0.1,
3343,-0.285,0.1,
3344,-0.295,0.085,
3345,-0.31,0.085,
3346,-0.305,0.085,
3347,-0.3,0.09,
3348,-0.305,0.085,
3349,-0.305,0.07,
3350,-0.325,0.06,
3351,-0.365,0.04,
3352,-0.345,0.045,
3353,-0.33,0.065,
3354,-0.315,0.07,
3355,-0.335,0.065,
3356,-0.32,0.04,
3357,-0.35,0.045,
3358,-0.335,0.065,
3359,-0.34,0.075,
3360,-0.33,0.07,
3361,-0.34,0.06,
3362,-0.35,0.045,
3363,-0.355,0.05,
3364,-0.375,0.065,
3365,-0.36,0.07,
3366,-0.335,0.08,
3367,-0.335,0.065,
3368,-0.34,0.045,
3369,-0.36,0.045,
3370,-0.355,0.065,
3371,-0.36,0.085,
3372,-0.345,0.085,
3373,-0.35,0.085,
3374,-0.35,0.07,
3375,-0.365,0.08,
3376,-0.355,0.085,
3377,-0.36,0.095,
3378,-0.345,0.085,
3379,-0.355,0.09,
3380,-0.355,0.09,
3381,-0.365,0.09,
3382,-0.375,0.1,
3383,-0.365,0.1,
3384,-0.35,0.1,
3385,-0.36,0.1,
3386,-0.345,0.095,
3387,-0.37,0.1,
3388,-0.365,0.115,
3389,-0.35,0.13,
3390,-0.34,0.12,
3391,-0.35,0.125,
3392,-0.37,0.115,
3393,-0.385,0.125,
3394,-0.39,0.12,
3395,-0.375,0.125,
3396,-0.365,0.125,
3397,-0.375,0.105,
3398,-0.395,0.085,
3399,-0.405,0.09,
3400,-0.41,0.11,
3401,-0.405,0.125,
3402,-0.4,0.12,
3403,-0.4,0.115,
3404,-0.405,0.105,
3405,-0.425,0.095,
3406,-0.41,0.115,
3407,-0.405,0.12,
3408,-0.385,0.115,
3409,-0.395,0.115,
3410,-0.405,0.105,
3411,-0.41,0.1,
3412,-0.42,0.1,
3413,-0.41,0.11,
3414,-0.41,0.105,
3415,-0.405,0.085,
3416,-0.4,0.08,
3417,-0.41,0.08,
3418,-0.42,0.085,
3419,-0.415,0.105,
3420,-0.415,0.08,
3421,-0.43,0.07,
3422,-0.425,0.07,
3423,-0.43,0.07,
3424,-0.435,0.07,
3425,-0.425,0.095,
3426,-0.415,0.075,
3427,-0.41,0.085,
3428,-0.395,0.085,
3429,-0.41,0.07,
3430,-0.43,0.06,
3431,-0.45,0.05,
3432,-0.42,0.055,
3433,-0.425,0.055,
3434,-0.42,0.045,
3435,-0.435,0.04,
3436,-0.42,0.05,
3437,-0.425,0.055,
3438,-0.42,0.055,
3439,-0.43,0.05,
3440,-0.425,0.05,
3441,-0.425,0.05,
3442,-0.4,0.075,
3443,-0.395,0.075,
3444,-0.405,0.065,
3445,-0.41,0.035,
3446,-0.4,0.05,
3447,-0.395,0.055,
3448,-0.38,0.06,
3449,-0.37,0.075,
3450,-0.375,0.07,
3451,-0.385,0.07,
3452,-0.405,0.06,
3453,-0.41,0.045,
3454,-0.41,0.055,
3455,-0.405,0.06,
3456,-0.39,0.035,
3457,-0.395,0.035,
3458,-0.41,0.04,
3459,-0.42,0.035,
3460,-0.39,0.05,
3461,-0.385,0.05,
3462,-0.38,0.045,
3463,-0.375,0.045,
3464,-0.38,0.035,
3465,-0.395,0.035,
3466,-0.39,0.06,
3467,-0.385,0.075,
3468,-0.39,0.07,
3469,-0.4,0.055,
3470,-0.415,0.035,
3471,-0.4,0.03,
3472,-0.41,0.04,
3473,-0.395,0.045,
3474,-0.4,0.04,
3475,-0.395,0.04,
3476,-0.405,0.03,
3477,-0.395,0.03,
3478,-0.37,0.04,
3479,-0.365,0.055,
3480,-0.36,0.05,
3481,-0.37,0.04,
3482,-0.385,0.025,
3483,-0.395,0.025,
3484,-0.39,0.04,
3485,-0.375,0.06,
3486,-0.365,0.055,
3487,-0.375,0.04,
3488,-0.395,0.025,
3489,-0.39,0.02,
3490,-0.385,0.04,
3491,-0.375,0.045,
3492,-0.365,0.05,
3493,-0.36,0.035,
3494,-0.37,0.04,
3495,-0.38,0.055,
3496,-0.36,0.06,
3497,-0.32,0.08,
3498,-0.29,0.095,
3499,-0.285,0.085,
3500,-0.31,0.095,
3501,-0.31,0.105,
3502,-0.285,0.125,
3503,-0.26,0.145,
3504,-0.24,0.155,
3505,-0.22,0.15,
3506,-0.21,0.125,
3507,-0.205,0.115,
3508,-0.21,0.1,
3509,-0.185,0.105,
3510,-0.15,0.095,
3511,-0.135,0.09,
3512,-0.14,0.075,
3513,-0.16,0.065,
3514,-0.17,0.065,
3515,-0.145,0.065,
3516,-0.13,0.07,
3517,-0.125,0.06,
3518,-0.12,0.065,
3519,-0.13,0.06,
3520,-0.14,0.065,
3521,-0.18,0.07,
3522,-0.23,0.06,
3523,-0.27,0.055,
3524,-0.31,0.04,
3525,-0.355,0.05,
3526,-0.41,0.035,
3527,-0.425,0.04,
3528,-0.42,0.015,
3529,-0.41,0.025,
3530,-0.41,0.005,
3531,-0.41,0.005,
3532,-0.405,0.03,
3533,-0.395,0.03,
3534,-0.4,0.025,
3535,-0.4,-0.01,
3536,-0.42,-0.01,
3537,-0.415,-0.005,
3538,-0.415,0.015,
3539,-0.42,0.01,
3540,-0.43,-0.005,
3541,-0.44,-0.015,
3542,-0.43,-0.02,
3543,-0.42,-0.01,
3544,-0.415,0.005,
3545,-0.4,0.015,
3546,-0.405,0.015,
3547,-0.41,0.015,
3548,-0.415,0.0,
3549,-0.415,-0.01,
3550,-0.41,-0.005,
3551,-0.4,0.005,
3552,-0.395,0.01,
3553,-0.405,-0.005,
3554,-0.41,-0.005,
3555,-0.42,-0.01,
3556,-0.415,-0.005,
3557,-0.41,0.005,
3558,-0.41,-0.01,
3559,-0.4,-0.01,
3560,-0.405,-0.025,
3561,-0.425,-0.01,
3562,-0.405,0.02,
3563,-0.39,0.03,
3564,-0.385,0.015,
3565,-0.39,-0.015,
3566,-0.415,-0.08,
3567,-0.435,-0.165,
3568,-0.43,-0.255,
3569,-0.385,-0.34,
3570,-0.36,-0.475,
3571,-0.365,-0.685,
3572,-0.375,-0.93,
3573,-0.385,-1.19,
3574,-0.42,-1.39,
3575,-0.505,-1.47,
3576,-0.57,-1.49,
3577,-0.62,-1.455,
3578,-0.62,-1.42,
3579,-0.635,-1.38,
3580,-0.635,-1.335,
3581,-0.645,-1.27,
3582,-0.68,-1.24,
3583,-0.725,-1.22,
3584,-0.765,-1.19,
3585,-0.785,-1.165,
3586,-0.82,-1.12,
3587,-0.825,-1.05,
3588,-0.86,-1.0,
3589,-0.895,-0.955,
3590,-0.93,-0.915,
3591,-0.96,-0.865,
3592,-0.98,-0.82,
3593,-0.985,-0.77,N
3594,-0.985,-0.725,
3595,-0.94,-0.63,
3596,-0.895,-0.53,
3597,-0.88,-0.425,
3598,-0.85,-0.355,
3599,-0.78,-0.28,
3600,-0.69,-0.22,
3601,-0.625,-0.15,
3602,-0.6,-0.1,
3603,-0.575,-0.03,
3604,-0.54,0.025,
3605,-0.485,0.095,
3606,-0.435,0.13,
3607,-0.37,0.18,
3608,-0.335,0.195,
3609,-0.335,0.2,
3610,-0.32,0.23,
3611,-0.305,0.255,
3612,-0.305,0.25,
3613,-0.305,0.265,
3614,-0.32,0.26,
3615,-0.33,0.275,
3616,-0.34,0.285,
3617,-0.315,0.29,
3618,-0.29,0.3,
3619,-0.275,0.31,
3620,-0.28,0.3,
3621,-0.295,0.32,
3622,-0.295,0.32,
3623,-0.285,0.315,
3624,-0.27,0.325,
3625,-0.265,0.325,
3626,-0.26,0.33,
3627,-0.275,0.34,
3628,-0.265,0.34,
3629,-0.27,0.355,
3630,-0.275,0.335,
3631,-0.275,0.34,
3632,-0.27,0.355,
3633,-0.27,0.345,
3634,-0.26,0.365,
3635,-0.265,0.375,
3636,-0.255,0.37,
3637,-0.25,0.375,
3638,-0.265,0.37,
3639,-0.27,0.35,
3640,-0.26,0.385,
3641,-0.245,0.39,
3642,-0.255,0.38,
3643,-0.26,0.38,
3644,-0.25,0.375,
3645,-0.25,0.375,
3646,-0.225,0.39,
3647,-0.215,0.405,
3648,-0.215,0.41,
3649,-0.22,0.41,
3650,-0.225,0.395,
3651,-0.22,0.405,
3652,-0.195,0.415,
3653,-0.21,0.41,
3654,-0.21,0.39,
3655,-0.21,0.38,
3656,-0.205,0.375,
3657,-0.21,0.4,
3658,-0.205,0.39,
3659,-0.185,0.415,
3660,-0.18,0.4,
3661,-0.17,0.39,
3662,-0.175,0.375,
3663,-0.18,0.38,
3664,-0.175,0.39,
3665,-0.16,0.395,
3666,-0.155,0.39,
3667,-0.155,0.39,
3668,-0.16,0.37,
3669,-0.155,0.375,
3670,-0.155,0.38,
3671,-0.15,0.39,
3672,-0.145,0.37,
3673,-0.145,0.355,
3674,-0.155,0.345,
3675,-0.165,0.32,
3676,-0.17,0.335,
3677,-0.14,0.33,
3678,-0.13,0.32,
3679,-0.135,0.31,
3680,-0.15,0.295,
3681,-0.165,0.285,
3682,-0.155,0.285,
3683,-0.16,0.275,
3684,-0.17,0.255,
3685,-0.175,0.24,
3686,-0.185,0.215,
3687,-0.2,0.21,
3688,-0.19,0.21,
3689,-0.2,0.205,
3690,-0.2,0.195,
3691,-0.205,0.175,
3692,-0.21,0.16,
3693,-0.225,0.135,
3694,-0.225,0.14,
3695,-0.225,0.135,
3696,-0.215,0.135,
3697,-0.23,0.115,
3698,-0.235,0.095,
3699,-0.25,0.1,
3700,-0.25,0.09,
3701,-0.245,0.11,
3702,-0.245,0.085,
3703,-0.255,0.095,
3704,-0.265,0.085,
3705,-0.28,0.08,
3706,-0.27,0.085,
3707,-0.265,0.085,
3708,-0.25,0.09,
3709,-0.25,0.075,
3710,-0.265,0.065,
3711,-0.28,0.065,
3712,-0.275,0.08,
3713,-0.265,0.1,
3714,-0.26,0.1,
3715,-0.275,0.09,
3716,-0.285,0.07,
3717,-0.29,0.075,
3718,-0.28,0.095,
3719,-0.26,0.1,
3720,-0.255,0.1,
3721,-0.265,0.095,
3722,-0.265,0.085,
3723,-0.27,0.1,
3724,-0.28,0.115,
3725,-0.27,0.12,
3726,-0.255,0.125,
3727,-0.265,0.12,
3728,-0.28,0.12,
3729,-0.285,0.115,
3730,-0.29,0.12,
3731,-0.285,0.13,
3732,-0.275,0.13,
3733,-0.275,0.11,
3734,-0.275,0.115,
3735,-0.28,0.115,
3736,-0.27,0.135,
3737,-0.27,0.14,
3738,-0.27,0.14,
3739,-0.275,0.12,
3740,-0.3,0.14,
3741,-0.29,0.15,
3742,-0.295,0.165,
3743,-0.28,0.18,
3744,-0.28,0.165,
3745,-0.3,0.15,
3746,-0.32,0.135,
3747,-0.32,0.135,
3748,-0.31,0.145,
3749,-0.295,0.15,
3750,-0.3,0.13,
3751,-0.31,0.135,
3752,-0.305,0.125,
3753,-0.32,0.125,
3754,-0.32,0.145,
3755,-0.33,0.145,
3756,-0.325,0.135,
3757,-0.325,0.12,
3758,-0.32,0.13,
3759,-0.345,0.135,
3760,-0.325,0.135,
3761,-0.315,0.135,
3762,-0.31,0.135,
3763,-0.315,0.125,
3764,-0.34,0.115,
3765,-0.335,0.11,
3766,-0.335,0.115,
3767,-0.325,0.125,
3768,-0.325,0.12,
3769,-0.34,0.1,
3770,-0.34,0.1,
3771,-0.35,0.085,
3772,-0.35,0.09,
3773,-0.33,0.115,
3774,-0.32,0.1,
3775,-0.305,0.095,
3776,-0.33,0.085,
3777,-0.34,0.085,
3778,-0.32,0.1,
3779,-0.305,0.115,
3780,-0.3,0.12,
3781,-0.31,0.1,
3782,-0.325,0.11,
3783,-0.325,0.08,
3784,-0.33,0.08,
3785,-0.31,0.09,
3786,-0.295,0.09,
3787,-0.305,0.09,
3788,-0.32,0.08,
3789,-0.345,0.075,
3790,-0.31,0.08,
3791,-0.315,0.095,
3792,-0.315,0.085,
3793,-0.31,0.09,
3794,-0.305,0.08,
3795,-0.315,0.075,
3796,-0.31,0.1,
3797,-0.3,0.105,
3798,-0.295,0.095,
3799,-0.305,0.09,
3800,-0.3,0.08,
3801,-0.32,0.08,
3802,-0.315,0.095,
3803,-0.31,0.095,
3804,-0.295,0.095,
3805,-0.3,0.08,
3806,-0.32,0.07,
3807,-0.32,0.055,
3808,-0.325,0.08,
3809,-0.305,0.095,
3810,-0.29,0.09,
3811,-0.28,0.075,
3812,-0.295,0.06,
3813,-0.31,0.065,
3814,-0.305,0.065,
3815,-0.285,0.085,
3816,-0.28,0.08,
3817,-0.28,0.08,
3818,-0.295,0.075,
3819,-0.31,0.06,
3820,-0.285,0.075,
3821,-0.285,0.09,
3822,-0.265,0.08,
3823,-0.275,0.075,
3824,-0.28,0.065,
3825,-0.285,0.065,
3826,-0.285,0.07,
3827,-0.27,0.09,
3828,-0.26,0.085,
3829,-0.265,0.075,
3830,-0.26,0.08,
3831,-0.255,0.08,
3832,-0.255,0.1,
3833,-0.215,0.12,
3834,-0.21,0.13,
3835,-0.215,0.135,
3836,-0.22,0.13,
3837,-0.22,0.135,
3838,-0.205,0.17,
3839,-0.19,0.175,
3840,-0.17,0.175,
3841,-0.14,0.17,
3842,-0.13,0.165,
3843,-0.12,0.145,
3844,-0.1,0.13,
3845,-0.08,0.13,
3846,-0.065,0.12,
3847,-0.06,0.11,
3848,-0.06,0.1,
3849,-0.07,0.09,
3850,-0.06,0.1,
3851,-0.035,0.115,
3852,-0.01,0.11,
3853,-0.035,0.105,
3854,-0.035,0.105,
3855,-0.065,0.1,
3856,-0.11,0.09,
3857,-0.14,0.1,
3858,-0.18,0.09,
3859,-0.2,0.085,
3860,-0.255,0.08,
3861,-0.3,0.065,
3862,-0.315,0.05,
3863,-0.315,0.055,
3864,-0.3,0.045,
3865,-0.305,0.035,
3866,-0.315,0.025,
3867,-0.31,0.035,
3868,-0.305,0.04,
3869,-0.29,0.06,
3870,-0.3,0.05,
3871,-0.315,0.045,
3872,-0.32,0.02,
3873,-0.32,0.025,
3874,-0.32,0.04,
3875,-0.305,0.055,
3876,-0.315,0.045,
3877,-0.32,0.035,
3878,-0.32,0.035,
3879,-0.315,0.02,
3880,-0.305,0.04,
3881,-0.29,0.035,
3882,-0.28,0.04,
3883,-0.3,0.025,
3884,-0.32,0.015,
3885,-0.31,0.03,
3886,-0.295,0.02,
3887,-0.295,0.04,
3888,-0.29,0.03,
3889,-0.3,0.015,
3890,-0.31,0.005,
3891,-0.32,0.015,
3892,-0.305,0.02,
3893,-0.295,0.035,
3894,-0.295,0.025,
3895,-0.31,0.025,
3896,-0.31,0.03,
3897,-0.32,0.045,
3898,-0.295,0.045,
3899,-0.285,0.025,
3900,-0.295,-0.06,
3901,-0.32,-0.16,
3902,-0.33,-0.265,
3903,-0.315,-0.425,
3904,-0.28,-0.58,
3905,-0.27,-0.775,
3906,-0.255,-1.07,
3907,-0.27,-1.365,
3908,-0.35,-1.555,
3909,-0.43,-1.595,
3910,-0.495,-1.545,
3911,-0.51,-1.47,
3912,-0.515,-1.415,
3913,-0.515,-1.375,
3914,-0.53,-1.335,
3915,-0.58,-1.28,
3916,-0.62,-1.225,
3917,-0.655,-1.19,
3918,-0.675,-1.165,
3919,-0.72,-1.15,
3920,-0.765,-1.12,
3921,-0.83,-1.045,
3922,-0.85,-0.96,
3923,-0.88,-0.89,
3924,-0.875,-0.845,N
3925,-0.885,-0.79,
3926,-0.865,-0.71,
3927,-0.84,-0.6,
3928,-0.785,-0.485,
3929,-0.76,-0.395,
3930,-0.705,-0.31,
3931,-0.63,-0.23,
3932,-0.535,-0.16,
3933,-0.5,-0.09,
3934,-0.445,0.01,
3935,-0.4,0.075,
3936,-0.35,0.13,
3937,-0.3,0.185,
3938,-0.255,0.215,
3939,-0.255,0.24,
3940,-0.225,0.27,
3941,-0.215,0.305,
3942,-0.215,0.295,
3943,-0.205,0.295,
3944,-0.22,0.305,
3945,-0.23,0.305,
3946,-0.21,0.33,
3947,-0.2,0.35,
3948,-0.18,0.36,
3949,-0.18,0.355,
3950,-0.2,0.365,
3951,-0.205,0.365,
3952,-0.195,0.375,
3953,-0.19,0.38,
3954,-0.175,0.37,
3955,-0.175,0.39,
3956,-0.17,0.4,
3957,-0.18,0.405,
3958,-0.17,0.42,
3959,-0.16,0.41,
3960,-0.17,0.4,
3961,-0.165,0.405,
3962,-0.165,0.395,
3963,-0.18,0.405,
3964,-0.18,0.42,
3965,-0.185,0.425,
3966,-0.16,0.43,
3967,-0.16,0.425,
3968,-0.155,0.42,
3969,-0.17,0.44,
3970,-0.165,0.45,
3971,-0.16,0.46,
3972,-0.14,0.455,
3973,-0.14,0.455,
3974,-0.14,0.45,
3975,-0.145,0.455,
3976,-0.125,0.465,
3977,-0.11,0.48,
3978,-0.115,0.46,
3979,-0.105,0.45,
3980,-0.125,0.45,
3981,-0.125,0.45,
3982,-0.115,0.46,
3983,-0.095,0.475,
3984,-0.08,0.48,
3985,-0.085,0.465,
3986,-0.095,0.45,
3987,-0.085,0.46,
3988,-0.075,0.47,
3989,-0.055,0.475,
3990,-0.05,0.47,
3991,-0.05,0.46,
3992,-0.07,0.445,
3993,-0.075,0.455,
3994,-0.045,0.45,
3995,-0.04,0.455,
3996,-0.045,0.44,
3997,-0.05,0.43,
3998,-0.045,0.415,
3999,-0.035,0.41,
4000,-0.03,0.415,
4001,-0.01,0.415,
4002,-0.01,0.41,
4003,-0.015,0.4,
4004,-0.03,0.37,
4005,-0.055,0.36,
4006,-0.055,0.36,
4007,-0.04,0.36,
4008,-0.035,0.345,
4009,-0.05,0.33,
4010,-0.06,0.305,
4011,-0.085,0.3,
4012,-0.085,0.28,
4013,-0.065,0.26,
4014,-0.075,0.255,
4015,-0.08,0.245,
4016,-0.095,0.23,
4017,-0.115,0.22,
4018,-0.13,0.21,
4019,-0.13,0.205,
4020,-0.13,0.19,
4021,-0.15,0.165,
4022,-0.155,0.155,
4023,-0.195,0.16,
4024,-0.17,0.165,
4025,-0.165,0.165,
4026,-0.155,0.17,
4027,-0.16,0.135,
4028,-0.175,0.115,
4029,-0.18,0.12,
4030,-0.18,0.13,
4031,-0.185,0.13,
4032,-0.18,0.125,
4033,-0.19,0.12,
4034,-0.19,0.12,
4035,-0.17,0.125,
4036,-0.19,0.135,
4037,-0.19,0.14,
4038,-0.19,0.14,
4039,-0.19,0.13,
4040,-0.205,0.125,
4041,-0.205,0.135,
4042,-0.205,0.135,
4043,-0.195,0.16,
4044,-0.185,0.16,
4045,-0.18,0.165,
4046,-0.19,0.145,
4047,-0.21,0.15,
4048,-0.215,0.145,
4049,-0.2,0.16,
4050,-0.195,0.165,
4051,-0.21,0.17,
4052,-0.21,0.16,
4053,-0.24,0.155,
4054,-0.22,0.16,
4055,-0.21,0.175,
4056,-0.215,0.18,
4057,-0.21,0.17,
4058,-0.225,0.175,
4059,-0.25,0.165,
4060,-0.23,0.185,
4061,-0.225,0.21,
4062,-0.22,0.215,
4063,-0.225,0.21,
4064,-0.23,0.185,
4065,-0.25,0.175,
4066,-0.245,0.175,
4067,-0.24,0.195,
4068,-0.24,0.185,
4069,-0.245,0.195,
4070,-0.25,0.18,
4071,-0.25,0.175,
4072,-0.235,0.175,
4073,-0.22,0.185,
4074,-0.245,0.195,
4075,-0.27,0.185,
4076,-0.27,0.19,
4077,-0.265,0.185,
4078,-0.255,0.175,
4079,-0.245,0.195,
4080,-0.25,0.19,
4081,-0.27,0.185,
4082,-0.305,0.17,
4083,-0.355,0.165,
4084,-0.39,0.155,
4085,-0.415,0.125,
4086,-0.425,0.08,
4087,-0.45,0.04,
4088,-0.46,-0.005,
4089,-0.455,-0.035,
4090,-0.425,-0.065,
4091,-0.39,-0.08,
4092,-0.355,-0.085,
4093,-0.29,-0.115,
4094,-0.225,-0.13,
4095,-0.185,-0.12,
4096,-0.125,-0.1,
4097,-0.065,-0.065,
4098,-0.01,-0.04,
4099,0.035,-0.01,
4100,0.065,0.035,
4101,0.13,0.08,
4102,0.22,0.145,
4103,0.255,0.165,
4104,0.19,0.195,
4105,0.13,0.22,V
4106,0.145,0.265,
4107,0.21,0.34,
4108,0.245,0.45,
4109,0.205,0.54,
4110,0.12,0.62,
4111,0.035,0.68,
4112,-0.03,0.71,
4113,-0.145,0.745,
4114,-0.31,0.815,
4115,-0.48,0.845,
4116,-0.58,0.85,
4117,-0.59,0.815,
4118,-0.525,0.745,
4119,-0.42,0.665,
4120,-0.325,0.625,
4121,-0.285,0.555,
4122,-0.29,0.485,
4123,-0.295,0.395,
4124,-0.315,0.285,
4125,-0.335,0.18,
4126,-0.345,0.155,
4127,-0.325,0.15,
4128,-0.32,0.145,
4129,-0.315,0.12,
4130,-0.33,0.1,
4131,-0.345,0.095,
4132,-0.325,0.095,
4133,-0.33,0.115,
4134,-0.33,0.09,
4135,-0.345,0.08,
4136,-0.335,0.06,
4137,-0.345,0.045,
4138,-0.34,0.05,
4139,-0.33,0.07,
4140,-0.325,0.065,
4141,-0.325,0.045,
4142,-0.345,0.04,
4143,-0.36,0.025,
4144,-0.35,0.025,
4145,-0.34,0.035,
4146,-0.34,0.03,
4147,-0.345,0.01,
4148,-0.365,-0.005,
4149,-0.365,-0.01,
4150,-0.38,0.0,
4151,-0.365,0.0,
4152,-0.355,-0.01,
4153,-0.36,-0.015,
4154,-0.37,-0.02,
4155,-0.365,-0.02,
4156,-0.37,-0.02,
4157,-0.345,-0.02,
4158,-0.36,-0.035,
4159,-0.36,-0.045,
4160,-0.36,-0.055,
4161,-0.35,-0.04,
4162,-0.35,-0.03,
4163,-0.335,-0.045,
4164,-0.315,-0.04,
4165,-0.3,-0.03,
4166,-0.305,-0.04,
4167,-0.315,-0.05,
4168,-0.305,-0.04,
4169,-0.285,-0.03,
4170,-0.28,-0.03,
4171,-0.275,-0.04,
4172,-0.275,-0.06,
4173,-0.24,-0.045,
4174,-0.215,-0.045,
4175,-0.185,-0.065,
4176,-0.19,-0.085,
4177,-0.185,-0.11,
4178,-0.18,-0.13,
4179,-0.17,-0.145,
4180,-0.17,-0.165,
4181,-0.175,-0.17,
4182,-0.165,-0.195,
4183,-0.16,-0.22,
4184,-0.155,-0.24,
4185,-0.135,-0.23,
4186,-0.12,-0.235,
4187,-0.12,-0.225,
4188,-0.16,-0.25,
4189,-0.21,-0.27,
4190,-0.26,-0.3,
4191,-0.3,-0.31,
4192,-0.31,-0.295,
4193,-0.345,-0.305,
4194,-0.375,-0.315,
4195,-0.42,-0.34,
4196,-0.445,-0.35,
4197,-0.455,-0.355,x
4198,-0.425,-0.345,
4199,-0.42,-0.33,
4200,-0.405,-0.345,
4201,-0.415,-0.33,
4202,-0.42,-0.35,
4203,-0.42,-0.33,
4204,-0.425,-0.33,
4205,-0.41,-0.335,
4206,-0.395,-0.305,
4207,-0.395,-0.3,
4208,-0.4,-0.305,
4209,-0.405,-0.27,
4210,-0.395,-0.26,
4211,-0.385,-0.24,
4212,-0.38,-0.225,
4213,-0.38,-0.215,
4214,-0.375,-0.205,
4215,-0.365,-0.165,
4216,-0.365,-0.135,
4217,-0.34,-0.105,
4218,-0.335,-0.095,
4219,-0.335,-0.08,
4220,-0.345,-0.07,
4221,-0.35,-0.05,
4222,-0.345,-0.03,
4223,-0.335,-0.015,
4224,-0.315,0.005,
4225,-0.325,0.0,
4226,-0.32,0.01,
4227,-0.315,0.04,
4228,-0.32,0.06,
4229,-0.325,0.07,
4230,-0.325,0.09,
4231,-0.31,0.1,
4232,-0.305,0.09,
4233,-0.32,0.1,
4234,-0.315,0.11,
4235,-0.315,0.12,
4236,-0.315,0.13,
4237,-0.315,0.135,
4238,-0.315,0.135,
4239,-0.33,0.145,
4240,-0.325,0.145,
4241,-0.325,0.13,
4242,-0.315,0.14,
4243,-0.32,0.115,
4244,-0.335,0.125,
4245,-0.335,0.125,
4246,-0.32,0.155,
4247,-0.305,0.15,
4248,-0.3,0.165,
4249,-0.295,0.14,
4250,-0.31,0.145,
4251,-0.32,0.16,
4252,-0.31,0.155,
4253,-0.305,0.17,
4254,-0.31,0.175,
4255,-0.31,0.17,
4256,-0.315,0.16,
4257,-0.315,0.15,
4258,-0.305,0.165,
4259,-0.285,0.16,
4260,-0.275,0.17,
4261,-0.28,0.165,
4262,-0.295,0.15,
4263,-0.295,0.15,
4264,-0.3,0.165,
4265,-0.28,0.175,
4266,-0.275,0.18,
4267,-0.28,0.175,
4268,-0.295,0.145,
4269,-0.29,0.165,
4270,-0.285,0.17,
4271,-0.28,0.18,
4272,-0.285,0.18,
4273,-0.265,0.18,
4274,-0.25,0.175,
4275,-0.27,0.165,
4276,-0.28,0.17,
4277,-0.265,0.175,
4278,-0.245,0.18,
4279,-0.265,0.165,
4280,-0.27,0.14,
4281,-0.265,0.145,
4282,-0.255,0.145,
4283,-0.235,0.16,
4284,-0.225,0.165,
4285,-0.245,0.165,
4286,-0.255,0.16,
4287,-0.26,0.155,
4288,-0.245,0.15,
4289,-0.24,0.175,
4290,-0.225,0.17,
4291,-0.24,0.17,
4292,-0.23,0.16,
4293,-0.23,0.165,
4294,-0.225,0.185,
4295,-0.23,0.18,
4296,-0.25,0.165,
4297,-0.265,0.175,
4298,-0.26,0.155,
4299,-0.255,0.165,
4300,-0.235,0.175,
4301,-0.215,0.165,
4302,-0.21,0.165,
4303,-0.225,0.16,
4304,-0.24,0.155,
4305,-0.26,0.155,
4306,-0.24,0.16,
4307,-0.24,0.16,
4308,-0.235,0.17,
4309,-0.23,0.155,
4310,-0.22,0.15,
4311,-0.22,0.15,
4312,-0.23,0.145,
4313,-0.235,0.155,
4314,-0.23,0.17,
4315,-0.23,0.17,
4316,-0.24,0.16,
4317,-0.25,0.16,
4318,-0.245,0.16,
4319,-0.23,0.175,
4320,-0.23,0.165,
4321,-0.23,0.155,
4322,-0.235,0.13,
4323,-0.255,0.14,
4324,-0.225,0.145,
4325,-0.23,0.15,
4326,-0.21,0.155,
4327,-0.205,0.15,
4328,-0.21,0.14,
4329,-0.22,0.14,
4330,-0.22,0.155,
4331,-0.195,0.15,
4332,-0.19,0.165,
4333,-0.2,0.155,
4334,-0.2,0.155,
4335,-0.205,0.155,
4336,-0.205,0.15,
4337,-0.205,0.155,
4338,-0.19,0.145,
4339,-0.195,0.135,
4340,-0.19,0.14,
4341,-0.2,0.14,
4342,-0.215,0.155,
4343,-0.21,0.15,
4344,-0.195,0.16,
4345,-0.195,0.16,
4346,-0.2,0.15,
4347,-0.205,0.145,
4348,-0.2,0.165,
4349,-0.19,0.17,
4350,-0.185,0.16,
4351,-0.19,0.15,
4352,-0.185,0.15,
4353,-0.195,0.16,
4354,-0.2,0.175,
4355,-0.205,0.18,
4356,-0.195,0.175,
4357,-0.19,0.175,
4358,-0.18,0.155,
4359,-0.205,0.165,
4360,-0.2,0.18,
4361,-0.2,0.185,
4362,-0.195,0.17,
4363,-0.2,0.15,
4364,-0.205,0.145,
4365,-0.22,0.15,
4366,-0.215,0.155,
4367,-0.195,0.17,
4368,-0.18,0.17,
4369,-0.155,0.165,
4370,-0.155,0.165,
4371,-0.175,0.16,
4372,-0.185,0.16,
4373,-0.18,0.165,
4374,-0.165,0.175,
4375,-0.18,0.165,
4376,-0.2,0.16,
4377,-0.2,0.15,
4378,-0.195,0.17,
4379,-0.19,0.175,
4380,-0.19,0.17,
4381,-0.185,0.165,
4382,-0.18,0.155,
4383,-0.19,0.165,
4384,-0.19,0.17,
4385,-0.195,0.17,
4386,-0.195,0.165,
4387,-0.195,0.16,
4388,-0.195,0.15,
4389,-0.195,0.17,
4390,-0.175,0.165,
4391,-0.17,0.19,
4392,-0.175,0.175,
4393,-0.19,0.145,
4394,-0.19,0.155,
4395,-0.195,0.165,
4396,-0.19,0.18,
4397,-0.19,0.18,
4398,-0.18,0.175,
4399,-0.185,0.17,
4400,-0.195,0.165,
4401,-0.195,0.16,
4402,-0.185,0.175,
4403,-0.18,0.18,
4404,-0.18,0.18,
4405,-0.17,0.165,
4406,-0.185,0.16,
4407,-0.185,0.155,
4408,-0.175,0.165,
4409,-0.17,0.18,
4410,-0.16,0.18,
4411,-0.185,0.18,
4412,-0.18,0.155,
4413,-0.21,0.17,
4414,-0.205,0.165,
4415,-0.18,0.18,
4416,-0.185,0.18,
4417,-0.18,0.175,
4418,-0.19,0.17,
4419,-0.185,0.175,
4420,-0.18,0.175,
4421,-0.17,0.18,
4422,-0.175,0.18,
4423,-0.175,0.17,
4424,-0.18,0.15,
4425,-0.18,0.165,
4426,-0.175,0.165,
4427,-0.18,0.15,
4428,-0.205,0.155,
4429,-0.18,0.14,
4430,-0.2,0.135,
4431,-0.195,0.14,
4432,-0.185,0.16,
4433,-0.18,0.16,
4434,-0.17,0.15,
4435,-0.17,0.15,
4436,-0.18,0.135,
4437,-0.18,0.15,
4438,-0.165,0.16,
4439,-0.16,0.165,
4440,-0.175,0.16,
4441,-0.19,0.145,
4442,-0.19,0.13,
4443,-0.19,0.135,
4444,-0.19,0.145,
4445,-0.175,0.145,
4446,-0.17,0.135,
4447,-0.175,0.14,
4448,-0.185,0.135,
4449,-0.2,0.145,
4450,-0.19,0.145,
4451,-0.17,0.13,
4452,-0.17,0.145,
4453,-0.16,0.135,
4454,-0.17,0.135,
4455,-0.195,0.135,
4456,-0.185,0.145,
4457,-0.175,0.155,
4458,-0.175,0.17,
4459,-0.17,0.14,
4460,-0.17,0.15,
4461,-0.195,0.145,
4462,-0.205,0.15,
4463,-0.19,0.14,
4464,-0.175,0.125,
4465,-0.19,0.13,
4466,-0.19,0.115,
4467,-0.19,0.125,
4468,-0.185,0.13,
4469,-0.185,0.135,
4470,-0.16,0.13,
4471,-0.175,0.125,
4472,-0.185,0.13,
4473,-0.185,0.135,
4474,-0.175,0.145,
4475,-0.17,0.15,
4476,-0.16,0.145,
4477,-0.165,0.145,
4478,-0.17,0.115,
4479,-0.18,0.12,
4480,-0.18,0.155,
4481,-0.185,0.14,
4482,-0.165,0.14,
4483,-0.175,0.125,
4484,-0.19,0.105,
4485,-0.18,0.12,
4486,-0.185,0.12,
4487,-0.17,0.135,
4488,-0.17,0.135,
4489,-0.17,0.125,
4490,-0.17,0.125,
4491,-0.175,0.125,
4492,-0.16,0.15,
4493,-0.165,0.145,
4494,-0.17,0.125,
4495,-0.185,0.105,
4496,-0.195,0.105,
4497,-0.185,0.115,
4498,-0.185,0.14,
4499,-0.175,0.135,
4500,-0.175,0.115,
4501,-0.165,0.12,
4502,-0.185,0.11,
4503,-0.175,0.11,
4504,-0.165,0.125,
4505,-0.17,0.13,
4506,-0.155,0.13,
4507,-0.175,0.13,
4508,-0.19,0.1,
4509,-0.195,0.105,
4510,-0.17,0.11,
4511,-0.14,0.14,
4512,-0.105,0.15,
4513,-0.115,0.155,
4514,-0.12,0.14,
4515,-0.11,0.155,
4516,-0.1,0.18,
4517,-0.085,0.205,
4518,-0.075,0.215,
4519,-0.065,0.21,
4520,-0.05,0.205,
4521,-0.04,0.2,
4522,-0.02,0.195,
4523,0.01,0.19,
4524,0.02,0.185,
4525,0.025,0.155,
4526,0.025,0.115,
4527,0.025,0.115,
4528,0.035,0.11,
4529,0.045,0.13,
4530,0.065,0.13,
4531,0.065,0.12,
4532,0.07,0.125,
4533,0.065,0.14,
4534,0.075,0.155,
4535,0.04,0.145,
4536,-0.005,0.145,
4537,-0.055,0.13,
4538,-0.115,0.115,
4539,-0.145,0.115,
4540,-0.18,0.13,
4541,-0.205,0.105,
4542,-0.215,0.09,
4543,-0.225,0.075,
4544,-0.23,0.065,
4545,-0.22,0.055,
4546,-0.215,0.065,
4547,-0.205,0.065,
4548,-0.205,0.055,
4549,-0.225,0.045,
4550,-0.225,0.045,
4551,-0.24,0.04,
4552,-0.23,0.04,
4553,-0.22,0.06,
4554,-0.205,0.06,
4555,-0.215,0.07,
4556,-0.235,0.06,
4557,-0.245,0.05,
4558,-0.24,0.035,
4559,-0.215,0.035,
4560,-0.22,0.025,
4561,-0.23,0.02,
4562,-0.245,0.02,
4563,-0.24,0.03,
4564,-0.23,0.035,
4565,-0.21,0.04,
4566,-0.215,0.035,
4567,-0.22,0.03,
4568,-0.225,0.005,
4569,-0.235,0.015,
4570,-0.225,0.03,
4571,-0.225,0.05,
4572,-0.205,0.06,
4573,-0.21,0.045,
4574,-0.215,0.015,
4575,-0.235,-0.025,
4576,-0.24,-0.085,
4577,-0.225,-0.16,
4578,-0.2,-0.27,
4579,-0.18,-0.39,
4580,-0.175,-0.575,
4581,-0.19,-0.805,
4582,-0.175,-1.08,
4583,-0.19,-1.315,
4584,-0.265,-1.465,
4585,-0.355,-1.485,
4586,-0.41,-1.465,
4587,-0.42,-1.4,
4588,-0.42,-1.35,
4589,-0.43,-1.295,
4590,-0.445,-1.245,
4591,-0.48,-1.215,
4592,-0.54,-1.2,
4593,-0.57,-1.18,
4594,-0.59,-1.145,
4595,-0.63,-1.09,
4596,-0.66,-1.04,
4597,-0.685,-1.005,
4598,-0.71,-0.965,
4599,-0.745,-0.925,
4600,-0.755,-0.855,
4601,-0.765,-0.815,
4602,-0.78,-0.76,N
4603,-0.785,-0.715,
4604,-0.76,-0.665,
4605,-0.74,-0.565,
4606,-0.725,-0.465,
4607,-0.725,-0.385,
4608,-0.685,-0.325,
4609,-0.595,-0.25,
4610,-0.495,-0.195,
4611,-0.43,-0.115,
4612,-0.385,-0.05,
4613,-0.36,0.025,
4614,-0.35,0.07,
4615,-0.305,0.11,
4616,-0.265,0.165,
4617,-0.215,0.215,
4618,-0.19,0.255,
4619,-0.175,0.285,
4620,-0.155,0.3,
4621,-0.125,0.305,
4622,-0.145,0.31,
4623,-0.165,0.32,
4624,-0.165,0.335,
4625,-0.155,0.35,
4626,-0.14,0.35,
4627,-0.13,0.345,
4628,-0.125,0.345,
4629,-0.135,0.365,
4630,-0.135,0.37,
4631,-0.125,0.395,
4632,-0.125,0.385,
4633,-0.13,0.4,
4634,-0.125,0.39,
4635,-0.13,0.405,
4636,-0.125,0.405,
4637,-0.12,0.41,
4638,-0.12,0.42,
4639,-0.135,0.395,
4640,-0.13,0.405,
4641,-0.145,0.415,
4642,-0.135,0.425,
4643,-0.13,0.42,
4644,-0.13,0.42,
4645,-0.125,0.415,
4646,-0.13,0.41,
4647,-0.145,0.42,
4648,-0.14,0.425,
4649,-0.125,0.43,
4650,-0.115,0.425,
4651,-0.125,0.415,
4652,-0.145,0.41,
4653,-0.14,0.405,
4654,-0.13,0.44,
4655,-0.13,0.445,
4656,-0.13,0.43,
4657,-0.125,0.42,
4658,-0.125,0.42,
4659,-0.115,0.435,
4660,-0.1,0.445,
4661,-0.08,0.455,
4662,-0.07,0.445,
4663,-0.07,0.415,
4664,-0.075,0.4,
4665,-0.085,0.43,
4666,-0.095,0.425,
4667,-0.08,0.44,
4668,-0.06,0.44,
4669,-0.06,0.425,
4670,-0.07,0.425,
4671,-0.075,0.42,
4672,-0.08,0.44,
4673,-0.09,0.43,
4674,-0.085,0.425,
4675,-0.07,0.405,
4676,-0.055,0.405,
4677,-0.045,0.41,
4678,-0.05,0.425,
4679,-0.05,0.425,
4680,-0.045,0.42,
4681,-0.045,0.415,
4682,-0.04,0.395,
4683,-0.04,0.405,
4684,-0.03,0.415,
4685,-0.02,0.415,
4686,-0.02,0.405,
4687,-0.04,0.395,
4688,-0.045,0.38,
4689,-0.055,0.38,
4690,-0.04,0.37,
4691,-0.025,0.385,
4692,-0.02,0.37,
4693,-0.02,0.375,
4694,-0.04,0.35,
4695,-0.045,0.355,
4696,-0.06,0.36,
4697,-0.045,0.345,
4698,-0.04,0.345,
4699,-0.055,0.32,
4700,-0.05,0.315,
4701,-0.055,0.32,
4702,-0.045,0.325,
4703,-0.03,0.31,
4704,-0.045,0.295,
4705,-0.055,0.295,
4706,-0.06,0.265,
4707,-0.07,0.265,
4708,-0.055,0.265,
4709,-0.055,0.255,
4710,-0.055,0.25,
4711,-0.06,0.215,
4712,-0.07,0.205,
4713,-0.065,0.205,
4714,-0.07,0.195,
4715,-0.07,0.205,
4716,-0.075,0.19,
4717,-0.09,0.17,
4718,-0.095,0.155,
4719,-0.11,0.165,
4720,-0.105,0.165,
4721,-0.085,0.18,
4722,-0.09,0.16,
4723,-0.1,0.14,
4724,-0.115,0.135,
4725,-0.13,0.12,
4726,-0.11,0.13,
4727,-0.125,0.135,
4728,-0.1,0.13,
4729,-0.11,0.115,
4730,-0.115,0.11,
4731,-0.115,0.115,
4732,-0.115,0.12,
4733,-0.105,0.125,
4734,-0.11,0.12,
4735,-0.12,0.115,
4736,-0.125,0.115,
4737,-0.14,0.135,
4738,-0.13,0.135,
4739,-0.115,0.145,
4740,-0.115,0.135,
4741,-0.12,0.14,
4742,-0.13,0.135,
4743,-0.12,0.155,
4744,-0.125,0.155,
4745,-0.115,0.16,
4746,-0.125,0.155,
4747,-0.13,0.155,
4748,-0.145,0.155,
4749,-0.15,0.16,
4750,-0.145,0.17,
4751,-0.135,0.195,
4752,-0.12,0.19,
4753,-0.12,0.18,
4754,-0.13,0.165,
4755,-0.14,0.18,
4756,-0.14,0.19,
4757,-0.12,0.21,
4758,-0.11,0.21,
4759,-0.13,0.21,
4760,-0.14,0.2,
4761,-0.145,0.205,
4762,-0.13,0.22,
4763,-0.12,0.235,
4764,-0.13,0.225,
4765,-0.15,0.225,
4766,-0.15,0.22,
4767,-0.155,0.22,
4768,-0.135,0.22,
4769,-0.135,0.235,
4770,-0.145,0.235,
4771,-0.155,0.215,
4772,-0.165,0.205,
4773,-0.165,0.225,
4774,-0.18,0.235,
4775,-0.17,0.235,
4776,-0.175,0.24,
4777,-0.185,0.225,
4778,-0.19,0.215,
4779,-0.205,0.225,
4780,-0.21,0.225,
4781,-0.22,0.24,
4782,-0.22,0.225,
4783,-0.225,0.22,
4784,-0.225,0.215,
4785,-0.215,0.21,
4786,-0.21,0.22,
4787,-0.21,0.225,
4788,-0.225,0.215,
4789,-0.235,0.21,
4790,-0.24,0.175,
4791,-0.255,0.185,
4792,-0.235,0.195,
4793,-0.22,0.2,
4794,-0.22,0.195,
4795,-0.215,0.18,
4796,-0.235,0.175,
4797,-0.26,0.17,
4798,-0.255,0.18,
4799,-0.24,0.175,
4800,-0.245,0.165,
4801,-0.245,0.165,
4802,-0.255,0.17,
4803,-0.24,0.17,
4804,-0.21,0.17,
4805,-0.21,0.17,
4806,-0.21,0.16,
4807,-0.21,0.16,
4808,-0.22,0.14,
4809,-0.23,0.155,
4810,-0.225,0.17,
4811,-0.215,0.16,
4812,-0.195,0.16,
4813,-0.185,0.15,
4814,-0.18,0.145,
4815,-0.18,0.15,
4816,-0.175,0.155,
4817,-0.175,0.16,
4818,-0.185,0.16,
4819,-0.195,0.14,
4820,-0.2,0.125,
4821,-0.2,0.135,
4822,-0.2,0.145,
4823,-0.19,0.16,
4824,-0.2,0.16,
4825,-0.195,0.145,
4826,-0.185,0.16,
4827,-0.185,0.155,
4828,-0.19,0.165,
4829,-0.18,0.145,
4830,-0.18,0.15,
4831,-0.18,0.13,
4832,-0.18,0.135,
4833,-0.17,0.14,
4834,-0.16,0.145,
4835,-0.165,0.15,
4836,-0.18,0.165,
4837,-0.175,0.14,
4838,-0.18,0.125,
4839,-0.19,0.13,
4840,-0.175,0.14,
4841,-0.165,0.14,
4842,-0.15,0.14,
4843,-0.165,0.125,
4844,-0.18,0.11,
4845,-0.19,0.12,
4846,-0.175,0.135,
4847,-0.17,0.15,
4848,-0.165,0.145,
4849,-0.175,0.115,
4850,-0.175,0.115,
4851,-0.18,0.105,
4852,-0.17,0.12,
4853,-0.165,0.12,
4854,-0.175,0.125,
4855,-0.17,0.115,
4856,-0.175,0.105,
4857,-0.185,0.1,
4858,-0.185,0.12,
4859,-0.18,0.115,
4860,-0.17,0.115,
4861,-0.16,0.115,
4862,-0.145,0.115,
4863,-0.145,0.11,
4864,-0.14,0.125,
4865,-0.14,0.13,
4866,-0.145,0.12,
4867,-0.155,0.11,
4868,-0.16,0.105,
4869,-0.155,0.115,
4870,-0.14,0.135,
4871,-0.105,0.13,
4872,-0.125,0.14,
4873,-0.11,0.14,
4874,-0.105,0.14,
4875,-0.105,0.16,
4876,-0.085,0.18,
4877,-0.08,0.2,
4878,-0.07,0.21,
4879,-0.065,0.2,
4880,-0.055,0.185,
4881,-0.05,0.195,
4882,-0.035,0.19,
4883,-0.015,0.18,
4884,0.01,0.175,
4885,0.055,0.155,
4886,0.055,0.145,
4887,0.055,0.14,
4888,0.06,0.135,
4889,0.055,0.13,
4890,0.045,0.115,
4891,0.055,0.11,
4892,0.045,0.105,
4893,0.04,0.13,
4894,0.035,0.13,
4895,0.035,0.135,
4896,0.05,0.135,
4897,0.02,0.12,
4898,-0.025,0.11,
4899,-0.065,0.115,
4900,-0.1,0.12,
4901,-0.14,0.125,
4902,-0.175,0.11,
4903,-0.22,0.095,
4904,-0.245,0.075,
4905,-0.23,0.07,
4906,-0.205,0.08,
4907,-0.18,0.09,
4908,-0.18,0.08,
4909,-0.195,0.07,
4910,-0.205,0.065,
4911,-0.21,0.07,
4912,-0.205,0.085,
4913,-0.195,0.08,
4914,-0.19,0.065,
4915,-0.205,0.065,
4916,-0.215,0.05,
4917,-0.215,0.06,
4918,-0.19,0.065,
4919,-0.195,0.085,
4920,-0.2,0.07,
4921,-0.205,0.055,
4922,-0.22,0.05,
4923,-0.215,0.065,
4924,-0.215,0.06,
4925,-0.21,0.075,
4926,-0.2,0.075,
4927,-0.22,0.065,
4928,-0.22,0.04,
4929,-0.22,0.055,
4930,-0.21,0.065,
4931,-0.215,0.07,
4932,-0.215,0.06,
4933,-0.21,0.04,
4934,-0.2,0.035,
4935,-0.185,0.035,
4936,-0.195,0.05,
4937,-0.195,0.06,
4938,-0.205,0.055,
4939,-0.205,0.055,
4940,-0.215,0.045,
4941,-0.2,0.04,
4942,-0.21,0.035,
4943,-0.23,-0.025,
4944,-0.25,-0.105,
4945,-0.25,-0.205,
4946,-0.225,-0.325,
4947,-0.195,-0.445,
4948,-0.165,-0.615,
4949,-0.16,-0.835,
4950,-0.175,-1.125,
4951,-0.21,-1.405,
4952,-0.29,-1.56,
4953,-0.375,-1.585,
4954,-0.405,-1.535,
4955,-0.43,-1.485,
4956,-0.425,-1.45,
4957,-0.425,-1.41,
4958,-0.44,-1.37,
4959,-0.475,-1.32,
4960,-0.51,-1.27,
4961,-0.55,-1.25,
4962,-0.57,-1.23,
4963,-0.62,-1.215,
4964,-0.64,-1.185,
4965,-0.68,-1.125,
4966,-0.685,-1.075,
4967,-0.71,-1.005,
4968,-0.75,-0.96,
4969,-0.79,-0.92,
4970,-0.825,-0.88,
4971,-0.835,-0.815,N
4972,-0.805,-0.74,
4973,-0.755,-0.645,
4974,-0.725,-0.54,
4975,-0.71,-0.455,
4976,-0.685,-0.38,
4977,-0.61,-0.295,
4978,-0.52,-0.215,
4979,-0.445,-0.12,
4980,-0.395,-0.06,
4981,-0.37,-0.005,
4982,-0.335,0.045,
4983,-0.3,0.1,
4984,-0.245,0.18,
4985,-0.195,0.225,
4986,-0.175,0.27,
4987,-0.155,0.265,
4988,-0.14,0.28,
4989,-0.145,0.295,
4990,-0.13,0.325,
4991,-0.125,0.335,
4992,-0.105,0.345,
4993,-0.115,0.345,
4994,-0.12,0.345,
4995,-0.13,0.35,
4996,-0.13,0.365,
4997,-0.12,0.375,
4998,-0.125,0.37,
4999,-0.12,0.365,
5000,-0.115,0.37,
5001,-0.11,0.375,
5002,-0.095,0.395,
5003,-0.08,0.4,
5004,-0.08,0.41,
5005,-0.09,0.39,
5006,-0.1,0.4,
5007,-0.11,0.41,
5008,-0.1,0.425,
5009,-0.075,0.425,
5010,-0.08,0.435,
5011,-0.09,0.42,
5012,-0.105,0.425,
5013,-0.105,0.435,
5014,-0.095,0.44,
5015,-0.09,0.44,
5016,-0.095,0.43,
5017,-0.095,0.425,
5018,-0.09,0.42,
5019,-0.095,0.425,
5020,-0.075,0.44,
5021,-0.07,0.45,
5022,-0.08,0.45,
5023,-0.09,0.43,
5024,-0.11,0.425,
5025,-0.11,0.44,
5026,-0.085,0.45,
5027,-0.055,0.45,
5028,-0.04,0.465,
5029,-0.05,0.46,
5030,-0.055,0.44,
5031,-0.055,0.46,
5032,-0.06,0.46,
5033,-0.04,0.48,
5034,-0.035,0.475,
5035,-0.03,0.465,
5036,-0.035,0.455,
5037,-0.04,0.465,
5038,-0.025,0.47,
5039,-0.005,0.47,
5040,0.0,0.465,
5041,-0.005,0.465,
5042,-0.02,0.455,
5043,-0.015,0.47,
5044,0.005,0.46,
5045,0.015,0.465,
5046,0.01,0.465,
5047,0.01,0.46,
5048,-0.005,0.445,
5049,-0.005,0.45,
5050,0.01,0.45,
5051,0.02,0.46,
5052,0.03,0.455,
5053,0.02,0.455,
5054,0.02,0.44,
5055,0.005,0.45,
5056,0.015,0.45,
5057,0.04,0.46,
5058,0.05,0.45,
5059,0.04,0.43,
5060,0.035,0.405,
5061,0.03,0.405,
5062,0.025,0.41,
5063,0.045,0.41,
5064,0.035,0.395,
5065,0.035,0.375,
5066,0.005,0.36,
5067,0.01,0.36,
5068,0.025,0.375,
5069,0.035,0.375,
5070,0.035,0.345,
5071,0.025,0.33,
5072,0.0,0.315,
5073,-0.01,0.31,
5074,-0.005,0.31,
5075,0.01,0.31,
5076,-0.005,0.3,
5077,-0.02,0.27,
5078,-0.03,0.25,
5079,-0.04,0.245,
5080,-0.04,0.235,
5081,-0.03,0.24,
5082,-0.045,0.22,
5083,-0.055,0.195,
5084,-0.07,0.165,
5085,-0.095,0.17,
5086,-0.085,0.185,
5087,-0.08,0.175,
5088,-0.1,0.17,
5089,-0.11,0.15,
5090,-0.11,0.14,
5091,-0.1,0.15,
5092,-0.095,0.165,
5093,-0.09,0.16,
5094,-0.1,0.155,
5095,-0.115,0.145,
5096,-0.125,0.135,
5097,-0.135,0.135,
5098,-0.135,0.165,
5099,-0.12,0.15,
5100,-0.125,0.16,
5101,-0.135,0.14,
5102,-0.13,0.135,
5103,-0.15,0.145,
5104,-0.15,0.14,
5105,-0.14,0.15,
5106,-0.14,0.155,
5107,-0.16,0.14,
5108,-0.155,0.145,
5109,-0.165,0.15,
5110,-0.14,0.16,
5111,-0.12,0.18,
5112,-0.135,0.165,
5113,-0.145,0.17,
5114,-0.155,0.165,
5115,-0.165,0.175,
5116,-0.155,0.18,
5117,-0.145,0.195,
5118,-0.145,0.185,
5119,-0.145,0.18,
5120,-0.17,0.185,
5121,-0.185,0.19,
5122,-0.165,0.2,
5123,-0.16,0.205,
5124,-0.16,0.2,
5125,-0.185,0.195,
5126,-0.185,0.19,
5127,-0.185,0.195,
5128,-0.17,0.215,
5129,-0.16,0.225,
5130,-0.17,0.22,
5131,-0.185,0.2,
5132,-0.19,0.195,
5133,-0.19,0.215,
5134,-0.185,0.225,
5135,-0.185,0.23,
5136,-0.2,0.22,
5137,-0.195,0.21,
5138,-0.195,0.205,
5139,-0.185,0.22,
5140,-0.19,0.225,
5141,-0.19,0.23,
5142,-0.2,0.22,
5143,-0.21,0.205,
5144,-0.21,0.205,
5145,-0.21,0.2,
5146,-0.215,0.2,
5147,-0.225,0.22,
5148,-0.235,0.21,
5149,-0.22,0.21,
5150,-0.235,0.195,
5151,-0.24,0.205,
5152,-0.23,0.205,
5153,-0.215,0.2,
5154,-0.23,0.21,
5155,-0.225,0.195,
5156,-0.225,0.195,
5157,-0.25,0.19,
5158,-0.24,0.2,
5159,-0.22,0.2,
5160,-0.22,0.185,
5161,-0.22,0.18,
5162,-0.235,0.17,
5163,-0.25,0.17,
5164,-0.235,0.175,
5165,-0.235,0.185,
5166,-0.225,0.175,
5167,-0.23,0.16,
5168,-0.25,0.15,
5169,-0.255,0.155,
5170,-0.235,0.165,
5171,-0.205,0.165,
5172,-0.205,0.175,
5173,-0.2,0.165,
5174,-0.205,0.15,
5175,-0.215,0.165,
5176,-0.215,0.18,
5177,-0.22,0.17,
5178,-0.21,0.175,
5179,-0.215,0.155,
5180,-0.23,0.145,
5181,-0.225,0.14,
5182,-0.21,0.145,
5183,-0.195,0.145,
5184,-0.205,0.14,
5185,-0.22,0.145,
5186,-0.23,0.135,
5187,-0.23,0.145,
5188,-0.205,0.155,
5189,-0.195,0.175,
5190,-0.205,0.16,
5191,-0.21,0.145,
5192,-0.215,0.15,
5193,-0.235,0.15,
5194,-0.225,0.165,
5195,-0.215,0.16,
5196,-0.2,0.165,
5197,-0.2,0.145,
5198,-0.195,0.14,
5199,-0.2,0.135,
5200,-0.185,0.15,
5201,-0.185,0.165,
5202,-0.18,0.155,
5203,-0.195,0.135,
5204,-0.205,0.13,
5205,-0.2,0.135,
5206,-0.195,0.155,
5207,-0.185,0.15,
5208,-0.185,0.135,
5209,-0.185,0.135,
5210,-0.205,0.125,
5211,-0.205,0.13,
5212,-0.195,0.145,
5213,-0.19,0.14,
5214,-0.19,0.145,
5215,-0.195,0.135,
5216,-0.2,0.135,
5217,-0.195,0.135,
5218,-0.2,0.155,
5219,-0.185,0.15,
5220,-0.195,0.135,
5221,-0.185,0.125,
5222,-0.2,0.12,
5223,-0.185,0.14,
5224,-0.19,0.145,
5225,-0.18,0.15,
5226,-0.175,0.145,
5227,-0.185,0.13,
5228,-0.19,0.115,
5229,-0.215,0.135,
5230,-0.2,0.13,
5231,-0.18,0.145,
5232,-0.18,0.135,
5233,-0.19,0.14,
5234,-0.205,0.125,
5235,-0.215,0.14,
5236,-0.2,0.145,
5237,-0.195,0.155,
5238,-0.17,0.145,
5239,-0.19,0.125,
5240,-0.195,0.13,
5241,-0.205,0.145,
5242,-0.21,0.14,
5243,-0.175,0.145,
5244,-0.17,0.145,
5245,-0.175,0.13,
5246,-0.195,0.12,
5247,-0.2,0.125,
5248,-0.205,0.14,
5249,-0.195,0.15,
5250,-0.18,0.14,
5251,-0.175,0.135,
5252,-0.18,0.16,
5253,-0.155,0.175,
5254,-0.13,0.19,
5255,-0.115,0.205,
5256,-0.1,0.22,
5257,-0.11,0.215,
5258,-0.12,0.21,
5259,-0.12,0.22,
5260,-0.105,0.225,
5261,-0.07,0.23,
5262,-0.06,0.22,
5263,-0.05,0.195,
5264,-0.035,0.17,
5265,-0.025,0.175,
5266,-0.005,0.17,
5267,0.01,0.145,
5268,0.025,0.155,
5269,0.02,0.14,
5270,0.015,0.13,
5271,-0.005,0.14,
5272,0.01,0.155,
5273,0.04,0.16,
5274,0.04,0.165,
5275,0.035,0.15,
5276,-0.01,0.13,
5277,-0.05,0.13,
5278,-0.085,0.14,
5279,-0.11,0.125,
5280,-0.15,0.13,
5281,-0.185,0.125,
5282,-0.25,0.09,
5283,-0.29,0.085,
5284,-0.29,0.095,
5285,-0.26,0.095,
5286,-0.235,0.09,
5287,-0.24,0.07,
5288,-0.25,0.06,
5289,-0.26,0.07,
5290,-0.25,0.085,
5291,-0.245,0.08,
5292,-0.255,0.075,
5293,-0.265,0.07,
5294,-0.28,0.07,
5295,-0.27,0.085,
5296,-0.24,0.09,
5297,-0.225,0.105,
5298,-0.25,0.095,
5299,-0.27,0.07,
5300,-0.28,0.055,
5301,-0.265,0.07,
5302,-0.25,0.07,
5303,-0.25,0.075,
5304,-0.235,0.075,
5305,-0.255,0.055,
5306,-0.275,0.055,
5307,-0.27,0.065,
5308,-0.255,0.07,
5309,-0.26,0.07,
5310,-0.255,0.06,
5311,-0.265,0.05,
5312,-0.275,0.045,
5313,-0.265,0.055,
5314,-0.255,0.06,
5315,-0.24,0.055,
5316,-0.245,0.065,
5317,-0.25,0.045,
5318,-0.265,0.055,
5319,-0.27,0.065,
5320,-0.28,0.07,
5321,-0.27,0.05,
5322,-0.285,0.01,
5323,-0.32,-0.055,
5324,-0.335,-0.16,
5325,-0.35,-0.265,
5326,-0.335,-0.395,
5327,-0.31,-0.55,
5328,-0.31,-0.765,
5329,-0.31,-1.03,
5330,-0.32,-1.325,
5331,-0.365,-1.55,
5332,-0.45,-1.645,
5333,-0.52,-1.625,
5334,-0.545,-1.56,
5335,-0.54,-1.515,
5336,-0.525,-1.485,
5337,-0.54,-1.435,
5338,-0.54,-1.375,
5339,-0.565,-1.31,
5340,-0.625,-1.29,
5341,-0.68,-1.275,
5342,-0.72,-1.26,
5343,-0.735,-1.22,
5344,-0.745,-1.16,
5345,-0.75,-1.105,
5346,-0.79,-1.045,
5347,-0.855,-1.0,
5348,-0.885,-0.94,
5349,-0.885,-0.875,
5350,-0.89,-0.81,N
5351,-0.86,-0.75,
5352,-0.825,-0.65,
5353,-0.765,-0.565,
5354,-0.745,-0.47,
5355,-0.725,-0.37,
5356,-0.665,-0.26,
5357,-0.565,-0.165,
5358,-0.495,-0.105,
5359,-0.445,-0.045,
5360,-0.415,-0.005,
5361,-0.375,0.08,
5362,-0.325,0.145,
5363,-0.255,0.2,
5364,-0.23,0.225,
5365,-0.21,0.25,
5366,-0.205,0.275,
5367,-0.2,0.3,
5368,-0.185,0.315,
5369,-0.18,0.33,
5370,-0.17,0.33,
5371,-0.185,0.345,
5372,-0.185,0.345,
5373,-0.185,0.365,
5374,-0.165,0.375,
5375,-0.155,0.385,
5376,-0.155,0.38,
5377,-0.16,0.4,
5378,-0.155,0.39,
5379,-0.145,0.405,
5380,-0.155,0.41,
5381,-0.14,0.42,
5382,-0.15,0.425,
5383,-0.15,0.41,
5384,-0.14,0.41,
5385,-0.15,0.42,
5386,-0.14,0.425,
5387,-0.125,0.435,
5388,-0.15,0.435,
5389,-0.15,0.425,
5390,-0.16,0.425,
5391,-0.15,0.45,
5392,-0.13,0.455,
5393,-0.105,0.46,
5394,-0.105,0.465,
5395,-0.125,0.455,
5396,-0.12,0.45,
5397,-0.135,0.455,
5398,-0.125,0.455,
5399,-0.105,0.475,
5400,-0.1,0.475,
5401,-0.1,0.465,
5402,-0.115,0.455,
5403,-0.11,0.46,
5404,-0.105,0.475,
5405,-0.085,0.475,
5406,-0.075,0.48,
5407,-0.095,0.46,
5408,-0.08,0.47,
5409,-0.065,0.475,
5410,-0.055,0.48,
5411,-0.045,0.485,
5412,-0.055,0.475,
5413,-0.06,0.475,
5414,-0.06,0.465,
5415,-0.06,0.475,
5416,-0.035,0.485,
5417,-0.035,0.485,
5418,-0.03,0.49,
5419,-0.02,0.475,
5420,-0.03,0.465,
5421,-0.02,0.47,
5422,-0.01,0.47,
5423,0.01,0.465,
5424,0.005,0.465,
5425,0.0,0.455,
5426,-0.005,0.455,
5427,-0.01,0.455,
5428,0.005,0.455,
5429,0.02,0.45,
5430,0.025,0.445,
5431,0.015,0.44,
5432,0.01,0.425,
5433,0.005,0.43,
5434,0.015,0.435,
5435,0.02,0.43,
5436,0.015,0.42,
5437,0.01,0.4,
5438,-0.005,0.375,
5439,-0.005,0.355,
5440,-0.005,0.36,
5441,-0.01,0.355,
5442,-0.015,0.325,
5443,-0.03,0.305,
5444,-0.035,0.305,
5445,-0.05,0.285,
5446,-0.05,0.285,
5447,-0.055,0.275,
5448,-0.055,0.255,
5449,-0.07,0.23,
5450,-0.085,0.215,
5451,-0.1,0.225,
5452,-0.105,0.235,
5453,-0.1,0.215,
5454,-0.11,0.215,
5455,-0.1,0.19,
5456,-0.115,0.18,
5457,-0.125,0.18,
5458,-0.13,0.19,
5459,-0.13,0.175,
5460,-0.13,0.165,
5461,-0.14,0.165,
5462,-0.14,0.15,
5463,-0.15,0.16,
5464,-0.145,0.16,
5465,-0.145,0.16,
5466,-0.135,0.155,
5467,-0.14,0.16,
5468,-0.155,0.14,
5469,-0.17,0.165,
5470,-0.16,0.175,
5471,-0.165,0.185,
5472,-0.155,0.175,
5473,-0.155,0.175,
5474,-0.17,0.155,
5475,-0.175,0.16,
5476,-0.17,0.185,
5477,-0.16,0.175,
5478,-0.175,0.17,
5479,-0.17,0.17,
5480,-0.175,0.155,
5481,-0.175,0.17,
5482,-0.17,0.185,
5483,-0.185,0.2,
5484,-0.185,0.19,
5485,-0.185,0.185,
5486,-0.2,0.18,
5487,-0.21,0.2,
5488,-0.195,0.2,
5489,-0.185,0.21,
5490,-0.19,0.21,
5491,-0.2,0.195,
5492,-0.215,0.195,
5493,-0.22,0.21,
5494,-0.215,0.225,
5495,-0.225,0.23,
5496,-0.22,0.215,
5497,-0.225,0.22,
5498,-0.2,0.205,
5499,-0.2,0.215,
5500,-0.21,0.225,
5501,-0.215,0.22,
5502,-0.21,0.22,
5503,-0.23,0.215,
5504,-0.245,0.205,
5505,-0.245,0.205,
5506,-0.245,0.215,
5507,-0.245,0.22,
5508,-0.25,0.225,
5509,-0.24,0.21,
5510,-0.24,0.215,
5511,-0.255,0.205,
5512,-0.25,0.225,
5513,-0.25,0.23,
5514,-0.255,0.215,
5515,-0.27,0.19,
5516,-0.285,0.185,
5517,-0.3,0.19,
5518,-0.28,0.205,
5519,-0.285,0.195,
5520,-0.285,0.19,
5521,-0.29,0.175,
5522,-0.295,0.18,
5523,-0.295,0.18,
5524,-0.29,0.185,
5525,-0.275,0.195,
5526,-0.275,0.19,
5527,-0.275,0.18,
5528,-0.285,0.17,
5529,-0.28,0.175,
5530,-0.285,0.185,
5531,-0.275,0.185,
5532,-0.29,0.185,
5533,-0.29,0.17,
5534,-0.285,0.16,
5535,-0.28,0.165,
5536,-0.275,0.18,
5537,-0.265,0.185,
5538,-0.285,0.17,
5539,-0.285,0.165,
5540,-0.285,0.145,
5541,-0.275,0.16,
5542,-0.27,0.175,
5543,-0.26,0.175,
5544,-0.26,0.165,
5545,-0.265,0.165,
5546,-0.28,0.165,
5547,-0.27,0.165,
5548,-0.265,0.175,
5549,-0.255,0.175,
5550,-0.235,0.16,
5551,-0.26,0.16,
5552,-0.27,0.145,
5553,-0.275,0.155,
5554,-0.275,0.16,
5555,-0.275,0.165,
5556,-0.255,0.155,
5557,-0.245,0.16,
5558,-0.25,0.14,
5559,-0.26,0.145,
5560,-0.25,0.16,
5561,-0.245,0.165,
5562,-0.255,0.165,
5563,-0.265,0.16,
5564,-0.265,0.145,
5565,-0.26,0.16,
5566,-0.275,0.175,
5567,-0.255,0.185,
5568,-0.25,0.17,
5569,-0.265,0.16,
5570,-0.265,0.165,
5571,-0.275,0.16,
5572,-0.255,0.155,
5573,-0.245,0.17,
5574,-0.24,0.165,
5575,-0.25,0.17,
5576,-0.265,0.15,
5577,-0.265,0.155,
5578,-0.245,0.165,
5579,-0.245,0.155,
5580,-0.255,0.16,
5581,-0.27,0.145,
5582,-0.26,0.145,
5583,-0.245,0.15,
5584,-0.23,0.17,
5585,-0.22,0.17,
5586,-0.23,0.17,
5587,-0.245,0.165,
5588,-0.26,0.16,
5589,-0.26,0.165,
5590,-0.265,0.17,
5591,-0.245,0.165,
5592,-0.245,0.165,
5593,-0.25,0.155,
5594,-0.265,0.145,
5595,-0.265,0.15,
5596,-0.255,0.155,
5597,-0.26,0.16,
5598,-0.26,0.15,
5599,-0.26,0.14,
5600,-0.26,0.145,
5601,-0.255,0.14,
5602,-0.24,0.15,
5603,-0.22,0.15,
5604,-0.23,0.15,
5605,-0.245,0.145,
5606,-0.265,0.14,
5607,-0.25,0.145,
5608,-0.24,0.155,
5609,-0.245,0.15,
5610,-0.24,0.145,
5611,-0.25,0.135,
5612,-0.265,0.125,
5613,-0.27,0.135,
5614,-0.245,0.14,
5615,-0.24,0.14,
5616,-0.24,0.145,
5617,-0.235,0.15,
5618,-0.26,0.135,
5619,-0.26,0.135,
5620,-0.245,0.135,
5621,-0.225,0.145,
5622,-0.23,0.145,
5623,-0.23,0.14,
5624,-0.225,0.155,
5625,-0.22,0.16,
5626,-0.19,0.19,
5627,-0.19,0.2,
5628,-0.185,0.205,
5629,-0.185,0.21,
5630,-0.195,0.2,
5631,-0.195,0.205,
5632,-0.145,0.23,
5633,-0.11,0.235,
5634,-0.085,0.23,
5635,-0.075,0.22,
5636,-0.07,0.185,
5637,-0.075,0.165,
5638,-0.06,0.175,
5639,-0.065,0.175,
5640,-0.045,0.165,
5641,-0.03,0.16,
5642,-0.03,0.155,
5643,-0.025,0.155,
5644,-0.01,0.165,
5645,0.01,0.17,
5646,0.01,0.17,
5647,-0.03,0.16,
5648,-0.075,0.135,
5649,-0.135,0.14,
5650,-0.17,0.135,
5651,-0.2,0.145,
5652,-0.225,0.14,
5653,-0.27,0.115,
5654,-0.295,0.09,
5655,-0.305,0.095,
5656,-0.3,0.105,
5657,-0.28,0.105,
5658,-0.29,0.1,
5659,-0.3,0.085,
5660,-0.305,0.095,
5661,-0.3,0.085,
5662,-0.285,0.1,
5663,-0.27,0.105,
5664,-0.29,0.11,
5665,-0.29,0.09,
5666,-0.31,0.08,
5667,-0.315,0.085,
5668,-0.31,0.075,
5669,-0.285,0.095,
5670,-0.29,0.075,
5671,-0.295,0.085,
5672,-0.315,0.075,
5673,-0.315,0.085,
5674,-0.305,0.085,
5675,-0.3,0.085,
5676,-0.3,0.085,
5677,-0.3,0.06,
5678,-0.3,0.075,
5679,-0.295,0.085,
5680,-0.315,0.09,
5681,-0.305,0.09,
5682,-0.295,0.075,
5683,-0.29,0.075,
5684,-0.305,0.065,
5685,-0.32,0.075,
5686,-0.31,0.08,
5687,-0.29,0.095,
5688,-0.275,0.09,
5689,-0.28,0.07,
5690,-0.315,0.015,
5691,-0.35,-0.055,
5692,-0.365,-0.135,
5693,-0.34,-0.255,
5694,-0.32,-0.405,
5695,-0.315,-0.605,
5696,-0.325,-0.87,
5697,-0.335,-1.165,
5698,-0.345,-1.395,
5699,-0.415,-1.505,
5700,-0.49,-1.5,
5701,-0.53,-1.46,
5702,-0.56,-1.415,
5703,-0.565,-1.365,
5704,-0.56,-1.32,
5705,-0.57,-1.245,
5706,-0.62,-1.2,
5707,-0.69,-1.185,
5708,-0.735,-1.16,
5709,-0.77,-1.125,
5710,-0.77,-1.055,
5711,-0.785,-1.01,
5712,-0.83,-0.955,
5713,-0.89,-0.895,
5714,-0.93,-0.845,
5715,-0.95,-0.78,N
5716,-0.94,-0.71,
5717,-0.885,-0.61,
5718,-0.83,-0.51,
5719,-0.8,-0.415,
5720,-0.78,-0.33,
5721,-0.72,-0.245,
5722,-0.615,-0.165,
5723,-0.525,-0.075,
5724,-0.495,-0.015,
5725,-0.475,0.04,
5726,-0.42,0.075,
5727,-0.39,0.155,
5728,-0.32,0.215,
5729,-0.27,0.265,
5730,-0.235,0.28,
5731,-0.235,0.3,
5732,-0.225,0.31,
5733,-0.22,0.33,
5734,-0.205,0.34,
5735,-0.2,0.35,
5736,-0.195,0.355,
5737,-0.2,0.355,
5738,-0.19,0.355,
5739,-0.205,0.375,
5740,-0.195,0.38,
5741,-0.19,0.41,
5742,-0.195,0.41,
5743,-0.2,0.405,
5744,-0.21,0.395,
5745,-0.2,0.4,
5746,-0.18,0.42,
5747,-0.16,0.42,
5748,-0.17,0.42,
5749,-0.18,0.42,
5750,-0.195,0.405,
5751,-0.18,0.42,
5752,-0.165,0.435,
5753,-0.17,0.435,
5754,-0.18,0.43,
5755,-0.17,0.42,
5756,-0.175,0.425,
5757,-0.16,0.43,
5758,-0.175,0.455,
5759,-0.155,0.45,
5760,-0.175,0.445,
5761,-0.16,0.43,
5762,-0.15,0.43,
5763,-0.15,0.455,
5764,-0.145,0.45,
5765,-0.135,0.455,
5766,-0.14,0.445,
5767,-0.15,0.445,
5768,-0.16,0.44,
5769,-0.145,0.445,
5770,-0.13,0.45,
5771,-0.11,0.445,
5772,-0.095,0.455,
5773,-0.1,0.45,
5774,-0.105,0.445,
5775,-0.115,0.445,
5776,-0.11,0.455,
5777,-0.095,0.46,
5778,-0.095,0.465,
5779,-0.095,0.455,
5780,-0.08,0.44,
5781,-0.1,0.455,
5782,-0.095,0.47,
5783,-0.07,0.47,
5784,-0.08,0.455,
5785,-0.075,0.44,
5786,-0.08,0.44,
5787,-0.075,0.455,
5788,-0.07,0.445,
5789,-0.055,0.445,
5790,-0.03,0.43,
5791,-0.02,0.42,
5792,-0.03,0.41,
5793,-0.035,0.415,
5794,-0.015,0.425,
5795,0.005,0.425,
5796,-0.005,0.425,
5797,-0.015,0.41,
5798,-0.02,0.395,
5799,-0.02,0.4,
5800,-0.015,0.41,
5801,-0.01,0.395,
5802,-0.02,0.385,
5803,-0.03,0.375,
5804,-0.05,0.37,
5805,-0.05,0.355,
5806,-0.035,0.36,
5807,-0.02,0.35,
5808,-0.025,0.335,
5809,-0.045,0.32,
5810,-0.055,0.3,
5811,-0.06,0.295,
5812,-0.06,0.295,
5813,-0.045,0.295,
5814,-0.04,0.27,
5815,-0.055,0.26,
5816,-0.065,0.23,
5817,-0.085,0.235,
5818,-0.085,0.23,
5819,-0.095,0.245,
5820,-0.105,0.225,
5821,-0.12,0.21,
5822,-0.135,0.195,
5823,-0.15,0.18,
5824,-0.125,0.2,
5825,-0.095,0.2,
5826,-0.1,0.17,
5827,-0.13,0.155,
5828,-0.17,0.16,
5829,-0.18,0.16,
5830,-0.165,0.18,
5831,-0.145,0.175,
5832,-0.16,0.165,
5833,-0.185,0.14,
5834,-0.195,0.13,
5835,-0.195,0.145,
5836,-0.19,0.16,
5837,-0.18,0.16,
5838,-0.2,0.16,
5839,-0.205,0.155,
5840,-0.205,0.15,
5841,-0.21,0.15,
5842,-0.21,0.155,
5843,-0.175,0.165,
5844,-0.185,0.175,
5845,-0.19,0.155,
5846,-0.195,0.15,
5847,-0.21,0.155,
5848,-0.205,0.185,
5849,-0.195,0.17,
5850,-0.2,0.165,
5851,-0.21,0.155,
5852,-0.24,0.16,
5853,-0.23,0.17,
5854,-0.2,0.19,
5855,-0.175,0.185,
5856,-0.19,0.185,
5857,-0.205,0.18,
5858,-0.215,0.18,
5859,-0.215,0.2,
5860,-0.225,0.215,
5861,-0.22,0.21,
5862,-0.23,0.195,
5863,-0.23,0.185,
5864,-0.23,0.185,
5865,-0.24,0.19,
5866,-0.265,0.2,
5867,-0.255,0.2,
5868,-0.235,0.19,
5869,-0.205,0.19,
5870,-0.195,0.195,
5871,-0.195,0.19,
5872,-0.225,0.21,
5873,-0.255,0.195,
5874,-0.27,0.195,
5875,-0.285,0.2,
5876,-0.29,0.19,
5877,-0.255,0.19,
5878,-0.235,0.2,
5879,-0.255,0.225,
5880,-0.285,0.205,
5881,-0.285,0.205,
5882,-0.285,0.185,
5883,-0.29,0.185,
5884,-0.26,0.2,
5885,-0.19,0.19,
5886,-0.16,0.19,
5887,-0.19,0.18,
5888,-0.24,0.175,
5889,-0.265,0.19,
5890,-0.26,0.185,
5891,-0.255,0.18,
5892,-0.245,0.18,
5893,-0.275,0.17,
5894,-0.315,0.16,
5895,-0.365,0.165,
5896,-0.345,0.19,
5897,-0.275,0.185,
5898,-0.225,0.185,
5899,-0.215,0.17,
5900,-0.275,0.175,
5901,-0.335,0.18,
5902,-0.335,0.175,
5903,-0.3,0.18,
5904,-0.245,0.16,
5905,-0.205,0.155,
5906,-0.195,0.16,
5907,-0.22,0.17,
5908,-0.24,0.18,
5909,-0.27,0.165,
5910,-0.31,0.175,
5911,-0.3,0.16,
5912,-0.28,0.16,
5913,-0.285,0.16,
5914,-0.285,0.185,
5915,-0.285,0.175,
5916,-0.275,0.175,
5917,-0.27,0.17,
5918,-0.28,0.175,
5919,-0.275,0.175,
5920,-0.205,0.195,
5921,-0.115,0.195,
5922,-0.1,0.19,
5923,-0.16,0.165,
5924,-0.23,0.165,
5925,-0.265,0.17,
5926,-0.235,0.195,
5927,-0.195,0.2,
5928,-0.165,0.2,
5929,-0.185,0.195,
5930,-0.215,0.175,
5931,-0.245,0.18,
5932,-0.22,0.185,
5933,-0.185,0.185,
5934,-0.185,0.185,
5935,-0.2,0.185,
5936,-0.21,0.18,
5937,-0.215,0.185,
5938,-0.235,0.19,
5939,-0.25,0.205,
5940,-0.255,0.205,
5941,-0.245,0.2,
5942,-0.255,0.19,
5943,-0.26,0.2,
5944,-0.245,0.205,
5945,-0.195,0.2,
5946,-0.12,0.2,
5947,-0.095,0.195,
5948,-0.125,0.205,
5949,-0.175,0.2,
5950,-0.21,0.215,
5951,-0.2,0.22,
5952,-0.205,0.24,
5953,-0.205,0.24,
5954,-0.22,0.24,
5955,-0.235,0.25,
5956,-0.225,0.265,
5957,-0.205,0.29,
5958,-0.205,0.295,
5959,-0.21,0.235,
5960,-0.22,0.175,
5961,-0.21,0.16,
5962,-0.19,0.175,
5963,-0.19,0.19,
5964,-0.19,0.2,
5965,-0.19,0.21,
5966,-0.19,0.2,
5967,-0.21,0.2,
5968,-0.22,0.215,
5969,-0.21,0.21,
5970,-0.21,0.225,
5971,-0.21,0.22,
5972,-0.215,0.21,
5973,-0.23,0.22,
5974,-0.22,0.24,
5975,-0.195,0.24,
5976,-0.175,0.24,
5977,-0.18,0.225,
5978,-0.195,0.225,
5979,-0.205,0.24,
5980,-0.185,0.25,
5981,-0.18,0.25,
5982,-0.2,0.25,
5983,-0.21,0.235,
5984,-0.205,0.23,
5985,-0.195,0.225,
5986,-0.2,0.24,
5987,-0.21,0.255,
5988,-0.22,0.245,
5989,-0.2,0.225,
5990,-0.22,0.22,
5991,-0.225,0.24,
5992,-0.225,0.24,
5993,-0.23,0.255,
5994,-0.23,0.24,
5995,-0.2,0.23,
5996,-0.165,0.245,
5997,-0.145,0.23,
5998,-0.155,0.255,
5999,-0.195,0.265,
6000,-0.245,0.255,
6001,-0.27,0.255,
6002,-0.235,0.255,
6003,-0.155,0.265,
6004,-0.12,0.265,
6005,-0.145,0.28,
6006,-0.19,0.26,
6007,-0.205,0.265,
6008,-0.195,0.25,
6009,-0.195,0.255,
6010,-0.22,0.265,
6011,-0.215,0.265,
6012,-0.21,0.27,
6013,-0.2,0.26,
6014,-0.18,0.27,
6015,-0.18,0.285,
6016,-0.205,0.315,
6017,-0.21,0.32,
6018,-0.2,0.295,
6019,-0.145,0.305,
6020,-0.155,0.32,
6021,-0.185,0.355,
6022,-0.195,0.355,
6023,-0.145,0.325,
6024,-0.085,0.29,
6025,-0.045,0.28,
6026,-0.055,0.295,
6027,-0.07,0.315,
6028,-0.09,0.34,
6029,-0.1,0.35,
6030,-0.085,0.365,
6031,-0.075,0.37,
6032,-0.055,0.37,
6033,-0.035,0.365,
6034,-0.01,0.35,
6035,0.015,0.325,
6036,0.02,0.315,
6037,0.015,0.31,
6038,-0.015,0.295,
6039,-0.02,0.295,
6040,-0.005,0.3,
6041,0.035,0.32,
6042,0.04,0.325,
6043,0.035,0.33,
6044,0.045,0.325,
6045,0.015,0.335,
6046,-0.015,0.37,
6047,-0.065,0.38,
6048,-0.09,0.335,
6049,-0.13,0.265,
6050,-0.17,0.24,
6051,-0.225,0.24,
6052,-0.24,0.265,
6053,-0.24,0.265,
6054,-0.24,0.26,
6055,-0.235,0.25,
6056,-0.24,0.23,
6057,-0.26,0.245,
6058,-0.27,0.27,
6059,-0.25,0.27,
6060,-0.235,0.27,
6061,-0.235,0.26,
6062,-0.265,0.23,
6063,-0.265,0.225,
6064,-0.265,0.255,
6065,-0.245,0.28,
6066,-0.225,0.275,
6067,-0.22,0.285,
6068,-0.25,0.275,
6069,-0.275,0.245,
6070,-0.255,0.23,
6071,-0.215,0.22,
6072,-0.205,0.235,
6073,-0.22,0.205,
6074,-0.26,0.195,
6075,-0.27,0.22,
6076,-0.265,0.265,
6077,-0.235,0.265,
6078,-0.245,0.265,
6079,-0.285,0.245,
6080,-0.315,0.245,
6081,-0.31,0.22,
6082,-0.28,0.215,
6083,-0.23,0.205,
6084,-0.23,0.215,
6085,-0.26,0.195,
6086,-0.275,0.205,
6087,-0.27,0.215,
6088,-0.23,0.215,
6089,-0.21,0.17,
6090,-0.25,0.085,
6091,-0.31,-0.02,
6092,-0.325,-0.12,
6093,-0.25,-0.235,
6094,-0.155,-0.42,
6095,-0.1,-0.715,
6096,-0.11,-1.075,
6097,-0.16,-1.325,
6098,-0.24,-1.415,
6099,-0.295,-1.375,
6100,-0.325,-1.305,
6101,-0.34,-1.26,
6102,-0.355,-1.23,
6103,-0.325,-1.19,
6104,-0.34,-1.12,
6105,-0.405,-1.05,
6106,-0.465,-1.005,
6107,-0.5,-0.98,
6108,-0.52,-0.94,
6109,-0.575,-0.89,
6110,-0.635,-0.83,
6111,-0.715,-0.755,
6112,-0.75,-0.68,
6113,-0.78,-0.625,
6114,-0.805,-0.55,
6115,-0.78,-0.445,N
6116,-0.77,-0.305,
6117,-0.77,-0.225,
6118,-0.73,-0.175,
6119,-0.665,-0.105,
6120,-0.61,-0.02,
6121,-0.57,0.065,
6122,-0.525,0.135,
6123,-0.48,0.22,
6124,-0.435,0.28,
6125,-0.36,0.335,
6126,-0.255,0.375,
6127,-0.185,0.4,
6128,-0.2,0.445,
6129,-0.23,0.515,
6130,-0.24,0.51,
6131,-0.22,0.47,
6132,-0.21,0.455,
6133,-0.22,0.48,
6134,-0.22,0.5,
6135,-0.205,0.515,
6136,-0.175,0.53,
6137,-0.165,0.53,
6138,-0.19,0.545,
6139,-0.225,0.54,
6140,-0.23,0.535,
6141,-0.23,0.54,
6142,-0.205,0.565,
6143,-0.185,0.575,
6144,-0.165,0.59,
6145,-0.165,0.595,
6146,-0.18,0.575,
6147,-0.205,0.55,
6148,-0.215,0.56,
6149,-0.215,0.57,
6150,-0.185,0.575,
6151,-0.18,0.575,
6152,-0.185,0.565,
6153,-0.185,0.585,
6154,-0.19,0.6,
6155,-0.175,0.6,
6156,-0.175,0.61,
6157,-0.165,0.61,
6158,-0.15,0.6,
6159,-0.155,0.59,
6160,-0.135,0.6,
6161,-0.14,0.6,
6162,-0.15,0.61,
6163,-0.15,0.61,
6164,-0.145,0.615,
6165,-0.14,0.61,
6166,-0.13,0.605,
6167,-0.125,0.595,
6168,-0.13,0.6,
6169,-0.13,0.585,
6170,-0.145,0.59,
6171,-0.145,0.595,
6172,-0.15,0.6,
6173,-0.125,0.61,
6174,-0.105,0.61,
6175,-0.12,0.585,
6176,-0.14,0.595,
6177,-0.135,0.595,
6178,-0.07,0.605,
6179,-0.015,0.595,
6180,-0.04,0.595,
6181,-0.08,0.575,
6182,-0.09,0.575,
6183,-0.1,0.575,
6184,-0.08,0.59,
6185,-0.05,0.585,
6186,-0.035,0.58,
6187,-0.055,0.565,
6188,-0.055,0.55,
6189,-0.055,0.56,
6190,-0.04,0.575,
6191,-0.035,0.57,
6192,-0.04,0.545,
6193,-0.05,0.535,
6194,-0.045,0.535,
6195,-0.05,0.535,
6196,-0.05,0.535,
6197,-0.05,0.525,
6198,-0.045,0.515,
6199,-0.05,0.48,
6200,-0.065,0.48,
6201,-0.045,0.465,
6202,-0.03,0.47,
6203,-0.025,0.465,
6204,-0.055,0.445,
6205,-0.11,0.425,
6206,-0.14,0.4,
6207,-0.105,0.395,
6208,-0.065,0.41,
6209,-0.045,0.405,
6210,-0.08,0.4,
6211,-0.115,0.37,
6212,-0.1,0.34,
6213,-0.095,0.34,
6214,-0.125,0.345,
6215,-0.145,0.34,
6216,-0.15,0.3,
6217,-0.14,0.3,
6218,-0.115,0.285,
6219,-0.11,0.31,
6220,-0.125,0.32,
6221,-0.13,0.32,
6222,-0.155,0.31,
6223,-0.17,0.275,
6224,-0.185,0.255,
6225,-0.185,0.25,
6226,-0.205,0.265,
6227,-0.19,0.275,
6228,-0.195,0.28,
6229,-0.175,0.25,
6230,-0.16,0.255,
6231,-0.185,0.265,
6232,-0.21,0.275,
6233,-0.23,0.285,
6234,-0.235,0.285,
6235,-0.22,0.27,
6236,-0.195,0.245,
6237,-0.17,0.255,
6238,-0.155,0.255,
6239,-0.155,0.27,
6240,-0.165,0.275,
6241,-0.18,0.27,
6242,-0.195,0.26,
6243,-0.185,0.28,
6244,-0.19,0.295,
6245,-0.195,0.305,
6246,-0.195,0.305,
6247,-0.21,0.29,
6248,-0.235,0.29,
6249,-0.245,0.3,
6250,-0.24,0.305,
6251,-0.235,0.3,
6252,-0.245,0.275,
6253,-0.245,0.285,
6254,-0.235,0.27,
6255,-0.245,0.285,
6256,-0.225,0.305,
6257,-0.185,0.315,
6258,-0.15,0.31,
6259,-0.175,0.31,
6260,-0.2,0.3,
6261,-0.2,0.32,
6262,-0.205,0.325,
6263,-0.205,0.33,
6264,-0.245,0.315,
6265,-0.27,0.32,
6266,-0.27,0.325,
6267,-0.255,0.32,
6268,-0.225,0.315,
6269,-0.215,0.31,
6270,-0.235,0.315,
6271,-0.265,0.315,
6272,-0.27,0.3,
6273,-0.285,0.305,
6274,-0.295,0.305,
6275,-0.285,0.31,
6276,-0.265,0.315,
6277,-0.265,0.29,
6278,-0.29,0.29,
6279,-0.305,0.285,
6280,-0.3,0.3,
6281,-0.29,0.295,
6282,-0.295,0.285,
6283,-0.295,0.265,
6284,-0.33,0.265,
6285,-0.325,0.275,
6286,-0.325,0.265,
6287,-0.3,0.27,
6288,-0.295,0.275,
6289,-0.305,0.26,
6290,-0.32,0.255,
6291,-0.33,0.255,
6292,-0.305,0.275,
6293,-0.31,0.265,
6294,-0.31,0.26,
6295,-0.335,0.245,
6296,-0.365,0.245,
6297,-0.355,0.24,
6298,-0.325,0.25,
6299,-0.305,0.245,
6300,-0.3,0.24,
6301,-0.3,0.23,
6302,-0.295,0.225,
6303,-0.31,0.24,
6304,-0.315,0.24,
6305,-0.305,0.235,
6306,-0.285,0.23,
6307,-0.275,0.225,
6308,-0.27,0.22,
6309,-0.28,0.23,
6310,-0.3,0.24,
6311,-0.315,0.235,
6312,-0.3,0.24,
6313,-0.25,0.22,
6314,-0.235,0.225,
6315,-0.245,0.23,
6316,-0.28,0.235,
6317,-0.3,0.225,
6318,-0.305,0.23,
6319,-0.29,0.22,
6320,-0.28,0.205,
6321,-0.285,0.22,
6322,-0.285,0.21,
6323,-0.27,0.215,
6324,-0.265,0.215,
6325,-0.265,0.22,
6326,-0.285,0.2,
6327,-0.32,0.21,
6328,-0.32,0.21,
6329,-0.275,0.23,
6330,-0.23,0.225,
6331,-0.215,0.215,
6332,-0.23,0.22,
6333,-0.25,0.215,
6334,-0.255,0.24,
6335,-0.26,0.235,
6336,-0.28,0.245,
6337,-0.3,0.235,
6338,-0.315,0.21,
6339,-0.29,0.205,
6340,-0.275,0.215,
6341,-0.25,0.245,
6342,-0.255,0.22,
6343,-0.285,0.21,
6344,-0.295,0.215,
6345,-0.27,0.225,
6346,-0.245,0.225,
6347,-0.235,0.225,
6348,-0.27,0.23,
6349,-0.295,0.23,
6350,-0.295,0.22,
6351,-0.28,0.22,
6352,-0.265,0.215,
6353,-0.27,0.205,
6354,-0.28,0.18,
6355,-0.27,0.175,
6356,-0.245,0.185,
6357,-0.235,0.19,
6358,-0.245,0.215,
6359,-0.26,0.2,
6360,-0.26,0.185,
6361,-0.255,0.18,
6362,-0.265,0.19,
6363,-0.26,0.195,
6364,-0.245,0.21,
6365,-0.225,0.205,
6366,-0.23,0.205,
6367,-0.25,0.19,
6368,-0.275,0.18,
6369,-0.285,0.19,
6370,-0.285,0.22,
6371,-0.285,0.205,
6372,-0.295,0.195,
6373,-0.28,0.185,
6374,-0.245,0.175,
6375,-0.22,0.18,
6376,-0.205,0.19,
6377,-0.195,0.195,
6378,-0.22,0.175,
6379,-0.24,0.185,
6380,-0.25,0.16,
6381,-0.26,0.18,
6382,-0.255,0.2,
6383,-0.24,0.195,
6384,-0.245,0.19,
6385,-0.26,0.175,
6386,-0.27,0.185,
6387,-0.275,0.185,
6388,-0.255,0.2,
6389,-0.235,0.21,
6390,-0.205,0.215,
6391,-0.2,0.215,
6392,-0.22,0.215,
6393,-0.225,0.245,
6394,-0.2,0.255,
6395,-0.175,0.26,
6396,-0.18,0.265,
6397,-0.175,0.26,
6398,-0.14,0.26,
6399,-0.08,0.265,
6400,-0.045,0.245,
6401,-0.035,0.25,
6402,-0.05,0.23,
6403,-0.045,0.23,
6404,-0.065,0.21,
6405,-0.07,0.215,
6406,-0.03,0.215,
6407,-0.02,0.21,
6408,-0.015,0.22,
6409,-0.035,0.2,
6410,-0.07,0.205,
6411,-0.08,0.2,
6412,-0.09,0.205,
6413,-0.125,0.195,
6414,-0.165,0.185,
6415,-0.19,0.175,
6416,-0.215,0.16,
6417,-0.26,0.165,
6418,-0.305,0.155,
6419,-0.32,0.155,
6420,-0.305,0.155,
6421,-0.29,0.15,
6422,-0.295,0.145,
6423,-0.3,0.15,
6424,-0.3,0.165,
6425,-0.31,0.165,
6426,-0.3,0.165,
6427,-0.32,0.15,
6428,-0.36,0.135,
6429,-0.35,0.145,
6430,-0.32,0.135,
6431,-0.28,0.16,
6432,-0.275,0.145,
6433,-0.29,0.14,
6434,-0.305,0.125,
6435,-0.32,0.125,
6436,-0.31,0.155,
6437,-0.295,0.155,
6438,-0.3,0.14,
6439,-0.305,0.145,
6440,-0.31,0.135,
6441,-0.3,0.13,
6442,-0.305,0.145,
6443,-0.315,0.14,
6444,-0.305,0.135,
6445,-0.3,0.13,
6446,-0.31,0.12,
6447,-0.355,0.13,
6448,-0.34,0.135,
6449,-0.31,0.14,
6450,-0.285,0.13,
6451,-0.285,0.12,
6452,-0.3,0.1,
6453,-0.31,0.04,
6454,-0.345,-0.045,
6455,-0.345,-0.16,
6456,-0.34,-0.31,
6457,-0.34,-0.5,
6458,-0.335,-0.725,
6459,-0.305,-1.0,
6460,-0.27,-1.3,
6461,-0.265,-1.535,
6462,-0.36,-1.615,
6463,-0.425,-1.57,
6464,-0.425,-1.515,
6465,-0.42,-1.45,
6466,-0.41,-1.395,
6467,-0.42,-1.315,
6468,-0.47,-1.25,
6469,-0.52,-1.22,
6470,-0.57,-1.19,
6471,-0.615,-1.145,
6472,-0.645,-1.09,
6473,-0.665,-1.025,
6474,-0.705,-0.975,
6475,-0.75,-0.92,
6476,-0.805,-0.845,
6477,-0.86,-0.795,
6478,-0.875,-0.725,
6479,-0.855,-0.635,N
6480,-0.845,-0.535,
6481,-0.825,-0.44,
6482,-0.815,-0.355,
6483,-0.755,-0.255,
6484,-0.66,-0.175,
6485,-0.585,-0.1,
6486,-0.555,-0.035,
6487,-0.56,0.03,
6488,-0.495,0.095,
6489,-0.41,0.17,
6490,-0.34,0.235,
6491,-0.295,0.295,
6492,-0.28,0.33,
6493,-0.275,0.345,
6494,-0.275,0.36,
6495,-0.255,0.375,
6496,-0.245,0.38,
6497,-0.22,0.365,
6498,-0.23,0.365,
6499,-0.24,0.375,
6500,-0.245,0.385,
6501,-0.245,0.405,
6502,-0.255,0.42,
6503,-0.24,0.43,
6504,-0.235,0.43,
6505,-0.21,0.42,
6506,-0.205,0.415,
6507,-0.21,0.425,
6508,-0.205,0.445,
6509,-0.205,0.44,
6510,-0.21,0.44,
6511,-0.225,0.445,
6512,-0.24,0.445,
6513,-0.24,0.455,
6514,-0.21,0.47,
6515,-0.18,0.48,
6516,-0.19,0.485,
6517,-0.215,0.485,
6518,-0.235,0.49,
6519,-0.22,0.49,
6520,-0.205,0.49,
6521,-0.195,0.485,
6522,-0.2,0.495,
6523,-0.2,0.485,
6524,-0.195,0.485,
6525,-0.215,0.495,
6526,-0.24,0.5,
6527,-0.24,0.49,
6528,-0.185,0.51,
6529,-0.135,0.505,
6530,-0.14,0.5,
6531,-0.16,0.495,
6532,-0.17,0.5,
6533,-0.155,0.505,
6534,-0.155,0.515,
6535,-0.13,0.505,
6536,-0.12,0.5,
6537,-0.115,0.51,
6538,-0.105,0.515,
6539,-0.1,0.52,
6540,-0.11,0.525,
6541,-0.12,0.51,
6542,-0.13,0.495,
6543,-0.11,0.505,
6544,-0.1,0.515,
6545,-0.095,0.51,
6546,-0.095,0.505,
6547,-0.115,0.495,
6548,-0.11,0.485,
6549,-0.12,0.495,
6550,-0.105,0.49,
6551,-0.1,0.495,
6552,-0.11,0.495,
6553,-0.12,0.47,
6554,-0.115,0.47,
6555,-0.115,0.475,
6556,-0.09,0.47,
6557,-0.065,0.475,
6558,-0.025,0.47,
6559,-0.005,0.47,
6560,-0.05,0.455,
6561,-0.07,0.475,
6562,-0.055,0.49,
6563,-0.015,0.465,
6564,-0.015,0.45,
6565,-0.045,0.44,
6566,-0.055,0.435,
6567,-0.065,0.42,
6568,-0.085,0.4,
6569,-0.08,0.39,
6570,-0.065,0.375,
6571,-0.055,0.365,
6572,-0.065,0.35,
6573,-0.075,0.35,
6574,-0.06,0.345,
6575,-0.05,0.335,
6576,-0.07,0.335,
6577,-0.07,0.32,
6578,-0.07,0.32,
6579,-0.095,0.32,
6580,-0.105,0.32,
6581,-0.125,0.29,
6582,-0.135,0.265,
6583,-0.165,0.225,
6584,-0.145,0.215,
6585,-0.12,0.205,
6586,-0.09,0.21,
6587,-0.08,0.195,
6588,-0.12,0.195,
6589,-0.16,0.18,
6590,-0.165,0.175,
6591,-0.15,0.175,
6592,-0.145,0.17,
6593,-0.14,0.17,
6594,-0.16,0.17,
6595,-0.19,0.155,
6596,-0.21,0.14,
6597,-0.21,0.155,
6598,-0.175,0.18,
6599,-0.155,0.165,
6600,-0.155,0.17,
6601,-0.19,0.17,
6602,-0.225,0.21,
6603,-0.22,0.2,
6604,-0.2,0.18,
6605,-0.175,0.15,
6606,-0.18,0.125,
6607,-0.18,0.115,
6608,-0.2,0.13,
6609,-0.21,0.13,
6610,-0.21,0.15,
6611,-0.195,0.145,
6612,-0.185,0.16,
6613,-0.19,0.14,
6614,-0.21,0.135,
6615,-0.215,0.135,
6616,-0.21,0.15,
6617,-0.2,0.145,
6618,-0.195,0.16,
6619,-0.2,0.165,
6620,-0.21,0.19,
6621,-0.225,0.265,
6622,-0.225,0.28,
6623,-0.225,0.205,
6624,-0.195,0.13,
6625,-0.2,0.105,
6626,-0.215,0.115,
6627,-0.23,0.15,
6628,-0.225,0.16,
6629,-0.21,0.155,
6630,-0.2,0.155,
6631,-0.22,0.145,
6632,-0.255,0.155,
6633,-0.255,0.155,
6634,-0.25,0.18,
6635,-0.245,0.18,
6636,-0.235,0.195,
6637,-0.24,0.18,
6638,-0.25,0.175,
6639,-0.245,0.175,
6640,-0.245,0.185,
6641,-0.25,0.16,
6642,-0.27,0.16,
6643,-0.305,0.155,
6644,-0.295,0.15,
6645,-0.26,0.155,
6646,-0.255,0.165,
6647,-0.245,0.16,
6648,-0.26,0.155,
6649,-0.29,0.145,
6650,-0.3,0.16,
6651,-0.305,0.205,
6652,-0.26,0.255,
6653,-0.265,0.235,
6654,-0.29,0.155,
6655,-0.315,0.085,
6656,-0.29,0.065,
6657,-0.265,0.095,
6658,-0.245,0.105,
6659,-0.27,0.12,
6660,-0.275,0.11,
6661,-0.285,0.095,
6662,-0.32,0.105,
6663,-0.325,0.1,
6664,-0.29,0.115,
6665,-0.275,0.11,
6666,-0.275,0.1,
6667,-0.27,0.095,
6668,-0.305,0.085,
6669,-0.315,0.1,
6670,-0.305,0.11,
6671,-0.28,0.11,
6672,-0.275,0.115,
6673,-0.29,0.09,
6674,-0.31,0.065,
6675,-0.295,0.055,
6676,-0.255,0.085,
6677,-0.25,0.08,
6678,-0.265,0.085,
6679,-0.285,0.055,
6680,-0.305,0.05,
6681,-0.315,0.045,
6682,-0.29,0.05,
6683,-0.265,0.06,
6684,-0.235,0.055,
6685,-0.245,0.03,
6686,-0.245,0.015,
6687,-0.26,0.015,
6688,-0.25,0.01,
6689,-0.27,0.02,
6690,-0.285,0.02,
6691,-0.285,0.005,
6692,-0.28,0.005,
6693,-0.24,0.005,
6694,-0.22,0.01,
6695,-0.23,0.015,
6696,-0.265,0.02,
6697,-0.27,0.005,
6698,-0.265,0.0,
6699,-0.24,0.02,
6700,-0.24,0.025,
6701,-0.245,0.025,
6702,-0.25,0.01,
6703,-0.235,0.0,
6704,-0.23,-0.005,
6705,-0.24,-0.005,
