,MLII,V1,symbol
0,0.175,0.635,
1,0.175,0.635,
2,0.175,0.635,
3,0.175,0.635,
4,0.175,0.635,
5,0.175,0.635,
6,0.175,0.635,
7,0.175,0.635,
8,0.175,0.635,
9,0.18,0.635,
10,0.185,0.645,
11,0.21,0.62,
12,0.23,0.615,
13,0.22,0.595,
14,0.195,0.58,
15,0.16,0.57,
16,0.095,0.58,
17,0.06,0.595,
18,0.085,0.59,+
19,0.15,0.585,
20,0.195,0.58,
21,0.16,0.575,
22,0.065,0.59,
23,0.055,0.59,
24,0.12,0.585,
25,0.22,0.57,
26,0.24,0.545,
27,0.2,0.56,
28,0.16,0.575,
29,0.14,0.59,
30,0.14,0.6,
31,0.125,0.6,
32,0.11,0.575,
33,0.1,0.585,
34,0.11,0.595,
35,0.135,0.62,
36,0.14,0.625,
37,0.105,0.62,
38,0.055,0.6,
39,0.03,0.6,
40,0.01,0.595,
41,0.015,0.61,
42,-0.015,0.61,
43,-0.035,0.615,
44,-0.06,0.61,
45,-0.09,0.595,
46,-0.125,0.62,
47,-0.125,0.655,
48,-0.11,0.66,
49,-0.11,0.65,
50,-0.11,0.605,
51,-0.13,0.565,
52,-0.13,0.545,
53,-0.135,0.55,
54,-0.14,0.565,
55,-0.15,0.58,
56,-0.175,0.58,
57,-0.16,0.58,
58,-0.165,0.58,
59,-0.17,0.585,
60,-0.185,0.585,
61,-0.195,0.58,
62,-0.18,0.57,
63,-0.165,0.555,
64,-0.175,0.56,
65,-0.2,0.59,
66,-0.215,0.59,
67,-0.215,0.575,
68,-0.185,0.57,
69,-0.17,0.555,
70,-0.19,0.55,
71,-0.23,0.545,
72,-0.23,0.565,
73,-0.21,0.565,
74,-0.175,0.545,
75,-0.16,0.525,
76,-0.17,0.525,
77,-0.19,0.56,
78,-0.195,0.56,
79,-0.19,0.55,
80,-0.165,0.53,
81,-0.16,0.525,
82,-0.18,0.54,
83,-0.19,0.545,
84,-0.175,0.535,
85,-0.18,0.52,
86,-0.175,0.52,
87,-0.195,0.515,
88,-0.2,0.535,
89,-0.18,0.57,
90,-0.185,0.57,
91,-0.195,0.575,
92,-0.21,0.59,
93,-0.245,0.61,
94,-0.24,0.625,
95,-0.185,0.63,
96,-0.08,0.605,
97,0.025,0.56,
98,0.11,0.49,
99,0.17,0.4,
100,0.2,0.345,
101,0.205,0.31,
102,0.235,0.225,
103,0.33,0.1,
104,0.425,-0.085,
105,0.535,-0.26,
106,0.6,-0.37,
107,0.63,-0.395,
108,0.61,-0.365,
109,0.575,-0.365,
110,0.55,-0.375,
111,0.535,-0.34,L
112,0.52,-0.285,
113,0.49,-0.22,
114,0.445,-0.18,
115,0.39,-0.13,
116,0.33,-0.095,
117,0.27,-0.06,
118,0.22,-0.01,
119,0.175,0.045,
120,0.095,0.07,
121,-0.02,0.095,
122,-0.145,0.1,
123,-0.28,0.13,
124,-0.405,0.17,
125,-0.49,0.2,
126,-0.545,0.23,
127,-0.57,0.255,
128,-0.62,0.265,
129,-0.66,0.285,
130,-0.7,0.31,
131,-0.69,0.325,
132,-0.67,0.345,
133,-0.66,0.355,
134,-0.655,0.36,
135,-0.66,0.38,
136,-0.64,0.41,
137,-0.615,0.445,
138,-0.595,0.45,
139,-0.59,0.47,
140,-0.575,0.465,
141,-0.58,0.47,
142,-0.58,0.485,
143,-0.56,0.515,
144,-0.515,0.51,
145,-0.485,0.53,
146,-0.475,0.515,
147,-0.485,0.51,
148,-0.485,0.52,
149,-0.465,0.525,
150,-0.46,0.535,
151,-0.46,0.52,
152,-0.46,0.52,
153,-0.47,0.51,
154,-0.475,0.535,
155,-0.465,0.535,
156,-0.47,0.535,
157,-0.485,0.535,
158,-0.485,0.525,
159,-0.505,0.52,
160,-0.505,0.535,
161,-0.5,0.545,
162,-0.49,0.535,
163,-0.49,0.53,
164,-0.495,0.525,
165,-0.505,0.53,
166,-0.53,0.535,
167,-0.53,0.56,
168,-0.52,0.56,
169,-0.5,0.555,
170,-0.495,0.525,
171,-0.505,0.53,
172,-0.52,0.525,
173,-0.515,0.535,
174,-0.505,0.53,
175,-0.505,0.525,
176,-0.515,0.52,
177,-0.515,0.51,
178,-0.52,0.53,
179,-0.5,0.535,
180,-0.485,0.535,
181,-0.495,0.53,
182,-0.49,0.515,
183,-0.485,0.51,
184,-0.48,0.495,
185,-0.48,0.505,
186,-0.48,0.51,
187,-0.455,0.505,
188,-0.45,0.49,
189,-0.435,0.48,
190,-0.445,0.485,
191,-0.415,0.49,
192,-0.415,0.485,
193,-0.405,0.475,
194,-0.395,0.465,
195,-0.385,0.46,
196,-0.385,0.465,
197,-0.37,0.48,
198,-0.35,0.475,
199,-0.35,0.47,
200,-0.365,0.44,
201,-0.375,0.43,
202,-0.35,0.42,
203,-0.305,0.45,
204,-0.265,0.43,
205,-0.255,0.42,
206,-0.275,0.42,
207,-0.285,0.39,
208,-0.28,0.38,
209,-0.24,0.39,
210,-0.21,0.38,
211,-0.215,0.37,
212,-0.225,0.36,
213,-0.22,0.34,
214,-0.24,0.355,
215,-0.23,0.35,
216,-0.2,0.345,
217,-0.19,0.32,
218,-0.18,0.3,
219,-0.185,0.305,
220,-0.195,0.295,
221,-0.185,0.31,
222,-0.155,0.295,
223,-0.16,0.285,
224,-0.175,0.27,
225,-0.185,0.26,
226,-0.185,0.25,
227,-0.18,0.265,
228,-0.17,0.25,
229,-0.17,0.25,
230,-0.18,0.24,
231,-0.175,0.24,
232,-0.165,0.24,
233,-0.145,0.255,
234,-0.125,0.255,
235,-0.125,0.23,
236,-0.135,0.23,
237,-0.16,0.21,
238,-0.185,0.225,
239,-0.195,0.21,
240,-0.16,0.225,
241,-0.145,0.215,
242,-0.15,0.18,
243,-0.18,0.17,
244,-0.21,0.175,
245,-0.19,0.19,
246,-0.18,0.185,
247,-0.185,0.18,
248,-0.215,0.16,
249,-0.235,0.15,
250,-0.24,0.155,
251,-0.2,0.16,
252,-0.16,0.17,
253,-0.145,0.165,
254,-0.175,0.155,
255,-0.195,0.16,
256,-0.2,0.16,
257,-0.19,0.175,
258,-0.17,0.18,
259,-0.185,0.17,
260,-0.205,0.15,
261,-0.22,0.15,
262,-0.215,0.16,
263,-0.195,0.175,
264,-0.185,0.17,
265,-0.195,0.165,
266,-0.21,0.17,
267,-0.24,0.16,
268,-0.265,0.185,
269,-0.275,0.175,
270,-0.295,0.175,
271,-0.32,0.185,
272,-0.355,0.175,
273,-0.375,0.16,
274,-0.405,0.165,
275,-0.425,0.185,
276,-0.435,0.175,
277,-0.45,0.18,
278,-0.44,0.16,
279,-0.44,0.15,
280,-0.44,0.155,
281,-0.43,0.17,
282,-0.42,0.17,
283,-0.43,0.16,
284,-0.435,0.15,
285,-0.455,0.14,
286,-0.47,0.155,
287,-0.475,0.155,
288,-0.455,0.155,
289,-0.46,0.135,
290,-0.465,0.12,
291,-0.485,0.12,
292,-0.485,0.12,
293,-0.47,0.125,
294,-0.455,0.125,
295,-0.45,0.13,
296,-0.46,0.11,
297,-0.46,0.105,
298,-0.45,0.12,
299,-0.44,0.125,
300,-0.435,0.125,
301,-0.455,0.12,
302,-0.475,0.1,
303,-0.48,0.105,
304,-0.475,0.11,
305,-0.445,0.11,
306,-0.43,0.11,
307,-0.47,0.1,
308,-0.49,0.08,
309,-0.505,0.075,
310,-0.485,0.105,
311,-0.445,0.105,
312,-0.425,0.095,
313,-0.43,0.08,
314,-0.45,0.075,
315,-0.47,0.06,
316,-0.465,0.07,
317,-0.455,0.085,
318,-0.44,0.085,
319,-0.46,0.075,
320,-0.485,0.085,
321,-0.485,0.085,
322,-0.495,0.1,
323,-0.485,0.155,
324,-0.495,0.16,
325,-0.495,0.17,
326,-0.485,0.155,
327,-0.415,0.125,
328,-0.315,0.09,
329,-0.205,0.07,
330,-0.125,-0.01,
331,-0.085,-0.09,
332,-0.05,-0.165,
333,-0.035,-0.235,
334,0.03,-0.325,
335,0.14,-0.465,
336,0.255,-0.61,
337,0.315,-0.745,
338,0.37,-0.84,
339,0.395,-0.875,
340,0.4,-0.885,
341,0.39,-0.885,
342,0.395,-0.87,
343,0.365,-0.845,L
344,0.345,-0.81,
345,0.29,-0.755,
346,0.22,-0.695,
347,0.19,-0.63,
348,0.17,-0.575,
349,0.105,-0.525,
350,0.02,-0.48,
351,-0.065,-0.44,
352,-0.17,-0.38,
353,-0.305,-0.345,
354,-0.415,-0.31,
355,-0.555,-0.285,
356,-0.665,-0.28,
357,-0.75,-0.245,
358,-0.805,-0.21,
359,-0.845,-0.185,
360,-0.885,-0.16,
361,-0.91,-0.15,
362,-0.905,-0.15,
363,-0.91,-0.12,
364,-0.925,-0.085,
365,-0.905,-0.045,
366,-0.88,-0.025,
367,-0.85,-0.01,
368,-0.84,-0.005,
369,-0.83,0.0,
370,-0.83,0.035,
371,-0.81,0.055,
372,-0.77,0.06,
373,-0.76,0.06,
374,-0.745,0.07,
375,-0.73,0.07,
376,-0.71,0.085,
377,-0.71,0.09,
378,-0.68,0.1,
379,-0.69,0.11,
380,-0.69,0.09,
381,-0.695,0.09,
382,-0.695,0.095,
383,-0.7,0.1,
384,-0.69,0.1,
385,-0.695,0.1,
386,-0.71,0.095,
387,-0.705,0.09,
388,-0.715,0.095,
389,-0.715,0.12,
390,-0.71,0.11,
391,-0.72,0.115,
392,-0.725,0.1,
393,-0.735,0.11,
394,-0.735,0.11,
395,-0.715,0.12,
396,-0.71,0.135,
397,-0.72,0.145,
398,-0.735,0.12,
399,-0.75,0.13,
400,-0.755,0.125,
401,-0.74,0.13,
402,-0.72,0.14,
403,-0.73,0.15,
404,-0.735,0.12,
405,-0.735,0.13,
406,-0.74,0.13,
407,-0.73,0.145,
408,-0.7,0.135,
409,-0.71,0.14,
410,-0.71,0.13,
411,-0.715,0.125,
412,-0.72,0.135,
413,-0.695,0.155,
414,-0.675,0.155,
415,-0.665,0.155,
416,-0.655,0.135,
417,-0.665,0.115,
418,-0.66,0.11,
419,-0.655,0.115,
420,-0.625,0.13,
421,-0.605,0.125,
422,-0.605,0.125,
423,-0.605,0.12,
424,-0.605,0.11,
425,-0.59,0.115,
426,-0.555,0.12,
427,-0.535,0.105,
428,-0.53,0.095,
429,-0.525,0.085,
430,-0.53,0.07,
431,-0.505,0.095,
432,-0.47,0.075,
433,-0.455,0.075,
434,-0.46,0.045,
435,-0.455,0.035,
436,-0.45,0.04,
437,-0.42,0.035,
438,-0.4,0.035,
439,-0.4,0.035,
440,-0.39,0.015,
441,-0.39,-0.005,
442,-0.39,0.0,
443,-0.38,-0.005,
444,-0.37,-0.005,
445,-0.365,-0.02,
446,-0.37,-0.06,
447,-0.365,-0.055,
448,-0.355,-0.06,
449,-0.345,-0.055,
450,-0.315,-0.07,
451,-0.315,-0.08,
452,-0.32,-0.1,
453,-0.34,-0.105,
454,-0.345,-0.11,
455,-0.34,-0.105,
456,-0.315,-0.115,
457,-0.31,-0.115,
458,-0.295,-0.115,
459,-0.285,-0.13,
460,-0.27,-0.135,
461,-0.27,-0.135,
462,-0.295,-0.14,
463,-0.31,-0.135,
464,-0.32,-0.14,
465,-0.34,-0.135,
466,-0.36,-0.14,
467,-0.365,-0.14,
468,-0.36,-0.135,
469,-0.36,-0.135,
470,-0.355,-0.15,
471,-0.36,-0.145,
472,-0.36,-0.145,
473,-0.335,-0.13,
474,-0.31,-0.125,
475,-0.31,-0.14,
476,-0.295,-0.165,
477,-0.3,-0.165,
478,-0.29,-0.19,
479,-0.31,-0.175,
480,-0.335,-0.185,
481,-0.365,-0.18,
482,-0.375,-0.18,
483,-0.4,-0.16,
484,-0.4,-0.15,
485,-0.39,-0.125,
486,-0.37,-0.115,
487,-0.385,-0.11,
488,-0.375,-0.13,
489,-0.385,-0.14,
490,-0.39,-0.14,
491,-0.385,-0.135,
492,-0.375,-0.125,
493,-0.41,-0.135,
494,-0.455,-0.135,
495,-0.49,-0.11,
496,-0.535,-0.08,
497,-0.55,-0.05,
498,-0.57,-0.06,
499,-0.59,-0.06,
500,-0.605,-0.095,
501,-0.62,-0.12,
502,-0.62,-0.13,
503,-0.61,-0.13,
504,-0.595,-0.155,
505,-0.615,-0.155,
506,-0.61,-0.165,
507,-0.62,-0.18,
508,-0.615,-0.165,
509,-0.62,-0.175,
510,-0.615,-0.185,
511,-0.64,-0.175,
512,-0.655,-0.175,
513,-0.665,-0.185,
514,-0.665,-0.165,
515,-0.645,-0.15,
516,-0.63,-0.165,
517,-0.63,-0.185,
518,-0.64,-0.19,
519,-0.64,-0.19,
520,-0.635,-0.17,
521,-0.59,-0.145,
522,-0.57,-0.135,
523,-0.57,-0.16,
524,-0.59,-0.18,
525,-0.615,-0.205,
526,-0.625,-0.19,
527,-0.625,-0.16,
528,-0.63,-0.155,
529,-0.63,-0.155,
530,-0.605,-0.155,
531,-0.61,-0.155,
532,-0.605,-0.12,
533,-0.62,-0.085,
534,-0.61,-0.06,
535,-0.59,-0.04,
536,-0.555,0.0,
537,-0.54,0.005,
538,-0.54,0.01,
539,-0.575,-0.015,
540,-0.59,-0.055,
541,-0.62,-0.1,
542,-0.655,-0.155,
543,-0.665,-0.215,
544,-0.68,-0.235,
545,-0.645,-0.25,
546,-0.6,-0.255,
547,-0.62,-0.27,
548,-0.655,-0.25,
549,-0.72,-0.23,
550,-0.74,-0.17,
551,-0.74,-0.15,
552,-0.72,-0.14,
553,-0.665,-0.155,
554,-0.575,-0.185,
555,-0.445,-0.225,
556,-0.34,-0.26,
557,-0.23,-0.32,
558,-0.145,-0.385,
559,-0.095,-0.445,
560,-0.05,-0.5,
561,-0.005,-0.58,
562,0.075,-0.67,
563,0.2,-0.8,
564,0.305,-0.92,
565,0.41,-1.045,
566,0.5,-1.155,
567,0.56,-1.215,
568,0.59,-1.225,
569,0.585,-1.225,
570,0.585,-1.23,
571,0.555,-1.21,L
572,0.535,-1.18,
573,0.48,-1.125,
574,0.385,-1.055,
575,0.31,-0.98,
576,0.225,-0.9,
577,0.16,-0.795,
578,0.085,-0.745,
579,0.035,-0.69,
580,-0.05,-0.635,
581,-0.185,-0.53,
582,-0.365,-0.455,
583,-0.575,-0.365,
584,-0.76,-0.32,
585,-0.905,-0.285,
586,-1.025,-0.255,
587,-1.11,-0.22,
588,-1.15,-0.26,
589,-1.19,-0.345,
590,-1.205,-0.445,
591,-1.2,-0.505,
592,-1.205,-0.515,
593,-1.18,-0.52,
594,-1.165,-0.505,
595,-1.15,-0.5,
596,-1.125,-0.505,
597,-1.14,-0.47,
598,-1.155,-0.405,
599,-1.165,-0.325,
600,-1.155,-0.28,
601,-1.13,-0.255,
602,-1.095,-0.26,
603,-1.06,-0.25,
604,-1.01,-0.23,
605,-0.98,-0.195,
606,-0.965,-0.175,
607,-0.975,-0.165,
608,-0.98,-0.155,
609,-0.995,-0.16,
610,-0.99,-0.145,
611,-0.985,-0.145,
612,-0.975,-0.145,
613,-0.98,-0.15,
614,-0.96,-0.18,
615,-0.925,-0.175,
616,-0.915,-0.18,
617,-0.91,-0.15,
618,-0.935,-0.16,
619,-0.985,-0.155,
620,-1.005,-0.165,
621,-1.03,-0.15,
622,-1.055,-0.14,
623,-1.06,-0.15,
624,-1.07,-0.13,
625,-1.075,-0.125,
626,-1.08,-0.105,
627,-1.085,-0.105,
628,-1.08,-0.085,
629,-1.055,-0.075,
630,-1.04,-0.05,
631,-1.04,-0.05,
632,-1.025,-0.075,
633,-1.035,-0.08,
634,-1.04,-0.055,
635,-1.03,-0.02,
636,-1.025,-0.015,
637,-1.01,-0.02,
638,-1.01,-0.08,
639,-1.01,-0.135,
640,-1.01,-0.145,
641,-0.995,-0.115,
642,-0.98,-0.04,
643,-0.995,0.045,
644,-1.005,0.1,
645,-1.015,0.09,
646,-1.0,0.06,
647,-0.95,-0.015,
648,-0.915,-0.095,
649,-0.875,-0.175,
650,-0.885,-0.235,
651,-0.935,-0.26,
652,-0.96,-0.265,
653,-0.955,-0.255,
654,-0.925,-0.23,
655,-0.875,-0.205,
656,-0.835,-0.2,
657,-0.835,-0.19,
658,-0.855,-0.16,
659,-0.865,-0.155,
660,-0.88,-0.14,
661,-0.88,-0.15,
662,-0.87,-0.16,
663,-0.835,-0.18,
664,-0.815,-0.165,
665,-0.8,-0.155,
666,-0.78,-0.145,
667,-0.76,-0.14,
668,-0.74,-0.18,
669,-0.72,-0.2,
670,-0.72,-0.2,
671,-0.71,-0.19,
672,-0.69,-0.19,
673,-0.685,-0.225,
674,-0.675,-0.24,
675,-0.685,-0.235,
676,-0.635,-0.21,
677,-0.6,-0.195,
678,-0.565,-0.205,
679,-0.57,-0.22,
680,-0.595,-0.22,
681,-0.605,-0.225,
682,-0.59,-0.25,
683,-0.555,-0.26,
684,-0.545,-0.265,
685,-0.555,-0.27,
686,-0.56,-0.29,
687,-0.565,-0.31,
688,-0.58,-0.315,
689,-0.57,-0.3,
690,-0.55,-0.265,
691,-0.515,-0.25,
692,-0.465,-0.24,
693,-0.46,-0.275,
694,-0.465,-0.315,
695,-0.495,-0.365,
696,-0.545,-0.41,
697,-0.58,-0.41,
698,-0.57,-0.415,
699,-0.565,-0.415,
700,-0.55,-0.385,
701,-0.51,-0.36,
702,-0.5,-0.345,
703,-0.515,-0.34,
704,-0.58,-0.355,
705,-0.615,-0.39,
706,-0.605,-0.41,
707,-0.56,-0.4,
708,-0.54,-0.385,
709,-0.55,-0.37,
710,-0.6,-0.37,
711,-0.64,-0.375,
712,-0.66,-0.38,
713,-0.64,-0.37,
714,-0.605,-0.355,
715,-0.595,-0.35,
716,-0.575,-0.34,
717,-0.58,-0.34,
718,-0.615,-0.335,
719,-0.63,-0.32,
720,-0.625,-0.35,
721,-0.61,-0.36,
722,-0.6,-0.385,
723,-0.61,-0.375,
724,-0.63,-0.33,
725,-0.62,-0.26,
726,-0.61,-0.21,
727,-0.615,-0.2,
728,-0.635,-0.23,
729,-0.665,-0.305,
730,-0.705,-0.325,
731,-0.735,-0.345,
732,-0.765,-0.355,
733,-0.81,-0.365,
734,-0.815,-0.35,
735,-0.815,-0.325,
736,-0.805,-0.27,
737,-0.795,-0.25,
738,-0.815,-0.3,
739,-0.86,-0.365,
740,-0.885,-0.42,
741,-0.885,-0.425,
742,-0.855,-0.41,
743,-0.83,-0.395,
744,-0.82,-0.375,
745,-0.845,-0.385,
746,-0.87,-0.41,
747,-0.845,-0.43,
748,-0.82,-0.42,
749,-0.805,-0.395,
750,-0.82,-0.38,
751,-0.84,-0.385,
752,-0.865,-0.395,
753,-0.855,-0.4,
754,-0.86,-0.395,
755,-0.85,-0.38,
756,-0.8,-0.38,
757,-0.775,-0.385,
758,-0.77,-0.4,
759,-0.795,-0.405,
760,-0.845,-0.405,
761,-0.87,-0.405,
762,-0.87,-0.425,
763,-0.875,-0.455,
764,-0.89,-0.495,
765,-0.915,-0.46,
766,-0.915,-0.425,
767,-0.89,-0.36,
768,-0.85,-0.32,
769,-0.84,-0.31,
770,-0.855,-0.335,
771,-0.88,-0.365,
772,-0.895,-0.37,
773,-0.9,-0.35,
774,-0.865,-0.32,
775,-0.85,-0.315,
776,-0.855,-0.345,
777,-0.86,-0.365,
778,-0.895,-0.365,
779,-0.91,-0.345,
780,-0.885,-0.32,
781,-0.85,-0.33,
782,-0.83,-0.35,
783,-0.84,-0.385,
784,-0.85,-0.405,
785,-0.86,-0.375,
786,-0.87,-0.365,
787,-0.9,-0.345,
788,-0.93,-0.335,
789,-0.965,-0.345,
790,-0.93,-0.34,
791,-0.83,-0.34,
792,-0.655,-0.39,
793,-0.48,-0.44,
794,-0.36,-0.495,
795,-0.295,-0.575,
796,-0.23,-0.665,
797,-0.2,-0.715,
798,-0.18,-0.78,
799,-0.145,-0.87,
800,-0.08,-0.965,
801,-0.025,-1.08,
802,0.06,-1.225,
803,0.145,-1.34,
804,0.205,-1.435,
805,0.21,-1.495,
806,0.185,-1.525,
807,0.14,-1.505,L
808,0.1,-1.48,
809,0.075,-1.44,
810,0.05,-1.4,
811,-0.015,-1.37,
812,-0.095,-1.325,
813,-0.175,-1.275,
814,-0.24,-1.21,
815,-0.295,-1.16,
816,-0.355,-1.115,
817,-0.45,-1.1,
818,-0.545,-1.04,
819,-0.67,-0.975,
820,-0.84,-0.9,
821,-0.995,-0.845,
822,-1.13,-0.805,
823,-1.24,-0.77,
824,-1.345,-0.755,
825,-1.46,-0.735,
826,-1.525,-0.675,
827,-1.555,-0.63,
828,-1.575,-0.605,
829,-1.58,-0.6,
830,-1.565,-0.6,
831,-1.545,-0.575,
832,-1.505,-0.545,
833,-1.495,-0.505,
834,-1.465,-0.49,
835,-1.47,-0.485,
836,-1.45,-0.485,
837,-1.43,-0.465,
838,-1.405,-0.425,
839,-1.375,-0.4,
840,-1.325,-0.38,
841,-1.3,-0.37,
842,-1.3,-0.365,
843,-1.295,-0.365,
844,-1.27,-0.35,
845,-1.24,-0.335,
846,-1.205,-0.305,
847,-1.19,-0.31,
848,-1.16,-0.31,
849,-1.155,-0.315,
850,-1.145,-0.305,
851,-1.13,-0.28,
852,-1.1,-0.28,
853,-1.105,-0.285,
854,-1.115,-0.295,
855,-1.12,-0.295,
856,-1.12,-0.295,
857,-1.11,-0.275,
858,-1.1,-0.265,
859,-1.1,-0.275,
860,-1.12,-0.29,
861,-1.115,-0.295,
862,-1.11,-0.265,
863,-1.1,-0.245,
864,-1.095,-0.235,
865,-1.095,-0.24,
866,-1.095,-0.26,
867,-1.1,-0.26,
868,-1.095,-0.24,
869,-1.1,-0.235,
870,-1.095,-0.245,
871,-1.11,-0.235,
872,-1.11,-0.24,
873,-1.11,-0.245,
874,-1.1,-0.245,
875,-1.09,-0.225,
876,-1.08,-0.225,
877,-1.085,-0.235,
878,-1.09,-0.24,
879,-1.09,-0.235,
880,-1.085,-0.225,
881,-1.07,-0.225,
882,-1.06,-0.215,
883,-1.065,-0.2,
884,-1.07,-0.21,
885,-1.07,-0.22,
886,-1.07,-0.205,
887,-1.045,-0.205,
888,-1.02,-0.21,
889,-1.02,-0.215,
890,-1.03,-0.205,
891,-1.02,-0.215,
892,-1.03,-0.21,
893,-0.99,-0.205,
894,-0.965,-0.21,
895,-0.96,-0.2,
896,-0.965,-0.21,
897,-0.955,-0.235,
898,-0.96,-0.215,
899,-0.93,-0.21,
900,-0.9,-0.21,
901,-0.905,-0.215,
902,-0.89,-0.22,
903,-0.885,-0.24,
904,-0.865,-0.235,
905,-0.855,-0.205,
906,-0.835,-0.22,
907,-0.825,-0.22,
908,-0.82,-0.23,
909,-0.815,-0.24,
910,-0.805,-0.245,
911,-0.79,-0.24,
912,-0.76,-0.245,
913,-0.755,-0.245,
914,-0.735,-0.26,
915,-0.74,-0.28,
916,-0.725,-0.275,
917,-0.72,-0.27,
918,-0.7,-0.265,
919,-0.69,-0.28,
920,-0.675,-0.29,
921,-0.675,-0.3,
922,-0.675,-0.31,
923,-0.655,-0.305,
924,-0.635,-0.33,
925,-0.635,-0.315,
926,-0.64,-0.33,
927,-0.645,-0.33,
928,-0.64,-0.335,
929,-0.625,-0.33,
930,-0.615,-0.325,
931,-0.6,-0.345,
932,-0.61,-0.355,
933,-0.61,-0.36,
934,-0.6,-0.345,
935,-0.575,-0.35,
936,-0.57,-0.355,
937,-0.575,-0.36,
938,-0.57,-0.37,
939,-0.575,-0.385,
940,-0.565,-0.375,
941,-0.555,-0.375,
942,-0.56,-0.38,
943,-0.56,-0.39,
944,-0.55,-0.405,
945,-0.575,-0.43,
946,-0.585,-0.43,
947,-0.595,-0.42,
948,-0.61,-0.44,
949,-0.6,-0.435,
950,-0.6,-0.455,
951,-0.59,-0.46,
952,-0.58,-0.435,
953,-0.57,-0.435,
954,-0.55,-0.435,
955,-0.545,-0.445,
956,-0.55,-0.46,
957,-0.565,-0.475,
958,-0.57,-0.45,
959,-0.555,-0.44,
960,-0.54,-0.435,
961,-0.555,-0.445,
962,-0.575,-0.435,
963,-0.585,-0.445,
964,-0.585,-0.44,
965,-0.585,-0.44,
966,-0.57,-0.445,
967,-0.56,-0.45,
968,-0.565,-0.47,
969,-0.58,-0.455,
970,-0.59,-0.455,
971,-0.6,-0.45,
972,-0.615,-0.445,
973,-0.65,-0.475,
974,-0.695,-0.5,
975,-0.735,-0.535,
976,-0.77,-0.55,
977,-0.785,-0.545,
978,-0.79,-0.505,
979,-0.82,-0.46,
980,-0.84,-0.41,
981,-0.86,-0.41,
982,-0.865,-0.39,
983,-0.87,-0.37,
984,-0.88,-0.35,
985,-0.87,-0.34,
986,-0.88,-0.34,
987,-0.885,-0.34,
988,-0.89,-0.34,
989,-0.865,-0.33,
990,-0.855,-0.35,
991,-0.87,-0.37,
992,-0.87,-0.37,
993,-0.87,-0.395,
994,-0.87,-0.39,
995,-0.865,-0.385,
996,-0.855,-0.375,
997,-0.85,-0.37,
998,-0.86,-0.39,
999,-0.85,-0.39,
1000,-0.845,-0.375,
1001,-0.83,-0.385,
1002,-0.84,-0.38,
1003,-0.835,-0.38,
1004,-0.835,-0.39,
1005,-0.83,-0.365,
1006,-0.825,-0.365,
1007,-0.815,-0.36,
1008,-0.815,-0.37,
1009,-0.815,-0.38,
1010,-0.83,-0.385,
1011,-0.815,-0.365,
1012,-0.825,-0.35,
1013,-0.8,-0.35,
1014,-0.795,-0.36,
1015,-0.815,-0.36,
1016,-0.82,-0.365,
1017,-0.81,-0.34,
1018,-0.8,-0.325,
1019,-0.79,-0.33,
1020,-0.795,-0.33,
1021,-0.805,-0.335,
1022,-0.8,-0.33,
1023,-0.8,-0.3,
1024,-0.81,-0.285,
1025,-0.815,-0.26,
1026,-0.815,-0.235,
1027,-0.83,-0.22,
1028,-0.845,-0.215,
1029,-0.83,-0.2,
1030,-0.78,-0.195,
1031,-0.675,-0.22,
1032,-0.58,-0.27,
1033,-0.485,-0.34,
1034,-0.4,-0.41,
1035,-0.35,-0.48,
1036,-0.33,-0.545,
1037,-0.295,-0.595,
1038,-0.25,-0.7,
1039,-0.155,-0.83,
1040,-0.07,-0.995,
1041,-0.01,-1.135,
1042,0.08,-1.24,
1043,0.135,-1.3,
1044,0.145,-1.33,
1045,0.13,-1.345,
1046,0.125,-1.33,
1047,0.115,-1.305,
1048,0.115,-1.25,L
1049,0.1,-1.19,
1050,0.045,-1.12,
1051,-0.01,-1.08,
1052,-0.085,-1.04,
1053,-0.13,-0.97,
1054,-0.16,-0.905,
1055,-0.21,-0.885,
1056,-0.275,-0.84,
1057,-0.385,-0.835,
1058,-0.495,-0.835,
1059,-0.63,-0.805,
1060,-0.75,-0.715,
1061,-0.86,-0.6,
1062,-1.01,-0.495,
1063,-1.115,-0.45,
1064,-1.19,-0.415,
1065,-1.23,-0.385,
1066,-1.23,-0.36,
1067,-1.24,-0.34,
1068,-1.24,-0.315,
1069,-1.245,-0.29,
1070,-1.235,-0.27,
1071,-1.24,-0.24,
1072,-1.24,-0.205,
1073,-1.22,-0.19,
1074,-1.195,-0.185,
1075,-1.17,-0.155,
1076,-1.14,-0.12,
1077,-1.125,-0.075,
1078,-1.1,-0.035,
1079,-1.075,0.0,
1080,-1.045,0.025,
1081,-1.04,0.03,
1082,-1.03,0.045,
1083,-1.0,0.075,
1084,-0.95,0.095,
1085,-0.925,0.115,
1086,-0.92,0.13,
1087,-0.915,0.135,
1088,-0.91,0.125,
1089,-0.905,0.11,
1090,-0.895,0.13,
1091,-0.885,0.165,
1092,-0.87,0.18,
1093,-0.88,0.215,
1094,-0.91,0.225,
1095,-0.91,0.235,
1096,-0.895,0.24,
1097,-0.875,0.255,
1098,-0.89,0.24,
1099,-0.885,0.25,
1100,-0.89,0.245,
1101,-0.89,0.255,
1102,-0.87,0.265,
1103,-0.86,0.275,
1104,-0.89,0.275,
1105,-0.89,0.3,
1106,-0.915,0.315,
1107,-0.89,0.34,
1108,-0.87,0.385,
1109,-0.87,0.38,
1110,-0.86,0.39,
1111,-0.885,0.365,
1112,-0.875,0.375,
1113,-0.885,0.4,
1114,-0.88,0.435,
1115,-0.86,0.45,
1116,-0.855,0.455,
1117,-0.865,0.44,
1118,-0.87,0.44,
1119,-0.875,0.48,
1120,-0.86,0.525,
1121,-0.84,0.55,
1122,-0.84,0.56,
1123,-0.82,0.535,
1124,-0.85,0.54,
1125,-0.84,0.55,
1126,-0.82,0.55,
1127,-0.81,0.56,
1128,-0.82,0.565,
1129,-0.8,0.555,
1130,-0.79,0.55,
1131,-0.765,0.565,
1132,-0.755,0.585,
1133,-0.73,0.6,
1134,-0.73,0.605,
1135,-0.725,0.595,
1136,-0.735,0.605,
1137,-0.715,0.615,
1138,-0.7,0.635,
1139,-0.68,0.63,
1140,-0.675,0.625,
1141,-0.68,0.62,
1142,-0.675,0.62,
1143,-0.67,0.62,
1144,-0.65,0.65,
1145,-0.62,0.66,
1146,-0.6,0.665,
1147,-0.61,0.64,
1148,-0.59,0.64,
1149,-0.585,0.655,
1150,-0.58,0.68,
1151,-0.54,0.67,
1152,-0.53,0.665,
1153,-0.535,0.66,
1154,-0.535,0.65,
1155,-0.525,0.66,
1156,-0.51,0.675,
1157,-0.49,0.675,
1158,-0.47,0.655,
1159,-0.465,0.645,
1160,-0.465,0.65,
1161,-0.47,0.645,
1162,-0.45,0.665,
1163,-0.42,0.66,
1164,-0.42,0.66,
1165,-0.43,0.65,
1166,-0.44,0.65,
1167,-0.44,0.665,
1168,-0.425,0.67,
1169,-0.405,0.675,
1170,-0.41,0.67,
1171,-0.41,0.665,
1172,-0.4,0.67,
1173,-0.39,0.685,
1174,-0.38,0.695,
1175,-0.385,0.69,
1176,-0.375,0.7,
1177,-0.385,0.69,
1178,-0.38,0.715,
1179,-0.35,0.71,
1180,-0.355,0.74,
1181,-0.35,0.75,
1182,-0.375,0.73,
1183,-0.385,0.715,
1184,-0.405,0.71,
1185,-0.41,0.715,
1186,-0.39,0.72,
1187,-0.37,0.725,
1188,-0.37,0.735,
1189,-0.38,0.715,
1190,-0.39,0.705,
1191,-0.375,0.71,
1192,-0.36,0.73,
1193,-0.36,0.73,
1194,-0.36,0.735,
1195,-0.38,0.735,
1196,-0.38,0.745,
1197,-0.375,0.76,
1198,-0.38,0.78,
1199,-0.365,0.785,
1200,-0.395,0.81,
1201,-0.385,0.8,
1202,-0.39,0.79,
1203,-0.415,0.81,
1204,-0.39,0.815,
1205,-0.37,0.83,
1206,-0.36,0.83,
1207,-0.365,0.825,
1208,-0.39,0.835,
1209,-0.42,0.845,
1210,-0.435,0.87,
1211,-0.45,0.85,
1212,-0.485,0.845,
1213,-0.51,0.835,
1214,-0.545,0.865,
1215,-0.58,0.89,
1216,-0.595,0.925,
1217,-0.605,0.945,
1218,-0.615,0.945,
1219,-0.62,0.93,
1220,-0.64,0.93,
1221,-0.64,0.945,
1222,-0.63,0.945,
1223,-0.635,0.95,
1224,-0.65,0.955,
1225,-0.66,0.95,
1226,-0.68,0.935,
1227,-0.675,0.96,
1228,-0.67,0.945,
1229,-0.665,0.945,
1230,-0.655,0.945,
1231,-0.66,0.935,
1232,-0.68,0.94,
1233,-0.695,0.945,
1234,-0.685,0.96,
1235,-0.685,0.955,
1236,-0.69,0.96,
1237,-0.675,0.955,
1238,-0.685,0.96,
1239,-0.685,0.96,
1240,-0.685,0.97,
1241,-0.67,0.965,
1242,-0.665,0.955,
1243,-0.66,0.95,
1244,-0.68,0.94,
1245,-0.685,0.955,
1246,-0.68,0.97,
1247,-0.665,0.96,
1248,-0.66,0.945,
1249,-0.68,0.95,
1250,-0.695,0.97,
1251,-0.685,0.99,
1252,-0.665,1.015,
1253,-0.65,1.01,
1254,-0.65,0.99,
1255,-0.655,0.975,
1256,-0.665,0.98,
1257,-0.665,0.97,
1258,-0.655,0.99,
1259,-0.64,0.985,
1260,-0.64,0.985,
1261,-0.65,0.995,
1262,-0.665,0.995,
1263,-0.65,1.025,
1264,-0.65,1.045,
1265,-0.67,1.055,
1266,-0.685,1.085,
1267,-0.715,1.105,
1268,-0.705,1.11,
1269,-0.675,1.125,
1270,-0.595,1.115,
1271,-0.49,1.08,
1272,-0.385,1.02,
1273,-0.285,0.96,
1274,-0.205,0.88,
1275,-0.175,0.79,
1276,-0.14,0.75,
1277,-0.075,0.675,
1278,0.02,0.545,
1279,0.105,0.365,
1280,0.19,0.21,
1281,0.26,0.075,
1282,0.32,0.0,
1283,0.375,-0.035,
1284,0.38,-0.04,
1285,0.36,-0.035,
1286,0.35,-0.045,
1287,0.325,-0.01,L
1288,0.315,0.04,
1289,0.3,0.08,
1290,0.23,0.135,
1291,0.145,0.18,
1292,0.055,0.235,
1293,-0.005,0.29,
1294,-0.055,0.35,
1295,-0.145,0.405,
1296,-0.25,0.46,
1297,-0.41,0.505,
1298,-0.555,0.56,
1299,-0.7,0.6,
1300,-0.815,0.64,
1301,-0.925,0.655,
1302,-1.01,0.69,
1303,-1.08,0.71,
1304,-1.125,0.735,
1305,-1.155,0.76,
1306,-1.16,0.785,
1307,-1.16,0.8,
1308,-1.155,0.83,
1309,-1.155,0.835,
1310,-1.165,0.845,
1311,-1.135,0.89,
1312,-1.1,0.915,
1313,-1.055,0.93,
1314,-1.035,0.955,
1315,-1.015,0.97,
1316,-1.01,0.965,
1317,-0.985,0.995,
1318,-0.96,1.02,
1319,-0.935,1.025,
1320,-0.9,1.025,
1321,-0.895,1.035,
1322,-0.91,1.045,
1323,-0.88,1.065,
1324,-0.865,1.07,
1325,-0.825,1.065,
1326,-0.815,1.06,
1327,-0.81,1.05,
1328,-0.815,1.05,
1329,-0.82,1.045,
1330,-0.825,1.06,
1331,-0.81,1.05,
1332,-0.82,1.04,
1333,-0.825,1.035,
1334,-0.825,1.04,
1335,-0.815,1.045,
1336,-0.82,1.04,
1337,-0.81,1.05,
1338,-0.81,1.04,
1339,-0.815,1.045,
1340,-0.83,1.03,
1341,-0.82,1.05,
1342,-0.81,1.03,
1343,-0.805,1.04,
1344,-0.805,1.04,
1345,-0.815,1.02,
1346,-0.825,1.015,
1347,-0.835,1.03,
1348,-0.82,1.035,
1349,-0.795,1.03,
1350,-0.795,1.03,
1351,-0.805,1.02,
1352,-0.805,1.005,
1353,-0.815,1.005,
1354,-0.795,1.015,
1355,-0.8,1.01,
1356,-0.785,1.005,
1357,-0.78,0.985,
1358,-0.79,0.985,
1359,-0.78,0.985,
1360,-0.77,0.995,
1361,-0.75,0.99,
1362,-0.75,0.985,
1363,-0.755,0.955,
1364,-0.745,0.94,
1365,-0.72,0.95,
1366,-0.69,0.95,
1367,-0.69,0.935,
1368,-0.68,0.93,
1369,-0.685,0.91,
1370,-0.685,0.88,
1371,-0.665,0.9,
1372,-0.64,0.9,
1373,-0.615,0.89,
1374,-0.605,0.875,
1375,-0.61,0.86,
1376,-0.61,0.845,
1377,-0.595,0.835,
1378,-0.595,0.825,
1379,-0.575,0.825,
1380,-0.545,0.815,
1381,-0.535,0.805,
1382,-0.545,0.78,
1383,-0.515,0.785,
1384,-0.5,0.79,
1385,-0.49,0.78,
1386,-0.475,0.755,
1387,-0.46,0.725,
1388,-0.46,0.705,
1389,-0.45,0.705,
1390,-0.435,0.71,
1391,-0.42,0.685,
1392,-0.42,0.67,
1393,-0.425,0.665,
1394,-0.4,0.645,
1395,-0.405,0.635,
1396,-0.4,0.63,
1397,-0.375,0.605,
1398,-0.37,0.59,
1399,-0.38,0.575,
1400,-0.385,0.555,
1401,-0.36,0.555,
1402,-0.365,0.545,
1403,-0.335,0.53,
1404,-0.34,0.515,
1405,-0.33,0.48,
1406,-0.335,0.48,
1407,-0.335,0.485,
1408,-0.31,0.48,
1409,-0.315,0.47,
1410,-0.305,0.465,
1411,-0.32,0.425,
1412,-0.335,0.42,
1413,-0.33,0.435,
1414,-0.31,0.425,
1415,-0.3,0.405,
1416,-0.315,0.38,
1417,-0.33,0.36,
1418,-0.36,0.35,
1419,-0.375,0.34,
1420,-0.37,0.35,
1421,-0.325,0.335,
1422,-0.315,0.33,
1423,-0.315,0.325,
1424,-0.33,0.31,
1425,-0.335,0.31,
1426,-0.31,0.305,
1427,-0.31,0.3,
1428,-0.315,0.295,
1429,-0.305,0.28,
1430,-0.315,0.265,
1431,-0.325,0.27,
1432,-0.32,0.28,
1433,-0.325,0.28,
1434,-0.345,0.265,
1435,-0.36,0.25,
1436,-0.385,0.255,
1437,-0.37,0.275,
1438,-0.355,0.265,
1439,-0.355,0.255,
1440,-0.365,0.275,
1441,-0.365,0.255,
1442,-0.375,0.24,
1443,-0.405,0.24,
1444,-0.435,0.24,
1445,-0.45,0.245,
1446,-0.49,0.255,
1447,-0.535,0.25,
1448,-0.585,0.24,
1449,-0.585,0.245,
1450,-0.595,0.265,
1451,-0.6,0.24,
1452,-0.61,0.225,
1453,-0.615,0.215,
1454,-0.615,0.195,
1455,-0.615,0.2,
1456,-0.62,0.22,
1457,-0.605,0.215,
1458,-0.605,0.195,
1459,-0.62,0.175,
1460,-0.625,0.16,
1461,-0.625,0.165,
1462,-0.625,0.165,
1463,-0.61,0.155,
1464,-0.595,0.155,
1465,-0.61,0.135,
1466,-0.61,0.135,
1467,-0.61,0.13,
1468,-0.6,0.14,
1469,-0.59,0.13,
1470,-0.595,0.13,
1471,-0.59,0.105,
1472,-0.61,0.09,
1473,-0.62,0.1,
1474,-0.6,0.095,
1475,-0.585,0.1,
1476,-0.595,0.075,
1477,-0.605,0.08,
1478,-0.61,0.065,
1479,-0.615,0.07,
1480,-0.605,0.085,
1481,-0.58,0.065,
1482,-0.595,0.06,
1483,-0.595,0.045,
1484,-0.6,0.05,
1485,-0.6,0.05,
1486,-0.595,0.045,
1487,-0.58,0.04,
1488,-0.575,0.045,
1489,-0.58,0.02,
1490,-0.585,0.015,
1491,-0.575,0.015,
1492,-0.565,0.005,
1493,-0.55,-0.015,
1494,-0.555,-0.01,
1495,-0.565,0.0,
1496,-0.59,0.0,
1497,-0.58,0.035,
1498,-0.565,0.045,
1499,-0.555,0.06,
1500,-0.57,0.07,
1501,-0.575,0.06,
1502,-0.59,0.06,
1503,-0.57,0.06,
1504,-0.505,0.035,
1505,-0.405,0.0,
1506,-0.28,-0.065,
1507,-0.15,-0.14,
1508,0.0,-0.235,
1509,0.115,-0.305,
1510,0.145,-0.39,
1511,0.14,-0.455,
1512,0.15,-0.535,
1513,0.175,-0.63,
1514,0.205,-0.785,
1515,0.25,-0.915,
1516,0.32,-1.03,
1517,0.41,-1.14,
1518,0.46,-1.21,
1519,0.48,-1.24,
1520,0.475,-1.245,
1521,0.47,-1.24,
1522,0.48,-1.215,
1523,0.475,-1.175,L
1524,0.44,-1.135,
1525,0.35,-1.085,
1526,0.255,-1.03,
1527,0.17,-0.965,
1528,0.09,-0.895,
1529,0.035,-0.855,
1530,-0.055,-0.79,
1531,-0.18,-0.765,
1532,-0.34,-0.7,
1533,-0.485,-0.645,
1534,-0.61,-0.595,
1535,-0.705,-0.56,
1536,-0.815,-0.535,
1537,-0.915,-0.505,
1538,-1.015,-0.485,
1539,-1.06,-0.435,
1540,-1.08,-0.405,
1541,-1.085,-0.375,
1542,-1.085,-0.365,
1543,-1.09,-0.375,
1544,-1.08,-0.345,
1545,-1.075,-0.315,
1546,-1.055,-0.28,
1547,-1.035,-0.26,
1548,-1.025,-0.245,
1549,-0.99,-0.235,
1550,-0.965,-0.215,
1551,-0.925,-0.2,
1552,-0.89,-0.155,
1553,-0.855,-0.145,
1554,-0.835,-0.12,
1555,-0.83,-0.115,
1556,-0.815,-0.095,
1557,-0.78,-0.085,
1558,-0.755,-0.075,
1559,-0.72,-0.065,
1560,-0.7,-0.07,
1561,-0.69,-0.06,
1562,-0.685,-0.06,
1563,-0.675,-0.065,
1564,-0.655,-0.045,
1565,-0.655,-0.05,
1566,-0.645,-0.055,
1567,-0.66,-0.08,
1568,-0.685,-0.07,
1569,-0.68,-0.06,
1570,-0.66,-0.05,
1571,-0.645,-0.065,
1572,-0.65,-0.06,
1573,-0.66,-0.075,
1574,-0.68,-0.07,
1575,-0.695,-0.07,
1576,-0.685,-0.07,
1577,-0.68,-0.07,
1578,-0.675,-0.08,
1579,-0.68,-0.09,
1580,-0.695,-0.085,
1581,-0.715,-0.065,
1582,-0.71,-0.05,
1583,-0.68,-0.04,
1584,-0.68,-0.04,
1585,-0.685,-0.06,
1586,-0.695,-0.065,
1587,-0.705,-0.055,
1588,-0.675,-0.06,
1589,-0.665,-0.055,
1590,-0.68,-0.055,
1591,-0.695,-0.055,
1592,-0.695,-0.07,
1593,-0.685,-0.07,
1594,-0.675,-0.055,
1595,-0.675,-0.06,
1596,-0.665,-0.05,
1597,-0.66,-0.07,
1598,-0.66,-0.095,
1599,-0.655,-0.08,
1600,-0.64,-0.08,
1601,-0.63,-0.075,
1602,-0.62,-0.07,
1603,-0.62,-0.085,
1604,-0.62,-0.095,
1605,-0.61,-0.075,
1606,-0.605,-0.075,
1607,-0.595,-0.065,
1608,-0.59,-0.08,
1609,-0.585,-0.09,
1610,-0.58,-0.115,
1611,-0.57,-0.11,
1612,-0.535,-0.1,
1613,-0.515,-0.1,
1614,-0.51,-0.11,
1615,-0.495,-0.13,
1616,-0.505,-0.145,
1617,-0.475,-0.14,
1618,-0.475,-0.135,
1619,-0.45,-0.14,
1620,-0.435,-0.15,
1621,-0.42,-0.165,
1622,-0.435,-0.175,
1623,-0.41,-0.175,
1624,-0.385,-0.16,
1625,-0.38,-0.16,
1626,-0.375,-0.175,
1627,-0.38,-0.195,
1628,-0.37,-0.21,
1629,-0.36,-0.23,
1630,-0.345,-0.245,
1631,-0.33,-0.25,
1632,-0.325,-0.25,
1633,-0.315,-0.25,
1634,-0.33,-0.265,
1635,-0.305,-0.27,
1636,-0.28,-0.265,
1637,-0.265,-0.28,
1638,-0.26,-0.285,
1639,-0.265,-0.3,
1640,-0.26,-0.305,
1641,-0.245,-0.305,
1642,-0.235,-0.315,
1643,-0.215,-0.345,
1644,-0.21,-0.36,
1645,-0.22,-0.365,
1646,-0.23,-0.345,
1647,-0.215,-0.335,
1648,-0.2,-0.315,
1649,-0.19,-0.32,
1650,-0.19,-0.33,
1651,-0.195,-0.345,
1652,-0.21,-0.36,
1653,-0.21,-0.37,
1654,-0.205,-0.375,
1655,-0.195,-0.375,
1656,-0.205,-0.38,
1657,-0.21,-0.39,
1658,-0.22,-0.42,
1659,-0.23,-0.435,
1660,-0.235,-0.425,
1661,-0.24,-0.45,
1662,-0.23,-0.455,
1663,-0.235,-0.485,
1664,-0.245,-0.46,
1665,-0.245,-0.435,
1666,-0.22,-0.435,
1667,-0.2,-0.43,
1668,-0.2,-0.455,
1669,-0.205,-0.465,
1670,-0.22,-0.455,
1671,-0.22,-0.44,
1672,-0.225,-0.405,
1673,-0.205,-0.415,
1674,-0.21,-0.425,
1675,-0.24,-0.44,
1676,-0.26,-0.45,
1677,-0.265,-0.455,
1678,-0.265,-0.46,
1679,-0.265,-0.46,
1680,-0.26,-0.46,
1681,-0.26,-0.47,
1682,-0.255,-0.455,
1683,-0.26,-0.44,
1684,-0.27,-0.445,
1685,-0.295,-0.435,
1686,-0.32,-0.43,
1687,-0.35,-0.45,
1688,-0.38,-0.465,
1689,-0.41,-0.46,
1690,-0.43,-0.455,
1691,-0.455,-0.46,
1692,-0.455,-0.44,
1693,-0.475,-0.455,
1694,-0.495,-0.445,
1695,-0.505,-0.44,
1696,-0.495,-0.43,
1697,-0.49,-0.41,
1698,-0.49,-0.43,
1699,-0.485,-0.445,
1700,-0.49,-0.455,
1701,-0.495,-0.465,
1702,-0.505,-0.46,
1703,-0.5,-0.445,
1704,-0.51,-0.45,
1705,-0.525,-0.475,
1706,-0.52,-0.485,
1707,-0.51,-0.465,
1708,-0.49,-0.46,
1709,-0.49,-0.49,
1710,-0.49,-0.495,
1711,-0.5,-0.505,
1712,-0.51,-0.495,
1713,-0.515,-0.485,
1714,-0.525,-0.465,
1715,-0.505,-0.48,
1716,-0.505,-0.49,
1717,-0.51,-0.495,
1718,-0.515,-0.495,
1719,-0.51,-0.51,
1720,-0.5,-0.49,
1721,-0.49,-0.505,
1722,-0.5,-0.5,
1723,-0.485,-0.495,
1724,-0.5,-0.52,
1725,-0.505,-0.51,
1726,-0.515,-0.515,
1727,-0.51,-0.535,
1728,-0.49,-0.525,
1729,-0.48,-0.53,
1730,-0.475,-0.52,
1731,-0.475,-0.52,
1732,-0.47,-0.505,
1733,-0.475,-0.5,
1734,-0.48,-0.5,
1735,-0.475,-0.51,
1736,-0.49,-0.52,
1737,-0.495,-0.51,
1738,-0.47,-0.495,
1739,-0.465,-0.495,
1740,-0.455,-0.48,
1741,-0.465,-0.485,
1742,-0.48,-0.48,
1743,-0.495,-0.46,
1744,-0.48,-0.45,
1745,-0.475,-0.415,
1746,-0.465,-0.425,
1747,-0.425,-0.435,
1748,-0.36,-0.445,
1749,-0.245,-0.46,
1750,-0.105,-0.49,
1751,0.035,-0.545,
1752,0.14,-0.615,
1753,0.235,-0.72,
1754,0.28,-0.795,
1755,0.305,-0.855,
1756,0.33,-0.895,
1757,0.38,-0.97,
1758,0.44,-1.065,
1759,0.515,-1.205,
1760,0.565,-1.325,
1761,0.655,-1.45,
1762,0.715,-1.54,
1763,0.73,-1.635,
1764,0.72,-1.67,
1765,0.685,-1.665,L
1766,0.635,-1.645,
1767,0.585,-1.6,
1768,0.53,-1.56,
1769,0.455,-1.515,
1770,0.345,-1.44,
1771,0.24,-1.4,
1772,0.16,-1.35,
1773,0.07,-1.29,
1774,-0.03,-1.235,
1775,-0.14,-1.185,
1776,-0.26,-1.17,
1777,-0.39,-1.125,
1778,-0.54,-1.065,
1779,-0.67,-0.995,
1780,-0.78,-0.94,
1781,-0.865,-0.9,
1782,-0.96,-0.885,
1783,-1.065,-0.845,
1784,-1.14,-0.795,
1785,-1.165,-0.75,
1786,-1.17,-0.72,
1787,-1.15,-0.72,
1788,-1.13,-0.715,
1789,-1.13,-0.705,
1790,-1.13,-0.685,
1791,-1.115,-0.645,
1792,-1.09,-0.61,
1793,-1.05,-0.58,
1794,-1.015,-0.56,
1795,-1.015,-0.545,
1796,-0.985,-0.525,
1797,-0.945,-0.49,
1798,-0.91,-0.48,
1799,-0.875,-0.47,
1800,-0.845,-0.475,
1801,-0.825,-0.465,
1802,-0.815,-0.44,
1803,-0.785,-0.405,
1804,-0.755,-0.385,
1805,-0.735,-0.375,
1806,-0.715,-0.37,
1807,-0.695,-0.375,
1808,-0.705,-0.39,
1809,-0.715,-0.385,
1810,-0.705,-0.385,
1811,-0.68,-0.385,
1812,-0.67,-0.375,
1813,-0.69,-0.385,
1814,-0.695,-0.37,
1815,-0.685,-0.375,
1816,-0.675,-0.385,
1817,-0.665,-0.41,
1818,-0.67,-0.415,
1819,-0.685,-0.405,
1820,-0.685,-0.385,
1821,-0.675,-0.36,
1822,-0.675,-0.335,
1823,-0.675,-0.325,
1824,-0.69,-0.33,
1825,-0.68,-0.345,
1826,-0.685,-0.365,
1827,-0.69,-0.375,
1828,-0.685,-0.355,
1829,-0.685,-0.345,
1830,-0.69,-0.335,
1831,-0.69,-0.35,
1832,-0.7,-0.375,
1833,-0.685,-0.365,
1834,-0.68,-0.335,
1835,-0.67,-0.325,
1836,-0.665,-0.32,
1837,-0.67,-0.345,
1838,-0.68,-0.345,
1839,-0.695,-0.33,
1840,-0.69,-0.325,
1841,-0.66,-0.32,
1842,-0.655,-0.32,
1843,-0.655,-0.345,
1844,-0.64,-0.36,
1845,-0.64,-0.35,
1846,-0.62,-0.345,
1847,-0.61,-0.325,
1848,-0.6,-0.325,
1849,-0.59,-0.33,
1850,-0.59,-0.345,
1851,-0.58,-0.34,
1852,-0.565,-0.315,
1853,-0.535,-0.315,
1854,-0.525,-0.335,
1855,-0.53,-0.37,
1856,-0.525,-0.375,
1857,-0.49,-0.365,
1858,-0.46,-0.365,
1859,-0.435,-0.365,
1860,-0.43,-0.365,
1861,-0.42,-0.37,
1862,-0.43,-0.39,
1863,-0.425,-0.39,
1864,-0.395,-0.39,
1865,-0.385,-0.395,
1866,-0.37,-0.4,
1867,-0.36,-0.395,
1868,-0.355,-0.405,
1869,-0.335,-0.4,
1870,-0.32,-0.415,
1871,-0.3,-0.42,
1872,-0.3,-0.425,
1873,-0.295,-0.44,
1874,-0.29,-0.445,
1875,-0.27,-0.45,
1876,-0.255,-0.435,
1877,-0.25,-0.435,
1878,-0.24,-0.435,
1879,-0.235,-0.455,
1880,-0.24,-0.465,
1881,-0.225,-0.47,
1882,-0.205,-0.47,
1883,-0.2,-0.48,
1884,-0.21,-0.48,
1885,-0.21,-0.495,
1886,-0.215,-0.505,
1887,-0.2,-0.515,
1888,-0.185,-0.52,
1889,-0.165,-0.515,
1890,-0.15,-0.51,
1891,-0.16,-0.5,
1892,-0.17,-0.515,
1893,-0.175,-0.515,
1894,-0.18,-0.51,
1895,-0.165,-0.52,
1896,-0.17,-0.56,
1897,-0.185,-0.575,
1898,-0.22,-0.575,
1899,-0.22,-0.57,
1900,-0.21,-0.545,
1901,-0.205,-0.54,
1902,-0.205,-0.535,
1903,-0.2,-0.555,
1904,-0.205,-0.545,
1905,-0.185,-0.55,
1906,-0.18,-0.535,
1907,-0.175,-0.555,
1908,-0.19,-0.565,
1909,-0.2,-0.59,
1910,-0.215,-0.6,
1911,-0.215,-0.6,
1912,-0.225,-0.57,
1913,-0.22,-0.555,
1914,-0.225,-0.545,
1915,-0.24,-0.565,
1916,-0.265,-0.565,
1917,-0.25,-0.565,
1918,-0.24,-0.54,
1919,-0.22,-0.52,
1920,-0.25,-0.52,
1921,-0.29,-0.53,
1922,-0.325,-0.515,
1923,-0.345,-0.5,
1924,-0.345,-0.495,
1925,-0.37,-0.49,
1926,-0.395,-0.505,
1927,-0.435,-0.525,
1928,-0.46,-0.515,
1929,-0.465,-0.495,
1930,-0.47,-0.49,
1931,-0.47,-0.5,
1932,-0.455,-0.505,
1933,-0.465,-0.505,
1934,-0.475,-0.495,
1935,-0.49,-0.485,
1936,-0.47,-0.46,
1937,-0.49,-0.48,
1938,-0.485,-0.505,
1939,-0.48,-0.535,
1940,-0.51,-0.53,
1941,-0.49,-0.52,
1942,-0.475,-0.51,
1943,-0.465,-0.505,
1944,-0.485,-0.505,
1945,-0.5,-0.52,
1946,-0.495,-0.515,
1947,-0.49,-0.505,
1948,-0.495,-0.485,
1949,-0.495,-0.495,
1950,-0.505,-0.5,
1951,-0.515,-0.505,
1952,-0.54,-0.495,
1953,-0.54,-0.48,
1954,-0.52,-0.46,
1955,-0.515,-0.475,
1956,-0.505,-0.505,
1957,-0.495,-0.525,
1958,-0.5,-0.535,
1959,-0.5,-0.54,
1960,-0.48,-0.515,
1961,-0.49,-0.49,
1962,-0.495,-0.475,
1963,-0.485,-0.5,
1964,-0.495,-0.49,
1965,-0.495,-0.485,
1966,-0.47,-0.48,
1967,-0.455,-0.49,
1968,-0.45,-0.51,
1969,-0.425,-0.54,
1970,-0.395,-0.54,
1971,-0.36,-0.535,
1972,-0.35,-0.525,
1973,-0.365,-0.505,
1974,-0.39,-0.46,
1975,-0.44,-0.43,
1976,-0.49,-0.41,
1977,-0.515,-0.38,
1978,-0.51,-0.37,
1979,-0.445,-0.37,
1980,-0.335,-0.4,
1981,-0.21,-0.44,
1982,-0.09,-0.49,
1983,0.03,-0.57,
1984,0.115,-0.66,
1985,0.18,-0.75,
1986,0.19,-0.81,
1987,0.245,-0.915,
1988,0.29,-1.03,
1989,0.33,-1.155,
1990,0.36,-1.265,
1991,0.41,-1.39,
1992,0.425,-1.49,
1993,0.435,-1.54,
1994,0.4,-1.535,L
1995,0.365,-1.525,
1996,0.36,-1.475,
1997,0.34,-1.435,
1998,0.3,-1.39,
1999,0.215,-1.345,
2000,0.155,-1.29,
2001,0.09,-1.225,
2002,0.045,-1.16,
2003,-0.015,-1.105,
2004,-0.09,-1.07,
2005,-0.185,-1.03,
2006,-0.32,-1.01,
2007,-0.445,-0.985,
2008,-0.555,-0.93,
2009,-0.645,-0.875,
2010,-0.75,-0.835,
2011,-0.87,-0.805,
2012,-0.96,-0.78,
2013,-0.985,-0.725,
2014,-0.965,-0.685,
2015,-0.945,-0.665,
2016,-0.945,-0.655,
2017,-0.985,-0.635,
2018,-1.005,-0.605,
2019,-0.995,-0.58,
2020,-0.955,-0.535,
2021,-0.89,-0.535,
2022,-0.84,-0.52,
2023,-0.815,-0.505,
2024,-0.835,-0.505,
2025,-0.85,-0.46,
2026,-0.865,-0.41,
2027,-0.865,-0.37,
2028,-0.835,-0.365,
2029,-0.785,-0.365,
2030,-0.715,-0.355,
2031,-0.655,-0.33,
2032,-0.64,-0.325,
2033,-0.645,-0.31,
2034,-0.67,-0.32,
2035,-0.685,-0.32,
2036,-0.69,-0.32,
2037,-0.665,-0.305,
2038,-0.635,-0.3,
2039,-0.615,-0.31,
2040,-0.615,-0.315,
2041,-0.615,-0.33,
2042,-0.615,-0.33,
2043,-0.62,-0.315,
2044,-0.61,-0.295,
2045,-0.6,-0.3,
2046,-0.595,-0.31,
2047,-0.615,-0.31,
2048,-0.625,-0.315,
2049,-0.635,-0.31,
2050,-0.635,-0.28,
2051,-0.645,-0.28,
2052,-0.615,-0.285,
2053,-0.62,-0.29,
2054,-0.63,-0.29,
2055,-0.635,-0.28,
2056,-0.625,-0.285,
2057,-0.6,-0.26,
2058,-0.595,-0.275,
2059,-0.6,-0.285,
2060,-0.6,-0.29,
2061,-0.6,-0.28,
2062,-0.595,-0.27,
2063,-0.57,-0.255,
2064,-0.57,-0.265,
2065,-0.575,-0.27,
2066,-0.565,-0.27,
2067,-0.545,-0.265,
2068,-0.535,-0.25,
2069,-0.525,-0.255,
2070,-0.53,-0.255,
2071,-0.545,-0.275,
2072,-0.55,-0.27,
2073,-0.54,-0.27,
2074,-0.52,-0.265,
2075,-0.52,-0.26,
2076,-0.505,-0.275,
2077,-0.495,-0.275,
2078,-0.505,-0.285,
2079,-0.49,-0.28,
2080,-0.475,-0.27,
2081,-0.44,-0.275,
2082,-0.435,-0.28,
2083,-0.435,-0.29,
2084,-0.42,-0.305,
2085,-0.4,-0.3,
2086,-0.385,-0.295,
2087,-0.37,-0.3,
2088,-0.355,-0.305,
2089,-0.35,-0.325,
2090,-0.35,-0.345,
2091,-0.335,-0.325,
2092,-0.32,-0.325,
2093,-0.31,-0.34,
2094,-0.28,-0.35,
2095,-0.285,-0.36,
2096,-0.29,-0.365,
2097,-0.275,-0.355,
2098,-0.265,-0.345,
2099,-0.245,-0.355,
2100,-0.24,-0.36,
2101,-0.245,-0.385,
2102,-0.25,-0.405,
2103,-0.25,-0.39,
2104,-0.22,-0.39,
2105,-0.21,-0.395,
2106,-0.21,-0.41,
2107,-0.195,-0.425,
2108,-0.2,-0.43,
2109,-0.185,-0.43,
2110,-0.175,-0.415,
2111,-0.155,-0.42,
2112,-0.165,-0.44,
2113,-0.165,-0.455,
2114,-0.175,-0.475,
2115,-0.155,-0.455,
2116,-0.135,-0.47,
2117,-0.12,-0.465,
2118,-0.125,-0.465,
2119,-0.145,-0.485,
2120,-0.155,-0.495,
2121,-0.15,-0.485,
2122,-0.15,-0.485,
2123,-0.135,-0.495,
2124,-0.15,-0.51,
2125,-0.16,-0.53,
2126,-0.18,-0.53,
2127,-0.165,-0.52,
2128,-0.145,-0.525,
2129,-0.15,-0.53,
2130,-0.15,-0.525,
2131,-0.135,-0.55,
2132,-0.145,-0.555,
2133,-0.145,-0.555,
2134,-0.135,-0.545,
2135,-0.145,-0.54,
2136,-0.155,-0.54,
2137,-0.17,-0.56,
2138,-0.2,-0.555,
2139,-0.205,-0.545,
2140,-0.205,-0.53,
2141,-0.195,-0.54,
2142,-0.18,-0.545,
2143,-0.195,-0.545,
2144,-0.185,-0.545,
2145,-0.16,-0.53,
2146,-0.16,-0.53,
2147,-0.17,-0.5,
2148,-0.225,-0.51,
2149,-0.27,-0.525,
2150,-0.29,-0.54,
2151,-0.31,-0.52,
2152,-0.31,-0.505,
2153,-0.335,-0.5,
2154,-0.355,-0.495,
2155,-0.39,-0.5,
2156,-0.41,-0.505,
2157,-0.42,-0.5,
2158,-0.435,-0.485,
2159,-0.42,-0.485,
2160,-0.415,-0.49,
2161,-0.44,-0.495,
2162,-0.445,-0.505,
2163,-0.455,-0.495,
2164,-0.435,-0.495,
2165,-0.43,-0.5,
2166,-0.42,-0.5,
2167,-0.435,-0.505,
2168,-0.45,-0.525,
2169,-0.455,-0.51,
2170,-0.445,-0.51,
2171,-0.445,-0.515,
2172,-0.425,-0.52,
2173,-0.435,-0.52,
2174,-0.435,-0.525,
2175,-0.445,-0.525,
2176,-0.43,-0.515,
2177,-0.42,-0.52,
2178,-0.425,-0.525,
2179,-0.43,-0.525,
2180,-0.44,-0.53,
2181,-0.435,-0.51,
2182,-0.415,-0.505,
2183,-0.405,-0.52,
2184,-0.41,-0.53,
2185,-0.415,-0.545,
2186,-0.435,-0.53,
2187,-0.42,-0.525,
2188,-0.41,-0.515,
2189,-0.42,-0.52,
2190,-0.41,-0.525,
2191,-0.44,-0.525,
2192,-0.45,-0.54,
2193,-0.44,-0.525,
2194,-0.405,-0.525,
2195,-0.41,-0.53,
2196,-0.4,-0.53,
2197,-0.41,-0.535,
2198,-0.405,-0.52,
2199,-0.42,-0.49,
2200,-0.42,-0.45,
2201,-0.43,-0.43,
2202,-0.435,-0.415,
2203,-0.445,-0.42,
2204,-0.415,-0.43,
2205,-0.325,-0.465,
2206,-0.185,-0.5,
2207,-0.07,-0.575,
2208,0.0,-0.685,
2209,0.025,-0.785,
2210,0.035,-0.865,
2211,0.095,-0.98,
2212,0.185,-1.13,
2213,0.3,-1.33,
2214,0.385,-1.515,
2215,0.435,-1.62,
2216,0.43,-1.645,
2217,0.435,-1.635,
2218,0.43,-1.62,
2219,0.43,-1.59,L
2220,0.405,-1.535,
2221,0.36,-1.485,
2222,0.275,-1.43,
2223,0.21,-1.375,
2224,0.16,-1.285,
2225,0.115,-1.235,
2226,0.045,-1.165,
2227,-0.045,-1.125,
2228,-0.17,-1.09,
2229,-0.29,-1.035,
2230,-0.41,-0.975,
2231,-0.535,-0.93,
2232,-0.67,-0.905,
2233,-0.775,-0.875,
2234,-0.855,-0.85,
2235,-0.89,-0.805,
2236,-0.915,-0.775,
2237,-0.92,-0.74,
2238,-0.92,-0.73,
2239,-0.895,-0.705,
2240,-0.905,-0.675,
2241,-0.92,-0.645,
2242,-0.9,-0.615,
2243,-0.85,-0.585,
2244,-0.8,-0.55,
2245,-0.78,-0.55,
2246,-0.765,-0.52,
2247,-0.755,-0.5,
2248,-0.72,-0.47,
2249,-0.675,-0.445,
2250,-0.65,-0.445,
2251,-0.645,-0.435,
2252,-0.63,-0.435,
2253,-0.605,-0.405,
2254,-0.59,-0.39,
2255,-0.585,-0.395,
2256,-0.575,-0.38,
2257,-0.575,-0.39,
2258,-0.58,-0.405,
2259,-0.575,-0.4,
2260,-0.56,-0.39,
2261,-0.555,-0.385,
2262,-0.57,-0.385,
2263,-0.585,-0.395,
2264,-0.6,-0.38,
2265,-0.58,-0.37,
2266,-0.575,-0.365,
2267,-0.57,-0.365,
2268,-0.57,-0.37,
2269,-0.575,-0.35,
2270,-0.595,-0.34,
2271,-0.575,-0.34,
2272,-0.56,-0.325,
2273,-0.56,-0.31,
2274,-0.565,-0.325,
2275,-0.575,-0.34,
2276,-0.585,-0.34,
2277,-0.58,-0.325,
2278,-0.565,-0.305,
2279,-0.56,-0.305,
2280,-0.555,-0.315,
2281,-0.57,-0.32,
2282,-0.58,-0.31,
2283,-0.565,-0.315,
2284,-0.555,-0.3,
2285,-0.535,-0.305,
2286,-0.525,-0.3,
2287,-0.55,-0.31,
2288,-0.535,-0.325,
2289,-0.52,-0.31,
2290,-0.51,-0.305,
2291,-0.5,-0.295,
2292,-0.485,-0.31,
2293,-0.495,-0.315,
2294,-0.49,-0.33,
2295,-0.48,-0.31,
2296,-0.465,-0.315,
2297,-0.445,-0.32,
2298,-0.435,-0.325,
2299,-0.415,-0.345,
2300,-0.415,-0.35,
2301,-0.4,-0.35,
2302,-0.385,-0.335,
2303,-0.395,-0.34,
2304,-0.375,-0.34,
2305,-0.35,-0.37,
2306,-0.34,-0.38,
2307,-0.34,-0.36,
2308,-0.305,-0.37,
2309,-0.295,-0.375,
2310,-0.275,-0.37,
2311,-0.28,-0.395,
2312,-0.275,-0.415,
2313,-0.255,-0.4,
2314,-0.245,-0.4,
2315,-0.23,-0.4,
2316,-0.225,-0.415,
2317,-0.23,-0.445,
2318,-0.225,-0.45,
2319,-0.205,-0.45,
2320,-0.2,-0.44,
2321,-0.175,-0.465,
2322,-0.18,-0.46,
2323,-0.175,-0.47,
2324,-0.155,-0.485,
2325,-0.165,-0.465,
2326,-0.14,-0.475,
2327,-0.135,-0.465,
2328,-0.11,-0.485,
2329,-0.125,-0.49,
2330,-0.115,-0.51,
2331,-0.1,-0.49,
2332,-0.08,-0.49,
2333,-0.085,-0.51,
2334,-0.08,-0.515,
2335,-0.08,-0.515,
2336,-0.1,-0.53,
2337,-0.105,-0.535,
2338,-0.11,-0.545,
2339,-0.115,-0.54,
2340,-0.12,-0.54,
2341,-0.11,-0.55,
2342,-0.12,-0.555,
2343,-0.095,-0.56,
2344,-0.085,-0.54,
2345,-0.075,-0.55,
2346,-0.07,-0.555,
2347,-0.085,-0.565,
2348,-0.11,-0.58,
2349,-0.105,-0.565,
2350,-0.09,-0.55,
2351,-0.095,-0.555,
2352,-0.1,-0.55,
2353,-0.115,-0.555,
2354,-0.135,-0.56,
2355,-0.14,-0.555,
2356,-0.145,-0.54,
2357,-0.14,-0.545,
2358,-0.135,-0.55,
2359,-0.14,-0.555,
2360,-0.155,-0.54,
2361,-0.165,-0.52,
2362,-0.19,-0.51,
2363,-0.21,-0.505,
2364,-0.245,-0.52,
2365,-0.265,-0.525,
2366,-0.3,-0.525,
2367,-0.32,-0.51,
2368,-0.35,-0.5,
2369,-0.355,-0.505,
2370,-0.375,-0.505,
2371,-0.405,-0.52,
2372,-0.405,-0.515,
2373,-0.4,-0.505,
2374,-0.395,-0.495,
2375,-0.4,-0.505,
2376,-0.4,-0.5,
2377,-0.41,-0.52,
2378,-0.42,-0.525,
2379,-0.42,-0.505,
2380,-0.405,-0.5,
2381,-0.41,-0.505,
2382,-0.405,-0.5,
2383,-0.41,-0.515,
2384,-0.43,-0.52,
2385,-0.425,-0.515,
2386,-0.405,-0.51,
2387,-0.39,-0.52,
2388,-0.4,-0.52,
2389,-0.405,-0.535,
2390,-0.425,-0.535,
2391,-0.415,-0.525,
2392,-0.39,-0.52,
2393,-0.4,-0.52,
2394,-0.39,-0.5,
2395,-0.395,-0.515,
2396,-0.4,-0.525,
2397,-0.405,-0.52,
2398,-0.405,-0.51,
2399,-0.4,-0.515,
2400,-0.395,-0.525,
2401,-0.41,-0.54,
2402,-0.425,-0.545,
2403,-0.405,-0.54,
2404,-0.39,-0.525,
2405,-0.38,-0.515,
2406,-0.375,-0.525,
2407,-0.4,-0.535,
2408,-0.405,-0.54,
2409,-0.395,-0.535,
2410,-0.37,-0.515,
2411,-0.365,-0.52,
2412,-0.36,-0.515,
2413,-0.38,-0.52,
2414,-0.395,-0.49,
2415,-0.405,-0.47,
2416,-0.405,-0.44,
2417,-0.415,-0.42,
2418,-0.42,-0.405,
2419,-0.425,-0.405,
2420,-0.375,-0.445,
2421,-0.255,-0.47,
2422,-0.135,-0.51,
2423,-0.015,-0.59,
2424,0.06,-0.7,
2425,0.08,-0.79,
2426,0.09,-0.88,
2427,0.16,-0.97,
2428,0.27,-1.11,
2429,0.395,-1.31,
2430,0.49,-1.48,
2431,0.555,-1.6,
2432,0.59,-1.645,
2433,0.615,-1.65,
2434,0.615,-1.635,
2435,0.605,-1.61,L
2436,0.58,-1.56,
2437,0.525,-1.515,
2438,0.43,-1.45,
2439,0.355,-1.375,
2440,0.295,-1.305,
2441,0.24,-1.24,
2442,0.165,-1.17,
2443,0.06,-1.135,
2444,-0.095,-1.07,
2445,-0.255,-1.0,
2446,-0.4,-0.945,
2447,-0.525,-0.9,
2448,-0.65,-0.885,
2449,-0.765,-0.86,
2450,-0.835,-0.825,
2451,-0.87,-0.785,
2452,-0.88,-0.735,
2453,-0.87,-0.7,
2454,-0.88,-0.685,
2455,-0.88,-0.67,
2456,-0.89,-0.65,
2457,-0.88,-0.61,
2458,-0.87,-0.58,
2459,-0.835,-0.555,
2460,-0.795,-0.515,
2461,-0.785,-0.51,
2462,-0.76,-0.48,
2463,-0.73,-0.445,
2464,-0.705,-0.41,
2465,-0.67,-0.4,
2466,-0.65,-0.395,
2467,-0.65,-0.38,
2468,-0.635,-0.37,
2469,-0.605,-0.365,
2470,-0.575,-0.345,
2471,-0.555,-0.33,
2472,-0.55,-0.335,
2473,-0.555,-0.33,
2474,-0.56,-0.34,
2475,-0.54,-0.325,
2476,-0.54,-0.31,
2477,-0.545,-0.315,
2478,-0.545,-0.315,
2479,-0.54,-0.32,
2480,-0.55,-0.32,
2481,-0.56,-0.315,
2482,-0.545,-0.285,
2483,-0.535,-0.295,
2484,-0.53,-0.295,
2485,-0.54,-0.3,
2486,-0.56,-0.295,
2487,-0.55,-0.29,
2488,-0.545,-0.27,
2489,-0.535,-0.26,
2490,-0.53,-0.27,
2491,-0.545,-0.275,
2492,-0.555,-0.275,
2493,-0.555,-0.255,
2494,-0.54,-0.245,
2495,-0.525,-0.24,
2496,-0.515,-0.24,
2497,-0.52,-0.255,
2498,-0.535,-0.25,
2499,-0.525,-0.225,
2500,-0.5,-0.23,
2501,-0.495,-0.225,
2502,-0.49,-0.235,
2503,-0.495,-0.24,
2504,-0.495,-0.25,
2505,-0.495,-0.235,
2506,-0.465,-0.23,
2507,-0.465,-0.22,
2508,-0.45,-0.22,
2509,-0.46,-0.235,
2510,-0.46,-0.23,
2511,-0.435,-0.22,
2512,-0.415,-0.205,
2513,-0.42,-0.215,
2514,-0.405,-0.225,
2515,-0.41,-0.23,
2516,-0.41,-0.235,
2517,-0.38,-0.23,
2518,-0.365,-0.205,
2519,-0.33,-0.215,
2520,-0.325,-0.22,
2521,-0.315,-0.24,
2522,-0.315,-0.255,
2523,-0.315,-0.25,
2524,-0.285,-0.24,
2525,-0.26,-0.23,
2526,-0.24,-0.23,
2527,-0.23,-0.235,
2528,-0.235,-0.265,
2529,-0.235,-0.275,
2530,-0.22,-0.275,
2531,-0.205,-0.255,
2532,-0.185,-0.245,
2533,-0.2,-0.255,
2534,-0.2,-0.26,
2535,-0.18,-0.3,
2536,-0.16,-0.325,
2537,-0.13,-0.365,
2538,-0.115,-0.36,
2539,-0.115,-0.36,
2540,-0.135,-0.355,
2541,-0.13,-0.355,
2542,-0.125,-0.37,
2543,-0.105,-0.38,
2544,-0.105,-0.375,
2545,-0.095,-0.385,
2546,-0.08,-0.385,
2547,-0.055,-0.39,
2548,-0.01,-0.375,
2549,0.01,-0.405,
2550,0.01,-0.415,
2551,-0.02,-0.43,
2552,-0.035,-0.435,
2553,0.005,-0.44,
2554,0.05,-0.44,
2555,0.065,-0.46,
2556,0.015,-0.46,
2557,-0.065,-0.465,
2558,-0.15,-0.435,
2559,-0.18,-0.43,
2560,-0.165,-0.41,
2561,-0.145,-0.41,
2562,-0.115,-0.42,
2563,-0.105,-0.42,
2564,-0.095,-0.45,
2565,-0.075,-0.42,
2566,-0.065,-0.42,
2567,-0.065,-0.43,
2568,-0.08,-0.43,
2569,-0.08,-0.44,
2570,-0.07,-0.44,
2571,-0.07,-0.425,
2572,-0.06,-0.4,
2573,-0.06,-0.415,
2574,-0.06,-0.4,
2575,-0.075,-0.425,
2576,-0.105,-0.435,
2577,-0.115,-0.4,
2578,-0.115,-0.34,
2579,-0.115,-0.26,
2580,-0.11,-0.235,
2581,-0.11,-0.285,
2582,-0.135,-0.35,
2583,-0.155,-0.43,
2584,-0.175,-0.47,
2585,-0.2,-0.5,
2586,-0.22,-0.515,
2587,-0.245,-0.525,
2588,-0.26,-0.515,
2589,-0.255,-0.49,
2590,-0.26,-0.465,
2591,-0.28,-0.45,
2592,-0.32,-0.425,
2593,-0.35,-0.43,
2594,-0.365,-0.43,
2595,-0.34,-0.42,
2596,-0.265,-0.41,
2597,-0.205,-0.435,
2598,-0.185,-0.46,
2599,-0.225,-0.46,
2600,-0.3,-0.44,
2601,-0.36,-0.425,
2602,-0.405,-0.37,
2603,-0.435,-0.35,
2604,-0.455,-0.32,
2605,-0.475,-0.305,
2606,-0.475,-0.295,
2607,-0.455,-0.23,
2608,-0.445,-0.195,
2609,-0.425,-0.175,
2610,-0.4,-0.145,
2611,-0.395,-0.165,
2612,-0.4,-0.21,
2613,-0.425,-0.29,
2614,-0.43,-0.355,
2615,-0.415,-0.44,
2616,-0.39,-0.48,
2617,-0.385,-0.485,
2618,-0.41,-0.415,
2619,-0.425,-0.33,
2620,-0.425,-0.285,
2621,-0.4,-0.335,
2622,-0.375,-0.435,
2623,-0.355,-0.525,
2624,-0.355,-0.575,
2625,-0.345,-0.57,
2626,-0.33,-0.535,
2627,-0.295,-0.515,
2628,-0.275,-0.495,
2629,-0.26,-0.49,
2630,-0.285,-0.48,
2631,-0.285,-0.46,
2632,-0.3,-0.45,
2633,-0.33,-0.44,
2634,-0.35,-0.43,
2635,-0.35,-0.43,
2636,-0.325,-0.41,
2637,-0.315,-0.385,
2638,-0.33,-0.345,
2639,-0.355,-0.32,
2640,-0.355,-0.295,
2641,-0.325,-0.305,
2642,-0.235,-0.315,
2643,-0.145,-0.345,
2644,-0.07,-0.36,
2645,-0.04,-0.41,
2646,0.005,-0.475,
2647,0.065,-0.55,
2648,0.14,-0.59,
2649,0.23,-0.595,
2650,0.33,-0.625,
2651,0.405,-0.705,
2652,0.435,-0.82,
2653,0.46,-0.97,
2654,0.52,-1.13,
2655,0.625,-1.255,
2656,0.695,-1.27,
2657,0.7,-1.215,
2658,0.65,-1.125,
2659,0.595,-1.095,
2660,0.575,-1.185,
2661,0.595,-1.275,L
2662,0.6,-1.26,
2663,0.55,-1.145,
2664,0.475,-0.935,
2665,0.405,-0.865,
2666,0.33,-0.955,
2667,0.265,-1.15,
2668,0.195,-1.32,
2669,0.1,-1.385,
2670,-0.045,-1.33,
2671,-0.215,-1.205,
2672,-0.405,-1.07,
2673,-0.56,-0.94,
2674,-0.69,-0.835,
2675,-0.75,-0.775,
2676,-0.8,-0.725,
2677,-0.85,-0.685,
2678,-0.92,-0.63,
2679,-0.945,-0.595,
2680,-0.955,-0.56,
2681,-0.945,-0.535,
2682,-0.915,-0.505,
2683,-0.93,-0.49,
2684,-0.92,-0.47,
2685,-0.865,-0.425,
2686,-0.81,-0.375,
2687,-0.77,-0.36,
2688,-0.74,-0.35,
2689,-0.715,-0.34,
2690,-0.68,-0.305,
2691,-0.665,-0.26,
2692,-0.62,-0.245,
2693,-0.6,-0.225,
2694,-0.59,-0.215,
2695,-0.585,-0.155,
2696,-0.56,-0.105,
2697,-0.505,-0.07,
2698,-0.48,-0.05,
2699,-0.475,-0.055,
2700,-0.48,-0.055,
2701,-0.49,-0.085,
2702,-0.455,-0.135,
2703,-0.425,-0.185,
2704,-0.415,-0.22,
2705,-0.39,-0.225,
2706,-0.355,-0.19,
2707,-0.36,-0.15,
2708,-0.425,-0.125,
2709,-0.485,-0.09,
2710,-0.525,-0.155,
2711,-0.505,-0.295,
2712,-0.53,-0.445,
2713,-0.56,-0.495,
2714,-0.62,-0.4,
2715,-0.635,-0.235,
2716,-0.63,-0.11,
2717,-0.615,-0.085,
2718,-0.615,-0.1,
2719,-0.605,-0.165,
2720,-0.605,-0.2,
2721,-0.605,-0.19,
2722,-0.61,-0.14,
2723,-0.595,-0.13,
2724,-0.59,-0.105,
2725,-0.595,-0.11,
2726,-0.59,-0.105,
2727,-0.575,-0.11,
2728,-0.565,-0.105,
2729,-0.565,-0.09,
2730,-0.525,-0.07,
2731,-0.515,-0.045,
2732,-0.505,-0.005,
2733,-0.5,0.01,
2734,-0.495,0.01,
2735,-0.475,-0.04,
2736,-0.45,-0.115,
2737,-0.44,-0.165,
2738,-0.42,-0.14,
2739,-0.4,-0.035,
2740,-0.335,0.11,
2741,-0.28,0.135,
2742,-0.25,0.015,
2743,-0.27,-0.135,
2744,-0.33,-0.215,
2745,-0.41,-0.21,
2746,-0.445,-0.17,
2747,-0.42,-0.115,
2748,-0.355,-0.045,
2749,-0.285,-0.05,
2750,-0.235,-0.115,
2751,-0.2,-0.2,
2752,-0.205,-0.285,
2753,-0.185,-0.32,
2754,-0.15,-0.315,
2755,-0.145,-0.28,
2756,-0.175,-0.24,
2757,-0.205,-0.215,
2758,-0.185,-0.19,
2759,-0.155,-0.19,
2760,-0.115,-0.205,
2761,-0.115,-0.215,
2762,-0.125,-0.21,
2763,-0.12,-0.225,
2764,-0.15,-0.205,
2765,-0.165,-0.21,
2766,-0.18,-0.195,
2767,-0.195,-0.22,
2768,-0.225,-0.215,
2769,-0.2,-0.21,
2770,-0.155,-0.2,
2771,-0.055,-0.215,
2772,0.05,-0.23,
2773,0.075,-0.245,
2774,0.07,-0.25,
2775,0.015,-0.245,
2776,-0.05,-0.24,
2777,-0.08,-0.235,
2778,-0.08,-0.255,
2779,-0.06,-0.265,
2780,-0.03,-0.28,
2781,0.015,-0.3,
2782,0.055,-0.295,
2783,0.08,-0.315,
2784,0.095,-0.315,
2785,0.11,-0.335,
2786,0.145,-0.34,
2787,0.105,-0.33,
2788,-0.025,-0.3,
2789,-0.135,-0.27,
2790,-0.175,-0.26,
2791,-0.145,-0.26,
2792,-0.11,-0.265,
2793,-0.12,-0.265,
2794,-0.17,-0.255,
2795,-0.195,-0.27,
2796,-0.15,-0.275,
2797,-0.105,-0.295,
2798,-0.06,-0.3,
2799,-0.03,-0.285,
2800,-0.055,-0.27,
2801,-0.065,-0.26,
2802,-0.08,-0.255,
2803,-0.105,-0.255,
2804,-0.155,-0.25,
2805,-0.215,-0.245,
2806,-0.28,-0.235,
2807,-0.295,-0.225,
2808,-0.29,-0.235,
2809,-0.285,-0.245,
2810,-0.305,-0.255,
2811,-0.31,-0.24,
2812,-0.32,-0.235,
2813,-0.31,-0.235,
2814,-0.3,-0.235,
2815,-0.28,-0.235,
2816,-0.31,-0.255,
2817,-0.32,-0.25,
2818,-0.3,-0.245,
2819,-0.255,-0.245,
2820,-0.235,-0.245,
2821,-0.285,-0.255,
2822,-0.365,-0.255,
2823,-0.4,-0.235,
2824,-0.405,-0.225,
2825,-0.355,-0.22,
2826,-0.37,-0.23,
2827,-0.405,-0.225,
2828,-0.44,-0.225,
2829,-0.425,-0.215,
2830,-0.4,-0.2,
2831,-0.37,-0.2,
2832,-0.35,-0.235,
2833,-0.35,-0.245,
2834,-0.355,-0.24,
2835,-0.35,-0.245,
2836,-0.34,-0.23,
2837,-0.35,-0.24,
2838,-0.35,-0.235,
2839,-0.37,-0.225,
2840,-0.35,-0.225,
2841,-0.34,-0.21,
2842,-0.335,-0.19,
2843,-0.335,-0.205,
2844,-0.33,-0.21,
2845,-0.32,-0.215,
2846,-0.325,-0.23,
2847,-0.32,-0.22,
2848,-0.315,-0.215,
2849,-0.285,-0.205,
2850,-0.28,-0.21,
2851,-0.29,-0.235,
2852,-0.28,-0.24,
2853,-0.265,-0.225,
2854,-0.24,-0.205,
2855,-0.23,-0.21,
2856,-0.27,-0.2,
2857,-0.3,-0.2,
2858,-0.345,-0.19,
2859,-0.365,-0.175,
2860,-0.36,-0.12,
2861,-0.345,-0.105,
2862,-0.34,-0.095,
2863,-0.335,-0.09,
2864,-0.31,-0.105,
2865,-0.235,-0.11,
2866,-0.11,-0.145,
2867,-0.005,-0.185,
2868,0.085,-0.26,
2869,0.165,-0.34,
2870,0.205,-0.435,
2871,0.2,-0.48,
2872,0.2,-0.54,
2873,0.25,-0.63,
2874,0.345,-0.77,
2875,0.445,-0.925,
2876,0.54,-1.085,
2877,0.635,-1.18,
2878,0.725,-1.24,
2879,0.795,-1.275,
2880,0.805,-1.295,
2881,0.79,-1.315,
2882,0.755,-1.31,
2883,0.745,-1.265,L
2884,0.725,-1.21,
2885,0.68,-1.155,
2886,0.57,-1.085,
2887,0.485,-1.04,
2888,0.425,-0.985,
2889,0.36,-0.915,
2890,0.29,-0.855,
2891,0.2,-0.795,
2892,0.065,-0.75,
2893,-0.075,-0.7,
2894,-0.215,-0.67,
2895,-0.325,-0.625,
2896,-0.43,-0.575,
2897,-0.53,-0.56,
2898,-0.615,-0.525,
2899,-0.695,-0.49,
2900,-0.745,-0.47,
2901,-0.775,-0.435,
2902,-0.785,-0.4,
2903,-0.8,-0.39,
2904,-0.8,-0.36,
2905,-0.795,-0.36,
2906,-0.795,-0.345,
2907,-0.8,-0.31,
2908,-0.81,-0.29,
2909,-0.785,-0.26,
2910,-0.765,-0.24,
2911,-0.725,-0.22,
2912,-0.695,-0.19,
2913,-0.655,-0.15,
2914,-0.625,-0.13,
2915,-0.605,-0.115,
2916,-0.59,-0.095,
2917,-0.59,-0.085,
2918,-0.59,-0.09,
2919,-0.56,-0.055,
2920,-0.535,-0.025,
2921,-0.51,-0.01,
2922,-0.475,-0.01,
2923,-0.475,-0.025,
2924,-0.46,-0.02,
2925,-0.45,0.005,
2926,-0.435,0.015,
2927,-0.42,0.0,
2928,-0.42,0.0,
2929,-0.44,-0.005,
2930,-0.435,-0.005,
2931,-0.425,0.005,
2932,-0.42,0.02,
2933,-0.435,0.01,
2934,-0.425,0.02,
2935,-0.435,0.025,
2936,-0.44,0.025,
2937,-0.45,0.02,
2938,-0.435,0.035,
2939,-0.43,0.05,
2940,-0.44,0.04,
2941,-0.445,0.045,
2942,-0.46,0.04,
2943,-0.45,0.055,
2944,-0.44,0.07,
2945,-0.43,0.07,
2946,-0.425,0.06,
2947,-0.44,0.07,
2948,-0.45,0.075,
2949,-0.44,0.085,
2950,-0.425,0.1,
2951,-0.425,0.085,
2952,-0.415,0.085,
2953,-0.425,0.09,
2954,-0.44,0.09,
2955,-0.425,0.085,
2956,-0.42,0.1,
2957,-0.41,0.1,
2958,-0.405,0.1,
2959,-0.415,0.09,
2960,-0.41,0.095,
2961,-0.405,0.115,
2962,-0.385,0.13,
2963,-0.36,0.115,
2964,-0.355,0.11,
2965,-0.365,0.105,
2966,-0.365,0.09,
2967,-0.34,0.105,
2968,-0.32,0.1,
2969,-0.305,0.115,
2970,-0.305,0.115,
2971,-0.295,0.09,
2972,-0.29,0.1,
2973,-0.265,0.11,
2974,-0.235,0.115,
2975,-0.225,0.09,
2976,-0.22,0.1,
2977,-0.225,0.09,
2978,-0.24,0.09,
2979,-0.215,0.08,
2980,-0.19,0.085,
2981,-0.16,0.07,
2982,-0.14,0.07,
2983,-0.135,0.055,
2984,-0.135,0.035,
2985,-0.12,0.055,
2986,-0.095,0.065,
2987,-0.08,0.07,
2988,-0.075,0.045,
2989,-0.075,0.04,
2990,-0.075,0.035,
2991,-0.055,0.025,
2992,-0.03,0.03,
2993,-0.03,0.01,
2994,-0.03,0.015,
2995,-0.015,0.0,
2996,-0.015,-0.02,
2997,-0.005,-0.015,
2998,0.015,-0.01,
2999,0.035,-0.02,
3000,0.035,-0.03,
3001,0.035,-0.035,
3002,0.03,-0.045,
3003,0.055,-0.035,
3004,0.075,-0.025,
3005,0.095,-0.03,
3006,0.1,-0.04,
3007,0.105,-0.06,
3008,0.095,-0.055,
3009,0.105,-0.06,
3010,0.115,-0.055,
3011,0.11,-0.065,
3012,0.105,-0.08,
3013,0.075,-0.1,
3014,0.065,-0.115,
3015,0.065,-0.11,
3016,0.08,-0.09,
3017,0.095,-0.095,
3018,0.095,-0.095,
3019,0.11,-0.11,
3020,0.095,-0.12,
3021,0.1,-0.11,
3022,0.11,-0.1,
3023,0.095,-0.11,
3024,0.09,-0.12,
3025,0.08,-0.115,
3026,0.06,-0.115,
3027,0.07,-0.11,
3028,0.065,-0.095,
3029,0.06,-0.09,
3030,0.065,-0.1,
3031,0.06,-0.11,
3032,0.055,-0.115,
3033,0.06,-0.1,
3034,0.08,-0.08,
3035,0.075,-0.08,
3036,0.055,-0.08,
3037,0.02,-0.09,
3038,-0.015,-0.09,
3039,-0.05,-0.075,
3040,-0.065,-0.06,
3041,-0.09,-0.06,
3042,-0.11,-0.06,
3043,-0.135,-0.08,
3044,-0.175,-0.065,
3045,-0.195,-0.075,
3046,-0.21,-0.065,
3047,-0.21,-0.055,
3048,-0.21,-0.065,
3049,-0.22,-0.075,
3050,-0.245,-0.07,
3051,-0.25,-0.065,
3052,-0.235,-0.055,
3053,-0.22,-0.065,
3054,-0.23,-0.06,
3055,-0.23,-0.075,
3056,-0.24,-0.07,
3057,-0.245,-0.065,
3058,-0.235,-0.06,
3059,-0.23,-0.065,
3060,-0.235,-0.07,
3061,-0.24,-0.08,
3062,-0.255,-0.085,
3063,-0.25,-0.075,
3064,-0.23,-0.06,
3065,-0.235,-0.07,
3066,-0.24,-0.08,
3067,-0.265,-0.095,
3068,-0.255,-0.08,
3069,-0.26,-0.085,
3070,-0.25,-0.075,
3071,-0.23,-0.08,
3072,-0.235,-0.085,
3073,-0.235,-0.095,
3074,-0.24,-0.09,
3075,-0.23,-0.085,
3076,-0.225,-0.085,
3077,-0.235,-0.08,
3078,-0.24,-0.075,
3079,-0.24,-0.08,
3080,-0.24,-0.095,
3081,-0.22,-0.09,
3082,-0.215,-0.08,
3083,-0.205,-0.085,
3084,-0.21,-0.09,
3085,-0.215,-0.085,
3086,-0.22,-0.09,
3087,-0.225,-0.07,
3088,-0.21,-0.065,
3089,-0.21,-0.07,
3090,-0.21,-0.07,
3091,-0.215,-0.06,
3092,-0.235,-0.06,
3093,-0.255,-0.03,
3094,-0.26,-0.005,
3095,-0.265,0.02,
3096,-0.265,0.045,
3097,-0.27,0.045,
3098,-0.25,0.03,
3099,-0.155,0.015,
3100,-0.04,-0.01,
3101,0.05,-0.06,
3102,0.15,-0.14,
3103,0.215,-0.22,
3104,0.275,-0.315,
3105,0.32,-0.395,
3106,0.39,-0.455,
3107,0.49,-0.585,
3108,0.595,-0.755,
3109,0.69,-0.925,
3110,0.78,-1.06,
3111,0.86,-1.165,
3112,0.935,-1.21,
3113,0.97,-1.24,
3114,0.98,-1.26,
3115,0.95,-1.27,
3116,0.94,-1.265,L
3117,0.915,-1.215,
3118,0.88,-1.155,
3119,0.8,-1.095,
3120,0.685,-1.035,
3121,0.585,-0.985,
3122,0.495,-0.93,
3123,0.41,-0.865,
3124,0.315,-0.785,
3125,0.2,-0.73,
3126,0.07,-0.665,
3127,-0.1,-0.62,
3128,-0.265,-0.57,
3129,-0.375,-0.51,
3130,-0.48,-0.465,
3131,-0.59,-0.45,
3132,-0.68,-0.42,
3133,-0.75,-0.395,
3134,-0.79,-0.355,
3135,-0.825,-0.315,
3136,-0.83,-0.29,
3137,-0.835,-0.26,
3138,-0.835,-0.245,
3139,-0.83,-0.235,
3140,-0.845,-0.2,
3141,-0.845,-0.18,
3142,-0.82,-0.145,
3143,-0.775,-0.115,
3144,-0.755,-0.085,
3145,-0.73,-0.08,
3146,-0.7,-0.065,
3147,-0.67,-0.025,
3148,-0.65,0.005,
3149,-0.625,0.025,
3150,-0.61,0.055,
3151,-0.605,0.055,
3152,-0.59,0.065,
3153,-0.555,0.09,
3154,-0.515,0.12,
3155,-0.49,0.12,
3156,-0.49,0.135,
3157,-0.48,0.125,
3158,-0.49,0.135,
3159,-0.465,0.145,
3160,-0.455,0.165,
3161,-0.455,0.16,
3162,-0.445,0.16,
3163,-0.45,0.15,
3164,-0.46,0.155,
3165,-0.465,0.165,
3166,-0.46,0.17,
3167,-0.465,0.18,
3168,-0.455,0.175,
3169,-0.475,0.185,
3170,-0.475,0.17,
3171,-0.475,0.19,
3172,-0.46,0.2,
3173,-0.465,0.19,
3174,-0.46,0.185,
3175,-0.475,0.18,
3176,-0.485,0.195,
3177,-0.495,0.21,
3178,-0.485,0.22,
3179,-0.48,0.225,
3180,-0.48,0.225,
3181,-0.5,0.225,
3182,-0.51,0.235,
3183,-0.505,0.245,
3184,-0.49,0.26,
3185,-0.49,0.26,
3186,-0.495,0.245,
3187,-0.495,0.24,
3188,-0.5,0.245,
3189,-0.5,0.25,
3190,-0.485,0.26,
3191,-0.47,0.265,
3192,-0.475,0.255,
3193,-0.47,0.25,
3194,-0.475,0.25,
3195,-0.47,0.265,
3196,-0.45,0.27,
3197,-0.435,0.275,
3198,-0.435,0.265,
3199,-0.435,0.27,
3200,-0.43,0.26,
3201,-0.415,0.26,
3202,-0.41,0.275,
3203,-0.39,0.27,
3204,-0.39,0.275,
3205,-0.385,0.255,
3206,-0.385,0.25,
3207,-0.375,0.255,
3208,-0.365,0.265,
3209,-0.335,0.26,
3210,-0.315,0.25,
3211,-0.31,0.245,
3212,-0.315,0.24,
3213,-0.305,0.235,
3214,-0.285,0.245,
3215,-0.255,0.255,
3216,-0.245,0.24,
3217,-0.235,0.245,
3218,-0.24,0.235,
3219,-0.225,0.23,
3220,-0.215,0.245,
3221,-0.175,0.225,
3222,-0.16,0.215,
3223,-0.145,0.195,
3224,-0.155,0.2,
3225,-0.15,0.2,
3226,-0.135,0.21,
3227,-0.12,0.205,
3228,-0.12,0.195,
3229,-0.11,0.16,
3230,-0.11,0.165,
3231,-0.1,0.17,
3232,-0.08,0.17,
3233,-0.06,0.175,
3234,-0.05,0.16,
3235,-0.045,0.145,
3236,-0.055,0.135,
3237,-0.04,0.14,
3238,-0.04,0.135,
3239,-0.01,0.135,
3240,0.015,0.125,
3241,0.02,0.11,
3242,0.015,0.12,
3243,0.0,0.12,
3244,0.01,0.135,
3245,0.025,0.12,
3246,0.025,0.115,
3247,0.02,0.1,
3248,0.015,0.095,
3249,0.015,0.085,
3250,0.025,0.09,
3251,0.015,0.08,
3252,-0.005,0.065,
3253,-0.025,0.065,
3254,-0.035,0.05,
3255,-0.025,0.055,
3256,0.0,0.08,
3257,0.025,0.07,
3258,0.03,0.055,
3259,0.015,0.055,
3260,-0.005,0.065,
3261,-0.015,0.075,
3262,-0.005,0.11,
3263,-0.005,0.145,
3264,-0.005,0.19,
3265,-0.03,0.195,
3266,-0.035,0.185,
3267,-0.035,0.165,
3268,-0.035,0.125,
3269,-0.03,0.105,
3270,-0.035,0.08,
3271,-0.06,0.11,
3272,-0.065,0.135,
3273,-0.05,0.15,
3274,-0.04,0.135,
3275,-0.045,0.1,
3276,-0.06,0.06,
3277,-0.095,0.015,
3278,-0.135,-0.02,
3279,-0.16,-0.03,
3280,-0.18,-0.025,
3281,-0.2,-0.005,
3282,-0.225,-0.01,
3283,-0.265,0.0,
3284,-0.29,0.015,
3285,-0.32,0.04,
3286,-0.325,0.06,
3287,-0.335,0.075,
3288,-0.345,0.08,
3289,-0.36,0.07,
3290,-0.385,0.08,
3291,-0.37,0.08,
3292,-0.36,0.09,
3293,-0.335,0.095,
3294,-0.345,0.075,
3295,-0.345,0.07,
3296,-0.36,0.075,
3297,-0.365,0.075,
3298,-0.35,0.085,
3299,-0.335,0.08,
3300,-0.34,0.075,
3301,-0.355,0.06,
3302,-0.365,0.055,
3303,-0.36,0.07,
3304,-0.345,0.08,
3305,-0.335,0.085,
3306,-0.345,0.075,
3307,-0.36,0.065,
3308,-0.365,0.07,
3309,-0.36,0.07,
3310,-0.35,0.095,
3311,-0.335,0.07,
3312,-0.345,0.065,
3313,-0.35,0.065,
3314,-0.375,0.065,
3315,-0.35,0.075,
3316,-0.34,0.075,
3317,-0.32,0.08,
3318,-0.325,0.075,
3319,-0.335,0.075,
3320,-0.345,0.065,
3321,-0.345,0.07,
3322,-0.34,0.08,
3323,-0.33,0.075,
3324,-0.305,0.075,
3325,-0.315,0.075,
3326,-0.33,0.07,
3327,-0.33,0.085,
3328,-0.31,0.1,
3329,-0.315,0.1,
3330,-0.31,0.11,
3331,-0.325,0.125,
3332,-0.355,0.14,
3333,-0.35,0.165,
3334,-0.305,0.185,
3335,-0.22,0.185,
3336,-0.11,0.16,
3337,0.02,0.1,
3338,0.12,0.05,
3339,0.2,-0.01,
3340,0.285,-0.085,
3341,0.345,-0.165,
3342,0.395,-0.22,
3343,0.43,-0.295,
3344,0.495,-0.365,
3345,0.565,-0.47,
3346,0.655,-0.585,
3347,0.74,-0.725,
3348,0.805,-0.855,
3349,0.82,-0.96,
3350,0.795,-1.0,
3351,0.755,-0.98,
3352,0.73,-0.94,L
3353,0.7,-0.89,
3354,0.65,-0.85,
3355,0.56,-0.815,
3356,0.445,-0.765,
3357,0.365,-0.705,
3358,0.295,-0.665,
3359,0.21,-0.61,
3360,0.11,-0.545,
3361,0.005,-0.515,
3362,-0.15,-0.465,
3363,-0.305,-0.39,
3364,-0.45,-0.35,
3365,-0.555,-0.315,
3366,-0.66,-0.295,
3367,-0.77,-0.275,
3368,-0.87,-0.25,
3369,-0.925,-0.195,
3370,-0.95,-0.14,
3371,-0.97,-0.115,
3372,-0.96,-0.115,
3373,-0.975,-0.1,
3374,-0.975,-0.08,
3375,-0.95,-0.05,
3376,-0.94,-0.02,
3377,-0.915,0.0,
3378,-0.895,0.025,
3379,-0.86,0.035,
3380,-0.84,0.06,
3381,-0.82,0.09,
3382,-0.775,0.125,
3383,-0.75,0.14,
3384,-0.72,0.15,
3385,-0.725,0.16,
3386,-0.705,0.165,
3387,-0.685,0.185,
3388,-0.64,0.205,
3389,-0.61,0.22,
3390,-0.61,0.22,
3391,-0.6,0.215,
3392,-0.61,0.22,
3393,-0.575,0.24,
3394,-0.545,0.25,
3395,-0.53,0.24,
3396,-0.53,0.24,
3397,-0.545,0.235,
3398,-0.555,0.235,
3399,-0.56,0.23,
3400,-0.555,0.245,
3401,-0.55,0.245,
3402,-0.545,0.245,
3403,-0.56,0.24,
3404,-0.565,0.225,
3405,-0.565,0.255,
3406,-0.565,0.27,
3407,-0.54,0.26,
3408,-0.56,0.26,
3409,-0.565,0.25,
3410,-0.58,0.265,
3411,-0.565,0.275,
3412,-0.555,0.27,
3413,-0.54,0.275,
3414,-0.55,0.265,
3415,-0.56,0.27,
3416,-0.56,0.27,
3417,-0.545,0.275,
3418,-0.54,0.285,
3419,-0.525,0.29,
3420,-0.535,0.275,
3421,-0.535,0.275,
3422,-0.545,0.28,
3423,-0.535,0.29,
3424,-0.525,0.285,
3425,-0.51,0.3,
3426,-0.505,0.295,
3427,-0.5,0.29,
3428,-0.5,0.295,
3429,-0.475,0.305,
3430,-0.46,0.295,
3431,-0.435,0.3,
3432,-0.435,0.29,
3433,-0.445,0.285,
3434,-0.445,0.275,
3435,-0.42,0.28,
3436,-0.41,0.285,
3437,-0.395,0.29,
3438,-0.385,0.285,
3439,-0.4,0.27,
3440,-0.38,0.275,
3441,-0.37,0.28,
3442,-0.36,0.275,
3443,-0.34,0.285,
3444,-0.32,0.265,
3445,-0.325,0.25,
3446,-0.33,0.26,
3447,-0.315,0.255,
3448,-0.285,0.27,
3449,-0.265,0.275,
3450,-0.255,0.255,
3451,-0.23,0.25,
3452,-0.225,0.255,
3453,-0.21,0.27,
3454,-0.205,0.275,
3455,-0.175,0.24,
3456,-0.175,0.22,
3457,-0.16,0.19,
3458,-0.175,0.195,
3459,-0.17,0.2,
3460,-0.16,0.2,
3461,-0.135,0.19,
3462,-0.14,0.2,
3463,-0.135,0.18,
3464,-0.135,0.18,
3465,-0.12,0.18,
3466,-0.11,0.19,
3467,-0.1,0.185,
3468,-0.085,0.195,
3469,-0.085,0.195,
3470,-0.09,0.2,
3471,-0.065,0.2,
3472,-0.05,0.205,
3473,-0.04,0.165,
3474,-0.05,0.135,
3475,-0.045,0.125,
3476,-0.05,0.13,
3477,-0.04,0.135,
3478,-0.02,0.145,
3479,-0.015,0.12,
3480,-0.035,0.105,
3481,-0.055,0.065,
3482,-0.075,0.075,
3483,-0.085,0.085,
3484,-0.05,0.075,
3485,-0.04,0.075,
3486,-0.04,0.075,
3487,-0.05,0.07,
3488,-0.055,0.065,
3489,-0.075,0.085,
3490,-0.075,0.085,
3491,-0.065,0.08,
3492,-0.065,0.075,
3493,-0.075,0.07,
3494,-0.08,0.075,
3495,-0.085,0.075,
3496,-0.075,0.085,
3497,-0.065,0.085,
3498,-0.07,0.085,
3499,-0.075,0.065,
3500,-0.095,0.065,
3501,-0.105,0.075,
3502,-0.09,0.095,
3503,-0.08,0.095,
3504,-0.08,0.09,
3505,-0.09,0.085,
3506,-0.11,0.09,
3507,-0.13,0.105,
3508,-0.135,0.115,
3509,-0.17,0.115,
3510,-0.185,0.105,
3511,-0.225,0.1,
3512,-0.265,0.1,
3513,-0.29,0.115,
3514,-0.305,0.12,
3515,-0.325,0.12,
3516,-0.34,0.12,
3517,-0.365,0.125,
3518,-0.36,0.15,
3519,-0.355,0.165,
3520,-0.35,0.17,
3521,-0.355,0.17,
3522,-0.36,0.145,
3523,-0.365,0.11,
3524,-0.375,0.1,
3525,-0.365,0.11,
3526,-0.365,0.105,
3527,-0.35,0.095,
3528,-0.36,0.095,
3529,-0.38,0.07,
3530,-0.37,0.07,
3531,-0.37,0.08,
3532,-0.35,0.08,
3533,-0.355,0.08,
3534,-0.375,0.09,
3535,-0.38,0.09,
3536,-0.395,0.085,
3537,-0.38,0.085,
3538,-0.365,0.095,
3539,-0.355,0.095,
3540,-0.335,0.095,
3541,-0.355,0.095,
3542,-0.365,0.08,
3543,-0.365,0.08,
3544,-0.37,0.105,
3545,-0.355,0.09,
3546,-0.36,0.08,
3547,-0.36,0.09,
3548,-0.37,0.09,
3549,-0.36,0.095,
3550,-0.365,0.105,
3551,-0.35,0.085,
3552,-0.35,0.095,
3553,-0.345,0.075,
3554,-0.37,0.085,
3555,-0.365,0.095,
3556,-0.355,0.09,
3557,-0.35,0.11,
3558,-0.345,0.09,
3559,-0.34,0.085,
3560,-0.33,0.09,
3561,-0.325,0.115,
3562,-0.32,0.14,
3563,-0.335,0.145,
3564,-0.36,0.17,
3565,-0.38,0.165,
3566,-0.39,0.175,
3567,-0.365,0.2,
3568,-0.32,0.205,
3569,-0.205,0.175,
3570,-0.08,0.125,
3571,0.025,0.075,
3572,0.085,0.005,
3573,0.145,-0.05,
3574,0.17,-0.105,
3575,0.195,-0.175,
3576,0.24,-0.26,
3577,0.295,-0.38,
3578,0.355,-0.525,
3579,0.43,-0.665,
3580,0.51,-0.785,
3581,0.585,-0.9,
3582,0.595,-0.965,
3583,0.59,-0.98,
3584,0.55,-0.98,
3585,0.545,-0.955,
3586,0.54,-0.915,L
3587,0.53,-0.9,
3588,0.505,-0.85,
3589,0.435,-0.795,
3590,0.36,-0.74,
3591,0.3,-0.68,
3592,0.235,-0.615,
3593,0.175,-0.56,
3594,0.11,-0.51,
3595,0.0,-0.47,
3596,-0.125,-0.425,
3597,-0.245,-0.375,
3598,-0.355,-0.32,
3599,-0.465,-0.29,
3600,-0.595,-0.27,
3601,-0.7,-0.255,
3602,-0.79,-0.22,
3603,-0.84,-0.16,
3604,-0.855,-0.115,
3605,-0.865,-0.1,
3606,-0.87,-0.08,
3607,-0.885,-0.085,
3608,-0.89,-0.05,
3609,-0.89,-0.015,
3610,-0.875,0.02,
3611,-0.855,0.03,
3612,-0.84,0.065,
3613,-0.825,0.065,
3614,-0.79,0.085,
3615,-0.755,0.115,
3616,-0.725,0.145,
3617,-0.705,0.165,
3618,-0.69,0.175,
3619,-0.685,0.185,
3620,-0.67,0.2,
3621,-0.635,0.22,
3622,-0.6,0.24,
3623,-0.585,0.245,
3624,-0.575,0.245,
3625,-0.565,0.24,
3626,-0.57,0.24,
3627,-0.56,0.26,
3628,-0.54,0.265,
3629,-0.525,0.27,
3630,-0.53,0.265,
3631,-0.54,0.25,
3632,-0.54,0.255,
3633,-0.545,0.265,
3634,-0.54,0.28,
3635,-0.53,0.275,
3636,-0.54,0.275,
3637,-0.545,0.28,
3638,-0.56,0.265,
3639,-0.57,0.285,
3640,-0.55,0.3,
3641,-0.53,0.295,
3642,-0.525,0.285,
3643,-0.535,0.29,
3644,-0.55,0.29,
3645,-0.56,0.305,
3646,-0.54,0.31,
3647,-0.535,0.315,
3648,-0.535,0.315,
3649,-0.535,0.305,
3650,-0.535,0.31,
3651,-0.54,0.32,
3652,-0.545,0.335,
3653,-0.555,0.345,
3654,-0.55,0.35,
3655,-0.545,0.335,
3656,-0.545,0.345,
3657,-0.535,0.34,
3658,-0.525,0.35,
3659,-0.51,0.355,
3660,-0.505,0.35,
3661,-0.485,0.335,
3662,-0.5,0.335,
3663,-0.485,0.35,
3664,-0.46,0.355,
3665,-0.435,0.355,
3666,-0.44,0.335,
3667,-0.44,0.335,
3668,-0.435,0.325,
3669,-0.415,0.345,
3670,-0.4,0.35,
3671,-0.395,0.33,
3672,-0.38,0.335,
3673,-0.39,0.315,
3674,-0.37,0.315,
3675,-0.35,0.33,
3676,-0.33,0.32,
3677,-0.315,0.315,
3678,-0.31,0.315,
3679,-0.3,0.305,
3680,-0.305,0.3,
3681,-0.29,0.295,
3682,-0.275,0.31,
3683,-0.25,0.295,
3684,-0.23,0.28,
3685,-0.23,0.27,
3686,-0.245,0.27,
3687,-0.23,0.27,
3688,-0.21,0.275,
3689,-0.185,0.27,
3690,-0.165,0.25,
3691,-0.165,0.24,
3692,-0.175,0.22,
3693,-0.165,0.23,
3694,-0.16,0.24,
3695,-0.135,0.225,
3696,-0.14,0.215,
3697,-0.155,0.19,
3698,-0.17,0.165,
3699,-0.155,0.185,
3700,-0.14,0.195,
3701,-0.12,0.195,
3702,-0.105,0.205,
3703,-0.1,0.185,
3704,-0.09,0.185,
3705,-0.08,0.195,
3706,-0.065,0.195,
3707,-0.055,0.185,
3708,-0.06,0.18,
3709,-0.06,0.165,
3710,-0.055,0.16,
3711,-0.05,0.185,
3712,-0.055,0.195,
3713,-0.065,0.17,
3714,-0.095,0.135,
3715,-0.1,0.09,
3716,-0.1,0.095,
3717,-0.085,0.1,
3718,-0.07,0.08,
3719,-0.06,0.055,
3720,-0.06,0.025,
3721,-0.06,0.035,
3722,-0.055,0.03,
3723,-0.05,0.035,
3724,-0.045,0.065,
3725,-0.035,0.075,
3726,-0.03,0.085,
3727,-0.055,0.1,
3728,-0.075,0.11,
3729,-0.095,0.13,
3730,-0.12,0.16,
3731,-0.125,0.2,
3732,-0.13,0.225,
3733,-0.14,0.25,
3734,-0.14,0.305,
3735,-0.135,0.375,
3736,-0.135,0.5,
3737,-0.16,0.605,
3738,-0.18,0.57,
3739,-0.215,0.42,
3740,-0.215,0.225,
3741,-0.215,0.09,
3742,-0.215,0.02,
3743,-0.245,0.0,
3744,-0.31,0.015,
3745,-0.385,0.035,
3746,-0.405,0.025,
3747,-0.38,0.015,
3748,-0.345,-0.02,
3749,-0.33,-0.03,
3750,-0.34,-0.025,
3751,-0.395,-0.015,
3752,-0.44,0.02,
3753,-0.435,0.04,
3754,-0.425,0.07,
3755,-0.405,0.075,
3756,-0.395,0.075,
3757,-0.4,0.075,
3758,-0.41,0.09,
3759,-0.395,0.08,
3760,-0.39,0.09,
3761,-0.395,0.11,
3762,-0.39,0.1,
3763,-0.395,0.09,
3764,-0.4,0.095,
3765,-0.385,0.095,
3766,-0.39,0.1,
3767,-0.37,0.105,
3768,-0.38,0.09,
3769,-0.385,0.085,
3770,-0.39,0.09,
3771,-0.385,0.085,
3772,-0.37,0.105,
3773,-0.355,0.1,
3774,-0.365,0.09,
3775,-0.38,0.07,
3776,-0.38,0.085,
3777,-0.385,0.07,
3778,-0.37,0.105,
3779,-0.355,0.09,
3780,-0.37,0.085,
3781,-0.375,0.075,
3782,-0.365,0.075,
3783,-0.355,0.08,
3784,-0.35,0.08,
3785,-0.345,0.095,
3786,-0.34,0.095,
3787,-0.34,0.085,
3788,-0.355,0.09,
3789,-0.37,0.115,
3790,-0.36,0.145,
3791,-0.385,0.17,
3792,-0.39,0.185,
3793,-0.405,0.185,
3794,-0.41,0.195,
3795,-0.37,0.215,
3796,-0.29,0.195,
3797,-0.17,0.145,
3798,-0.065,0.085,
3799,0.015,0.0,
3800,0.055,-0.075,
3801,0.08,-0.135,
3802,0.115,-0.185,
3803,0.195,-0.28,
3804,0.275,-0.425,
3805,0.365,-0.59,
3806,0.435,-0.755,
3807,0.505,-0.865,
3808,0.57,-0.93,
3809,0.61,-0.965,
3810,0.625,-0.985,
3811,0.61,-0.995,
3812,0.6,-0.97,
3813,0.6,-0.93,L
3814,0.565,-0.855,
3815,0.515,-0.815,
3816,0.425,-0.75,
3817,0.34,-0.7,
3818,0.275,-0.64,
3819,0.23,-0.57,
3820,0.17,-0.52,
3821,0.065,-0.465,
3822,-0.05,-0.43,
3823,-0.195,-0.39,
3824,-0.33,-0.35,
3825,-0.465,-0.295,
3826,-0.58,-0.25,
3827,-0.665,-0.235,
3828,-0.725,-0.215,
3829,-0.785,-0.19,
3830,-0.825,-0.16,
3831,-0.85,-0.125,
3832,-0.855,-0.105,
3833,-0.86,-0.085,
3834,-0.84,-0.07,
3835,-0.85,-0.05,
3836,-0.87,-0.015,
3837,-0.87,0.01,
3838,-0.845,0.05,
3839,-0.81,0.07,
3840,-0.775,0.08,
3841,-0.755,0.1,
3842,-0.76,0.1,
3843,-0.715,0.15,
3844,-0.695,0.175,
3845,-0.68,0.19,
3846,-0.65,0.205,
3847,-0.64,0.21,
3848,-0.615,0.22,
3849,-0.595,0.24,
3850,-0.57,0.26,
3851,-0.545,0.25,
3852,-0.54,0.265,
3853,-0.53,0.255,
3854,-0.55,0.265,
3855,-0.54,0.26,
3856,-0.52,0.28,
3857,-0.51,0.285,
3858,-0.5,0.28,
3859,-0.515,0.275,
3860,-0.53,0.275,
3861,-0.52,0.28,
3862,-0.51,0.295,
3863,-0.505,0.31,
3864,-0.525,0.305,
3865,-0.535,0.29,
3866,-0.55,0.295,
3867,-0.55,0.305,
3868,-0.545,0.32,
3869,-0.535,0.32,
3870,-0.525,0.325,
3871,-0.535,0.31,
3872,-0.545,0.32,
3873,-0.545,0.33,
3874,-0.53,0.345,
3875,-0.53,0.34,
3876,-0.54,0.35,
3877,-0.535,0.34,
3878,-0.55,0.345,
3879,-0.545,0.36,
3880,-0.535,0.365,
3881,-0.525,0.36,
3882,-0.525,0.355,
3883,-0.53,0.355,
3884,-0.525,0.36,
3885,-0.52,0.36,
3886,-0.51,0.385,
3887,-0.485,0.375,
3888,-0.485,0.375,
3889,-0.495,0.365,
3890,-0.5,0.375,
3891,-0.475,0.375,
3892,-0.46,0.38,
3893,-0.435,0.385,
3894,-0.435,0.385,
3895,-0.425,0.38,
3896,-0.41,0.405,
3897,-0.39,0.45,
3898,-0.365,0.48,
3899,-0.36,0.52,
3900,-0.35,0.495,
3901,-0.335,0.44,
3902,-0.345,0.39,
3903,-0.345,0.355,
3904,-0.33,0.35,
3905,-0.325,0.365,
3906,-0.32,0.395,
3907,-0.315,0.42,
3908,-0.32,0.445,
3909,-0.305,0.49,
3910,-0.3,0.555,
3911,-0.285,0.585,
3912,-0.24,0.49,
3913,-0.2,0.355,
3914,-0.17,0.21,
3915,-0.165,0.155,
3916,-0.17,0.145,
3917,-0.19,0.16,
3918,-0.215,0.17,
3919,-0.245,0.18,
3920,-0.235,0.175,
3921,-0.215,0.19,
3922,-0.18,0.205,
3923,-0.165,0.195,
3924,-0.145,0.205,
3925,-0.135,0.2,
3926,-0.14,0.18,
3927,-0.11,0.185,
3928,-0.085,0.17,
3929,-0.055,0.16,
3930,-0.045,0.145,
3931,-0.045,0.13,
3932,-0.05,0.135,
3933,-0.04,0.145,
3934,-0.03,0.16,
3935,-0.01,0.16,
3936,-0.015,0.15,
3937,-0.01,0.145,
3938,-0.03,0.135,
3939,-0.04,0.135,
3940,-0.035,0.135,
3941,-0.045,0.12,
3942,-0.055,0.11,
3943,-0.055,0.105,
3944,-0.06,0.095,
3945,-0.04,0.095,
3946,-0.025,0.115,
3947,-0.015,0.11,
3948,-0.01,0.09,
3949,-0.025,0.095,
3950,-0.04,0.09,
3951,-0.035,0.095,
3952,-0.035,0.11,
3953,-0.025,0.115,
3954,-0.05,0.11,
3955,-0.07,0.115,
3956,-0.075,0.095,
3957,-0.075,0.1,
3958,-0.06,0.115,
3959,-0.06,0.115,
3960,-0.055,0.105,
3961,-0.07,0.105,
3962,-0.07,0.115,
3963,-0.07,0.135,
3964,-0.085,0.13,
3965,-0.105,0.125,
3966,-0.155,0.12,
3967,-0.185,0.125,
3968,-0.22,0.13,
3969,-0.245,0.13,
3970,-0.275,0.155,
3971,-0.29,0.15,
3972,-0.31,0.135,
3973,-0.325,0.135,
3974,-0.36,0.145,
3975,-0.35,0.145,
3976,-0.355,0.16,
3977,-0.355,0.165,
3978,-0.36,0.145,
3979,-0.36,0.14,
3980,-0.375,0.135,
3981,-0.395,0.145,
3982,-0.37,0.155,
3983,-0.375,0.145,
3984,-0.37,0.13,
3985,-0.38,0.13,
3986,-0.4,0.125,
3987,-0.39,0.135,
3988,-0.38,0.135,
3989,-0.37,0.135,
3990,-0.375,0.145,
3991,-0.4,0.13,
3992,-0.4,0.125,
3993,-0.385,0.13,
3994,-0.38,0.14,
3995,-0.365,0.135,
3996,-0.365,0.12,
3997,-0.39,0.11,
3998,-0.385,0.11,
3999,-0.375,0.12,
4000,-0.365,0.13,
4001,-0.35,0.13,
4002,-0.36,0.12,
4003,-0.37,0.115,
4004,-0.375,0.115,
4005,-0.365,0.13,
4006,-0.365,0.135,
4007,-0.36,0.14,
4008,-0.35,0.125,
4009,-0.355,0.125,
4010,-0.36,0.125,
4011,-0.355,0.125,
4012,-0.345,0.14,
4013,-0.335,0.14,
4014,-0.335,0.14,
4015,-0.35,0.125,
4016,-0.36,0.135,
4017,-0.37,0.16,
4018,-0.36,0.19,
4019,-0.375,0.21,
4020,-0.405,0.24,
4021,-0.425,0.245,
4022,-0.425,0.255,
4023,-0.38,0.25,
4024,-0.3,0.23,
4025,-0.2,0.195,
4026,-0.09,0.135,
4027,0.005,0.05,
4028,0.075,-0.04,
4029,0.125,-0.105,
4030,0.165,-0.17,
4031,0.245,-0.28,
4032,0.345,-0.415,
4033,0.455,-0.58,
4034,0.535,-0.755,
4035,0.64,-0.89,
4036,0.725,-0.96,
4037,0.785,-1.005,
4038,0.82,-1.035,
4039,0.82,-1.05,
4040,0.795,-1.04,
4041,0.775,-0.995,L
4042,0.755,-0.93,
4043,0.7,-0.885,
4044,0.6,-0.825,
4045,0.5,-0.765,
4046,0.41,-0.695,
4047,0.33,-0.62,
4048,0.27,-0.55,
4049,0.17,-0.51,
4050,0.05,-0.46,
4051,-0.105,-0.415,
4052,-0.265,-0.365,
4053,-0.385,-0.33,
4054,-0.5,-0.27,
4055,-0.62,-0.24,
4056,-0.745,-0.22,
4057,-0.81,-0.19,
4058,-0.86,-0.155,
4059,-0.895,-0.125,
4060,-0.905,-0.1,
4061,-0.9,-0.075,
4062,-0.9,-0.05,
4063,-0.915,-0.04,
4064,-0.93,-0.015,
4065,-0.915,0.025,
4066,-0.895,0.05,
4067,-0.855,0.075,
4068,-0.82,0.095,
4069,-0.785,0.115,
4070,-0.775,0.14,
4071,-0.745,0.17,
4072,-0.715,0.2,
4073,-0.71,0.225,
4074,-0.68,0.23,
4075,-0.67,0.25,
4076,-0.67,0.25,
4077,-0.635,0.28,
4078,-0.61,0.305,
4079,-0.58,0.305,
4080,-0.565,0.305,
4081,-0.575,0.29,
4082,-0.57,0.305,
4083,-0.555,0.305,
4084,-0.545,0.32,
4085,-0.545,0.32,
4086,-0.53,0.31,
4087,-0.545,0.3,
4088,-0.56,0.315,
4089,-0.55,0.335,
4090,-0.535,0.345,
4091,-0.535,0.335,
4092,-0.545,0.33,
4093,-0.55,0.33,
4094,-0.555,0.335,
4095,-0.56,0.34,
4096,-0.555,0.355,
4097,-0.555,0.355,
4098,-0.56,0.36,
4099,-0.57,0.355,
4100,-0.58,0.375,
4101,-0.565,0.365,
4102,-0.55,0.38,
4103,-0.55,0.375,
4104,-0.55,0.385,
4105,-0.56,0.375,
4106,-0.575,0.375,
4107,-0.565,0.405,
4108,-0.56,0.405,
4109,-0.555,0.4,
4110,-0.54,0.395,
4111,-0.55,0.39,
4112,-0.55,0.39,
4113,-0.56,0.405,
4114,-0.545,0.42,
4115,-0.53,0.41,
4116,-0.515,0.405,
4117,-0.515,0.4,
4118,-0.525,0.4,
4119,-0.505,0.405,
4120,-0.49,0.41,
4121,-0.485,0.41,
4122,-0.47,0.4,
4123,-0.46,0.4,
4124,-0.465,0.39,
4125,-0.45,0.405,
4126,-0.43,0.415,
4127,-0.41,0.405,
4128,-0.395,0.395,
4129,-0.395,0.38,
4130,-0.39,0.38,
4131,-0.385,0.395,
4132,-0.365,0.395,
4133,-0.32,0.385,
4134,-0.32,0.375,
4135,-0.31,0.36,
4136,-0.32,0.355,
4137,-0.295,0.365,
4138,-0.275,0.365,
4139,-0.265,0.355,
4140,-0.265,0.355,
4141,-0.25,0.335,
4142,-0.245,0.315,
4143,-0.235,0.33,
4144,-0.21,0.335,
4145,-0.195,0.33,
4146,-0.185,0.315,
4147,-0.18,0.3,
4148,-0.185,0.295,
4149,-0.17,0.3,
4150,-0.15,0.305,
4151,-0.145,0.295,
4152,-0.13,0.28,
4153,-0.135,0.265,
4154,-0.135,0.265,
4155,-0.12,0.27,
4156,-0.1,0.275,
4157,-0.075,0.26,
4158,-0.065,0.255,
4159,-0.055,0.24,
4160,-0.055,0.235,
4161,-0.045,0.245,
4162,-0.015,0.245,
4163,-0.005,0.23,
4164,-0.01,0.215,
4165,-0.005,0.195,
4166,-0.025,0.19,
4167,-0.02,0.205,
4168,-0.04,0.195,
4169,-0.03,0.18,
4170,-0.03,0.175,
4171,-0.04,0.155,
4172,-0.05,0.15,
4173,-0.04,0.15,
4174,-0.035,0.17,
4175,-0.02,0.145,
4176,-0.01,0.15,
4177,-0.02,0.145,
4178,-0.03,0.14,
4179,-0.035,0.145,
4180,-0.03,0.145,
4181,-0.025,0.15,
4182,-0.03,0.155,
4183,-0.035,0.145,
4184,-0.055,0.15,
4185,-0.065,0.145,
4186,-0.07,0.16,
4187,-0.055,0.16,
4188,-0.07,0.145,
4189,-0.07,0.15,
4190,-0.08,0.145,
4191,-0.08,0.165,
4192,-0.075,0.18,
4193,-0.095,0.18,
4194,-0.12,0.185,
4195,-0.16,0.17,
4196,-0.22,0.17,
4197,-0.24,0.17,
4198,-0.265,0.195,
4199,-0.275,0.19,
4200,-0.3,0.175,
4201,-0.335,0.175,
4202,-0.355,0.18,
4203,-0.35,0.195,
4204,-0.36,0.205,
4205,-0.355,0.19,
4206,-0.36,0.19,
4207,-0.38,0.19,
4208,-0.405,0.19,
4209,-0.4,0.19,
4210,-0.385,0.195,
4211,-0.375,0.19,
4212,-0.37,0.185,
4213,-0.38,0.17,
4214,-0.395,0.175,
4215,-0.39,0.185,
4216,-0.38,0.2,
4217,-0.38,0.18,
4218,-0.385,0.18,
4219,-0.39,0.17,
4220,-0.395,0.155,
4221,-0.39,0.18,
4222,-0.38,0.185,
4223,-0.38,0.17,
4224,-0.39,0.155,
4225,-0.395,0.165,
4226,-0.415,0.165,
4227,-0.395,0.175,
4228,-0.385,0.18,
4229,-0.37,0.185,
4230,-0.37,0.17,
4231,-0.37,0.165,
4232,-0.39,0.165,
4233,-0.395,0.175,
4234,-0.395,0.185,
4235,-0.38,0.185,
4236,-0.375,0.17,
4237,-0.38,0.16,
4238,-0.395,0.16,
4239,-0.385,0.17,
4240,-0.375,0.185,
4241,-0.365,0.195,
4242,-0.37,0.19,
4243,-0.375,0.19,
4244,-0.4,0.205,
4245,-0.405,0.24,
4246,-0.425,0.28,
4247,-0.415,0.295,
4248,-0.4,0.29,
4249,-0.37,0.3,
4250,-0.255,0.27,
4251,-0.1,0.22,
4252,0.07,0.155,
4253,0.185,0.05,
4254,0.27,-0.07,
4255,0.32,-0.175,
4256,0.375,-0.265,
4257,0.49,-0.395,
4258,0.61,-0.56,
4259,0.715,-0.76,
4260,0.82,-0.915,
4261,0.9,-1.005,
4262,0.92,-1.035,
4263,0.93,-1.02,
4264,0.91,-1.0,L
4265,0.885,-0.96,
4266,0.815,-0.91,
4267,0.705,-0.845,
4268,0.57,-0.785,
4269,0.44,-0.7,
4270,0.325,-0.63,
4271,0.24,-0.565,
4272,0.11,-0.51,
4273,-0.025,-0.455,
4274,-0.205,-0.395,
4275,-0.375,-0.32,
4276,-0.515,-0.265,
4277,-0.645,-0.23,
4278,-0.785,-0.21,
4279,-0.9,-0.18,
4280,-0.98,-0.14,
4281,-1.01,-0.09,
4282,-1.03,-0.055,
4283,-1.04,-0.025,
4284,-1.02,-0.015,
4285,-1.015,0.01,
4286,-1.025,0.03,
4287,-1.01,0.065,
4288,-0.99,0.115,
4289,-0.955,0.14,
4290,-0.905,0.155,
4291,-0.87,0.17,
4292,-0.84,0.185,
4293,-0.83,0.22,
4294,-0.79,0.25,
4295,-0.78,0.275,
4296,-0.75,0.28,
4297,-0.735,0.305,
4298,-0.715,0.305,
4299,-0.685,0.33,
4300,-0.655,0.36,
4301,-0.63,0.355,
4302,-0.62,0.355,
4303,-0.62,0.355,
4304,-0.635,0.355,
4305,-0.625,0.36,
4306,-0.61,0.375,
4307,-0.605,0.375,
4308,-0.61,0.36,
4309,-0.625,0.37,
4310,-0.63,0.365,
4311,-0.635,0.38,
4312,-0.63,0.4,
4313,-0.62,0.385,
4314,-0.625,0.39,
4315,-0.64,0.38,
4316,-0.64,0.365,
4317,-0.64,0.395,
4318,-0.645,0.4,
4319,-0.64,0.42,
4320,-0.645,0.405,
4321,-0.635,0.405,
4322,-0.65,0.41,
4323,-0.65,0.43,
4324,-0.63,0.43,
4325,-0.63,0.425,
4326,-0.625,0.42,
4327,-0.64,0.425,
4328,-0.645,0.425,
4329,-0.635,0.445,
4330,-0.625,0.45,
4331,-0.61,0.44,
4332,-0.61,0.45,
4333,-0.615,0.445,
4334,-0.615,0.44,
4335,-0.595,0.45,
4336,-0.58,0.45,
4337,-0.565,0.45,
4338,-0.57,0.445,
4339,-0.565,0.44,
4340,-0.55,0.435,
4341,-0.53,0.44,
4342,-0.51,0.445,
4343,-0.49,0.45,
4344,-0.495,0.42,
4345,-0.475,0.425,
4346,-0.48,0.415,
4347,-0.46,0.435,
4348,-0.44,0.44,
4349,-0.42,0.42,
4350,-0.405,0.425,
4351,-0.395,0.405,
4352,-0.385,0.405,
4353,-0.375,0.415,
4354,-0.36,0.4,
4355,-0.33,0.395,
4356,-0.305,0.38,
4357,-0.305,0.38,
4358,-0.325,0.365,
4359,-0.3,0.38,
4360,-0.28,0.385,
4361,-0.255,0.38,
4362,-0.24,0.36,
4363,-0.235,0.335,
4364,-0.225,0.345,
4365,-0.215,0.335,
4366,-0.205,0.35,
4367,-0.185,0.34,
4368,-0.17,0.33,
4369,-0.17,0.315,
4370,-0.165,0.315,
4371,-0.145,0.315,
4372,-0.115,0.315,
4373,-0.1,0.305,
4374,-0.1,0.3,
4375,-0.105,0.275,
4376,-0.095,0.29,
4377,-0.095,0.28,
4378,-0.08,0.28,
4379,-0.075,0.275,
4380,-0.08,0.26,
4381,-0.085,0.24,
4382,-0.11,0.225,
4383,-0.115,0.22,
4384,-0.11,0.22,
4385,-0.11,0.215,
4386,-0.095,0.215,
4387,-0.095,0.205,
4388,-0.085,0.195,
4389,-0.07,0.195,
4390,-0.08,0.205,
4391,-0.07,0.205,
4392,-0.09,0.19,
4393,-0.095,0.185,
4394,-0.1,0.19,
4395,-0.095,0.195,
4396,-0.1,0.2,
4397,-0.11,0.2,
4398,-0.125,0.2,
4399,-0.14,0.185,
4400,-0.15,0.17,
4401,-0.145,0.19,
4402,-0.14,0.21,
4403,-0.12,0.21,
4404,-0.13,0.21,
4405,-0.155,0.195,
4406,-0.185,0.215,
4407,-0.22,0.22,
4408,-0.235,0.235,
4409,-0.265,0.235,
4410,-0.31,0.215,
4411,-0.36,0.23,
4412,-0.405,0.23,
4413,-0.41,0.23,
4414,-0.405,0.24,
4415,-0.42,0.235,
4416,-0.42,0.23,
4417,-0.435,0.22,
4418,-0.46,0.225,
4419,-0.455,0.24,
4420,-0.445,0.25,
4421,-0.45,0.25,
4422,-0.445,0.23,
4423,-0.455,0.23,
4424,-0.465,0.225,
4425,-0.46,0.235,
4426,-0.46,0.24,
4427,-0.46,0.235,
4428,-0.46,0.23,
4429,-0.47,0.225,
4430,-0.48,0.22,
4431,-0.475,0.225,
4432,-0.465,0.235,
4433,-0.45,0.23,
4434,-0.45,0.23,
4435,-0.445,0.22,
4436,-0.445,0.21,
4437,-0.44,0.22,
4438,-0.445,0.225,
4439,-0.445,0.21,
4440,-0.455,0.2,
4441,-0.45,0.2,
4442,-0.45,0.2,
4443,-0.445,0.21,
4444,-0.44,0.215,
4445,-0.43,0.215,
4446,-0.425,0.21,
4447,-0.43,0.205,
4448,-0.445,0.195,
4449,-0.44,0.215,
4450,-0.42,0.215,
4451,-0.42,0.215,
4452,-0.41,0.2,
4453,-0.415,0.19,
4454,-0.42,0.2,
4455,-0.41,0.215,
4456,-0.42,0.225,
4457,-0.415,0.225,
4458,-0.41,0.235,
4459,-0.41,0.245,
4460,-0.445,0.27,
4461,-0.445,0.295,
4462,-0.435,0.335,
4463,-0.415,0.32,
4464,-0.37,0.34,
4465,-0.28,0.31,
4466,-0.16,0.26,
4467,-0.015,0.225,
4468,0.1,0.165,
4469,0.195,0.09,
4470,0.26,-0.01,
4471,0.275,-0.085,
4472,0.305,-0.17,
4473,0.385,-0.275,
4474,0.485,-0.41,
4475,0.575,-0.565,
4476,0.64,-0.715,
4477,0.695,-0.835,
4478,0.695,-0.89,
4479,0.675,-0.895,
4480,0.64,-0.85,L
4481,0.61,-0.83,
4482,0.57,-0.805,
4483,0.505,-0.755,
4484,0.4,-0.69,
4485,0.31,-0.6,
4486,0.225,-0.53,
4487,0.135,-0.49,
4488,0.055,-0.42,
4489,-0.05,-0.395,
4490,-0.19,-0.335,
4491,-0.345,-0.28,
4492,-0.48,-0.235,
4493,-0.605,-0.2,
4494,-0.735,-0.165,
4495,-0.855,-0.145,
4496,-0.945,-0.105,
4497,-1.0,-0.05,
4498,-1.015,-0.02,
4499,-1.03,0.0,
4500,-1.03,0.015,
4501,-1.03,0.03,
4502,-1.03,0.055,
4503,-1.025,0.085,
4504,-1.005,0.14,
4505,-0.97,0.15,
4506,-0.935,0.16,
4507,-0.905,0.18,
4508,-0.885,0.205,
4509,-0.85,0.24,
4510,-0.82,0.265,
4511,-0.81,0.28,
4512,-0.795,0.285,
4513,-0.78,0.295,
4514,-0.755,0.3,
4515,-0.71,0.33,
4516,-0.68,0.35,
4517,-0.66,0.35,
4518,-0.65,0.355,
4519,-0.655,0.35,
4520,-0.65,0.35,
4521,-0.635,0.345,
4522,-0.625,0.365,
4523,-0.625,0.365,
4524,-0.625,0.345,
4525,-0.62,0.345,
4526,-0.64,0.35,
4527,-0.64,0.375,
4528,-0.63,0.39,
4529,-0.61,0.38,
4530,-0.625,0.38,
4531,-0.625,0.37,
4532,-0.65,0.375,
4533,-0.63,0.385,
4534,-0.625,0.395,
4535,-0.62,0.405,
4536,-0.63,0.39,
4537,-0.64,0.395,
4538,-0.645,0.39,
4539,-0.64,0.4,
4540,-0.625,0.425,
4541,-0.605,0.415,
4542,-0.625,0.42,
4543,-0.625,0.41,
4544,-0.63,0.42,
4545,-0.615,0.42,
4546,-0.61,0.425,
4547,-0.595,0.425,
4548,-0.58,0.425,
4549,-0.585,0.41,
4550,-0.585,0.415,
4551,-0.57,0.44,
4552,-0.555,0.445,
4553,-0.545,0.43,
4554,-0.53,0.42,
4555,-0.525,0.41,
4556,-0.515,0.405,
4557,-0.5,0.41,
4558,-0.475,0.42,
4559,-0.455,0.415,
4560,-0.45,0.41,
4561,-0.43,0.39,
4562,-0.435,0.39,
4563,-0.425,0.4,
4564,-0.395,0.415,
4565,-0.375,0.4,
4566,-0.36,0.385,
4567,-0.345,0.39,
4568,-0.345,0.38,
4569,-0.325,0.38,
4570,-0.305,0.39,
4571,-0.285,0.37,
4572,-0.275,0.37,
4573,-0.265,0.35,
4574,-0.265,0.34,
4575,-0.245,0.34,
4576,-0.23,0.345,
4577,-0.215,0.345,
4578,-0.2,0.34,
4579,-0.195,0.31,
4580,-0.195,0.305,
4581,-0.18,0.315,
4582,-0.17,0.32,
4583,-0.15,0.3,
4584,-0.145,0.305,
4585,-0.145,0.28,
4586,-0.13,0.285,
4587,-0.135,0.28,
4588,-0.11,0.3,
4589,-0.09,0.27,
4590,-0.1,0.27,
4591,-0.085,0.255,
4592,-0.085,0.255,
4593,-0.08,0.25,
4594,-0.06,0.255,
4595,-0.055,0.235,
4596,-0.09,0.22,
4597,-0.11,0.19,
4598,-0.14,0.205,
4599,-0.13,0.195,
4600,-0.115,0.2,
4601,-0.1,0.21,
4602,-0.085,0.195,
4603,-0.085,0.195,
4604,-0.1,0.185,
4605,-0.085,0.19,
4606,-0.09,0.18,
4607,-0.09,0.19,
4608,-0.09,0.195,
4609,-0.11,0.185,
4610,-0.125,0.19,
4611,-0.125,0.195,
4612,-0.115,0.205,
4613,-0.12,0.2,
4614,-0.12,0.195,
4615,-0.135,0.205,
4616,-0.14,0.205,
4617,-0.14,0.225,
4618,-0.155,0.235,
4619,-0.17,0.23,
4620,-0.21,0.23,
4621,-0.245,0.23,
4622,-0.275,0.22,
4623,-0.305,0.235,
4624,-0.32,0.245,
4625,-0.35,0.24,
4626,-0.375,0.25,
4627,-0.39,0.245,
4628,-0.415,0.24,
4629,-0.415,0.25,
4630,-0.41,0.26,
4631,-0.41,0.245,
4632,-0.41,0.25,
4633,-0.415,0.235,
4634,-0.425,0.235,
4635,-0.425,0.25,
4636,-0.425,0.245,
4637,-0.415,0.245,
4638,-0.425,0.23,
4639,-0.425,0.23,
4640,-0.435,0.23,
4641,-0.43,0.235,
4642,-0.415,0.245,
4643,-0.41,0.245,
4644,-0.415,0.23,
4645,-0.425,0.215,
4646,-0.43,0.22,
4647,-0.435,0.23,
4648,-0.43,0.23,
4649,-0.41,0.23,
4650,-0.405,0.215,
4651,-0.435,0.225,
4652,-0.41,0.22,
4653,-0.415,0.23,
4654,-0.415,0.225,
4655,-0.405,0.225,
4656,-0.405,0.22,
4657,-0.42,0.215,
4658,-0.425,0.2,
4659,-0.405,0.205,
4660,-0.4,0.215,
4661,-0.395,0.235,
4662,-0.385,0.215,
4663,-0.385,0.21,
4664,-0.395,0.22,
4665,-0.385,0.23,
4666,-0.375,0.235,
4667,-0.37,0.235,
4668,-0.375,0.25,
4669,-0.39,0.265,
4670,-0.42,0.29,
4671,-0.42,0.325,
4672,-0.415,0.34,
4673,-0.39,0.345,
4674,-0.305,0.325,
4675,-0.185,0.27,
4676,-0.065,0.215,
4677,0.04,0.16,
4678,0.11,0.075,
4679,0.14,0.005,
4680,0.155,-0.075,
4681,0.215,-0.17,
4682,0.305,-0.29,
4683,0.405,-0.445,
4684,0.495,-0.59,
4685,0.575,-0.725,
4686,0.63,-0.83,
4687,0.655,-0.865,
4688,0.64,-0.87,
4689,0.63,-0.855,
4690,0.625,-0.84,L
4691,0.625,-0.785,
4692,0.575,-0.755,
4693,0.5,-0.705,
4694,0.4,-0.65,
4695,0.325,-0.58,
4696,0.28,-0.505,
4697,0.21,-0.465,
4698,0.145,-0.425,
4699,0.04,-0.375,
4700,-0.09,-0.315,
4701,-0.225,-0.275,
4702,-0.38,-0.215,
4703,-0.485,-0.19,
4704,-0.625,-0.155,
4705,-0.74,-0.14,
4706,-0.82,-0.12,
4707,-0.87,-0.065,
4708,-0.885,-0.025,
4709,-0.9,-0.015,
4710,-0.925,0.01,
4711,-0.93,0.02,
4712,-0.935,0.04,
4713,-0.915,0.085,
4714,-0.915,0.115,
4715,-0.895,0.135,
4716,-0.87,0.155,
4717,-0.85,0.185,
4718,-0.82,0.205,
4719,-0.79,0.225,
4720,-0.745,0.265,
4721,-0.73,0.275,
4722,-0.715,0.29,
4723,-0.72,0.295,
4724,-0.695,0.31,
4725,-0.66,0.325,
4726,-0.63,0.35,
4727,-0.605,0.35,
4728,-0.595,0.355,
4729,-0.59,0.345,
4730,-0.585,0.35,
4731,-0.57,0.36,
4732,-0.57,0.37,
4733,-0.555,0.375,
4734,-0.555,0.37,
4735,-0.56,0.36,
4736,-0.58,0.36,
4737,-0.57,0.365,
4738,-0.57,0.39,
4739,-0.565,0.39,
4740,-0.57,0.39,
4741,-0.565,0.375,
4742,-0.585,0.37,
4743,-0.575,0.38,
4744,-0.575,0.395,
4745,-0.565,0.395,
4746,-0.575,0.405,
4747,-0.585,0.395,
4748,-0.595,0.395,
4749,-0.585,0.4,
4750,-0.585,0.43,
4751,-0.58,0.42,
4752,-0.585,0.42,
4753,-0.59,0.415,
4754,-0.585,0.405,
4755,-0.585,0.43,
4756,-0.565,0.44,
4757,-0.555,0.435,
4758,-0.55,0.43,
4759,-0.56,0.425,
4760,-0.565,0.44,
4761,-0.55,0.44,
4762,-0.535,0.46,
4763,-0.52,0.45,
4764,-0.52,0.44,
4765,-0.52,0.425,
4766,-0.52,0.43,
4767,-0.505,0.44,
4768,-0.485,0.445,
4769,-0.46,0.44,
4770,-0.46,0.425,
4771,-0.45,0.43,
4772,-0.46,0.42,
4773,-0.44,0.42,
4774,-0.41,0.43,
4775,-0.38,0.43,
4776,-0.38,0.415,
4777,-0.36,0.41,
4778,-0.36,0.4,
4779,-0.34,0.42,
4780,-0.32,0.41,
4781,-0.31,0.41,
4782,-0.285,0.4,
4783,-0.29,0.385,
4784,-0.28,0.38,
4785,-0.26,0.385,
4786,-0.235,0.395,
4787,-0.22,0.37,
4788,-0.21,0.36,
4789,-0.205,0.34,
4790,-0.2,0.335,
4791,-0.18,0.345,
4792,-0.17,0.345,
4793,-0.15,0.335,
4794,-0.14,0.325,
4795,-0.145,0.305,
4796,-0.145,0.29,
4797,-0.12,0.295,
4798,-0.105,0.29,
4799,-0.085,0.28,
4800,-0.085,0.285,
4801,-0.075,0.265,
4802,-0.075,0.26,
4803,-0.06,0.265,
4804,-0.04,0.26,
4805,-0.025,0.26,
4806,-0.015,0.23,
4807,-0.03,0.23,
4808,-0.035,0.22,
4809,-0.025,0.235,
4810,-0.01,0.24,
4811,-0.025,0.21,
4812,-0.035,0.195,
4813,-0.065,0.165,
4814,-0.075,0.17,
4815,-0.065,0.18,
4816,-0.05,0.185,
4817,-0.03,0.17,
4818,-0.02,0.18,
4819,-0.03,0.165,
4820,-0.03,0.16,
4821,-0.035,0.16,
4822,-0.05,0.18,
4823,-0.03,0.175,
4824,-0.035,0.165,
4825,-0.04,0.165,
4826,-0.055,0.17,
4827,-0.065,0.185,
4828,-0.075,0.19,
4829,-0.07,0.195,
4830,-0.07,0.18,
4831,-0.075,0.18,
4832,-0.085,0.185,
4833,-0.07,0.2,
4834,-0.08,0.2,
4835,-0.09,0.215,
4836,-0.14,0.205,
4837,-0.175,0.2,
4838,-0.215,0.215,
4839,-0.245,0.21,
4840,-0.26,0.235,
4841,-0.275,0.225,
4842,-0.3,0.215,
4843,-0.34,0.205,
4844,-0.355,0.215,
4845,-0.35,0.225,
4846,-0.34,0.255,
4847,-0.355,0.235,
4848,-0.355,0.23,
4849,-0.38,0.21,
4850,-0.385,0.215,
4851,-0.385,0.225,
4852,-0.375,0.235,
4853,-0.38,0.23,
4854,-0.375,0.215,
4855,-0.37,0.21,
4856,-0.375,0.215,
4857,-0.385,0.215,
4858,-0.37,0.215,
4859,-0.365,0.215,
4860,-0.365,0.205,
4861,-0.375,0.2,
4862,-0.38,0.2,
4863,-0.37,0.205,
4864,-0.36,0.21,
4865,-0.355,0.2,
4866,-0.35,0.195,
4867,-0.37,0.19,
4868,-0.38,0.18,
4869,-0.365,0.195,
4870,-0.37,0.21,
4871,-0.355,0.195,
4872,-0.365,0.2,
4873,-0.355,0.18,
4874,-0.35,0.18,
4875,-0.35,0.185,
4876,-0.34,0.195,
4877,-0.33,0.2,
4878,-0.33,0.195,
4879,-0.335,0.175,
4880,-0.34,0.175,
4881,-0.34,0.195,
4882,-0.325,0.195,
4883,-0.305,0.195,
4884,-0.32,0.205,
4885,-0.335,0.2,
4886,-0.36,0.225,
4887,-0.375,0.265,
4888,-0.38,0.3,
4889,-0.395,0.32,
4890,-0.375,0.31,
4891,-0.345,0.3,
4892,-0.27,0.265,
4893,-0.125,0.22,
4894,-0.005,0.165,
4895,0.085,0.08,
4896,0.125,-0.02,
4897,0.145,-0.1,
4898,0.185,-0.18,
4899,0.295,-0.29,
4900,0.405,-0.44,
4901,0.525,-0.615,
4902,0.615,-0.785,
4903,0.695,-0.9,
4904,0.745,-0.95,
4905,0.785,-0.965,
4906,0.81,-0.965,
4907,0.82,-0.975,
4908,0.815,-0.96,L
4909,0.775,-0.9,
4910,0.715,-0.85,
4911,0.625,-0.78,
4912,0.53,-0.7,
4913,0.455,-0.64,
4914,0.39,-0.58,
4915,0.29,-0.535,
4916,0.16,-0.475,
4917,0.055,-0.405,
4918,-0.07,-0.35,
4919,-0.22,-0.295,
4920,-0.38,-0.255,
4921,-0.535,-0.23,
4922,-0.655,-0.2,
4923,-0.74,-0.165,
4924,-0.775,-0.12,
4925,-0.805,-0.09,
4926,-0.845,-0.07,
4927,-0.86,-0.06,
4928,-0.88,-0.035,
4929,-0.875,0.0,
4930,-0.87,0.04,
4931,-0.865,0.065,
4932,-0.865,0.085,
4933,-0.85,0.105,
4934,-0.84,0.135,
4935,-0.79,0.16,
4936,-0.75,0.205,
4937,-0.715,0.215,
4938,-0.705,0.23,
4939,-0.7,0.255,
4940,-0.685,0.26,
4941,-0.655,0.29,
4942,-0.63,0.32,
4943,-0.59,0.325,
4944,-0.58,0.33,
4945,-0.57,0.335,
4946,-0.565,0.345,
4947,-0.54,0.355,
4948,-0.525,0.37,
4949,-0.505,0.36,
4950,-0.505,0.36,
4951,-0.51,0.36,
4952,-0.515,0.36,
4953,-0.515,0.36,
4954,-0.51,0.375,
4955,-0.505,0.375,
4956,-0.51,0.375,
4957,-0.515,0.375,
4958,-0.535,0.37,
4959,-0.53,0.38,
4960,-0.53,0.4,
4961,-0.515,0.39,
4962,-0.52,0.395,
4963,-0.525,0.385,
4964,-0.54,0.395,
4965,-0.535,0.41,
4966,-0.515,0.425,
4967,-0.515,0.415,
4968,-0.52,0.425,
4969,-0.535,0.415,
4970,-0.545,0.42,
4971,-0.52,0.43,
4972,-0.51,0.445,
4973,-0.505,0.44,
4974,-0.52,0.435,
4975,-0.52,0.43,
4976,-0.525,0.415,
4977,-0.505,0.44,
4978,-0.495,0.46,
4979,-0.5,0.465,
4980,-0.495,0.46,
4981,-0.5,0.445,
4982,-0.5,0.45,
4983,-0.48,0.445,
4984,-0.46,0.465,
4985,-0.455,0.45,
4986,-0.45,0.45,
4987,-0.45,0.43,
4988,-0.45,0.44,
4989,-0.435,0.445,
4990,-0.405,0.47,
4991,-0.39,0.445,
4992,-0.375,0.44,
4993,-0.375,0.425,
4994,-0.375,0.43,
4995,-0.355,0.425,
4996,-0.335,0.455,
4997,-0.315,0.44,
4998,-0.3,0.43,
4999,-0.29,0.425,
5000,-0.3,0.4,
5001,-0.285,0.41,
5002,-0.255,0.415,
5003,-0.24,0.41,
5004,-0.23,0.39,
5005,-0.22,0.385,
5006,-0.22,0.375,
5007,-0.2,0.38,
5008,-0.185,0.375,
5009,-0.15,0.365,
5010,-0.16,0.345,
5011,-0.15,0.35,
5012,-0.15,0.325,
5013,-0.12,0.335,
5014,-0.105,0.345,
5015,-0.1,0.32,
5016,-0.095,0.31,
5017,-0.085,0.3,
5018,-0.075,0.29,
5019,-0.065,0.295,
5020,-0.035,0.305,
5021,-0.02,0.285,
5022,-0.01,0.28,
5023,-0.01,0.26,
5024,0.005,0.275,
5025,0.015,0.275,
5026,0.025,0.28,
5027,0.03,0.26,
5028,0.04,0.245,
5029,0.04,0.225,
5030,0.03,0.22,
5031,0.03,0.225,
5032,0.02,0.205,
5033,0.015,0.195,
5034,0.02,0.185,
5035,0.02,0.175,
5036,0.025,0.17,
5037,0.045,0.165,
5038,0.05,0.175,
5039,0.04,0.165,
5040,0.045,0.15,
5041,0.035,0.14,
5042,0.015,0.14,
5043,0.025,0.165,
5044,0.045,0.175,
5045,0.045,0.165,
5046,0.025,0.165,
5047,0.015,0.16,
5048,0.0,0.155,
5049,0.0,0.175,
5050,0.0,0.17,
5051,-0.005,0.185,
5052,-0.005,0.165,
5053,-0.005,0.16,
5054,-0.035,0.165,
5055,-0.035,0.185,
5056,-0.05,0.2,
5057,-0.07,0.2,
5058,-0.115,0.185,
5059,-0.15,0.18,
5060,-0.18,0.18,
5061,-0.215,0.205,
5062,-0.24,0.205,
5063,-0.275,0.205,
5064,-0.295,0.215,
5065,-0.31,0.195,
5066,-0.32,0.205,
5067,-0.325,0.205,
5068,-0.32,0.215,
5069,-0.33,0.215,
5070,-0.335,0.195,
5071,-0.34,0.195,
5072,-0.355,0.195,
5073,-0.345,0.205,
5074,-0.345,0.215,
5075,-0.34,0.195,
5076,-0.34,0.195,
5077,-0.35,0.185,
5078,-0.365,0.19,
5079,-0.35,0.2,
5080,-0.345,0.2,
5081,-0.34,0.19,
5082,-0.335,0.18,
5083,-0.34,0.18,
5084,-0.355,0.185,
5085,-0.36,0.2,
5086,-0.345,0.2,
5087,-0.33,0.195,
5088,-0.33,0.175,
5089,-0.34,0.165,
5090,-0.345,0.17,
5091,-0.34,0.175,
5092,-0.335,0.185,
5093,-0.325,0.18,
5094,-0.33,0.17,
5095,-0.34,0.17,
5096,-0.33,0.16,
5097,-0.325,0.17,
5098,-0.305,0.19,
5099,-0.31,0.175,
5100,-0.32,0.165,
5101,-0.33,0.155,
5102,-0.315,0.16,
5103,-0.31,0.18,
5104,-0.3,0.21,
5105,-0.315,0.22,
5106,-0.33,0.23,
5107,-0.365,0.24,
5108,-0.395,0.27,
5109,-0.405,0.31,
5110,-0.385,0.31,
5111,-0.32,0.29,
5112,-0.215,0.24,
5113,-0.09,0.18,
5114,0.03,0.115,
5115,0.115,0.03,
5116,0.185,-0.045,
5117,0.23,-0.125,
5118,0.295,-0.22,
5119,0.39,-0.37,
5120,0.5,-0.54,
5121,0.62,-0.705,
5122,0.72,-0.84,
5123,0.815,-0.955,
5124,0.89,-1.01,
5125,0.93,-1.05,
5126,0.935,-1.05,
5127,0.945,-1.025,
5128,0.93,-0.99,L
5129,0.895,-0.93,
5130,0.81,-0.875,
5131,0.685,-0.83,
5132,0.56,-0.76,
5133,0.475,-0.67,
5134,0.4,-0.61,
5135,0.3,-0.545,
5136,0.165,-0.49,
5137,-0.01,-0.43,
5138,-0.175,-0.385,
5139,-0.35,-0.32,
5140,-0.475,-0.255,
5141,-0.615,-0.23,
5142,-0.73,-0.195,
5143,-0.795,-0.175,
5144,-0.85,-0.14,
5145,-0.87,-0.105,
5146,-0.895,-0.07,
5147,-0.905,-0.055,
5148,-0.9,-0.03,
5149,-0.9,-0.01,
5150,-0.905,0.01,
5151,-0.91,0.04,
5152,-0.87,0.08,
5153,-0.84,0.11,
5154,-0.8,0.13,
5155,-0.785,0.155,
5156,-0.755,0.175,
5157,-0.725,0.215,
5158,-0.695,0.25,
5159,-0.675,0.26,
5160,-0.655,0.265,
5161,-0.65,0.285,
5162,-0.63,0.3,
5163,-0.605,0.32,
5164,-0.57,0.34,
5165,-0.555,0.34,
5166,-0.54,0.34,
5167,-0.545,0.34,
5168,-0.545,0.335,
5169,-0.535,0.36,
5170,-0.515,0.36,
5171,-0.515,0.36,
5172,-0.52,0.36,
5173,-0.54,0.345,
5174,-0.555,0.35,
5175,-0.54,0.36,
5176,-0.545,0.37,
5177,-0.535,0.37,
5178,-0.545,0.385,
5179,-0.56,0.37,
5180,-0.55,0.375,
5181,-0.555,0.37,
5182,-0.545,0.4,
5183,-0.55,0.4,
5184,-0.55,0.395,
5185,-0.565,0.39,
5186,-0.575,0.39,
5187,-0.56,0.415,
5188,-0.55,0.42,
5189,-0.555,0.43,
5190,-0.555,0.42,
5191,-0.56,0.41,
5192,-0.56,0.415,
5193,-0.545,0.435,
5194,-0.535,0.44,
5195,-0.54,0.44,
5196,-0.535,0.43,
5197,-0.54,0.43,
5198,-0.54,0.42,
5199,-0.535,0.44,
5200,-0.515,0.46,
5201,-0.505,0.445,
5202,-0.505,0.445,
5203,-0.51,0.435,
5204,-0.51,0.435,
5205,-0.49,0.445,
5206,-0.47,0.445,
5207,-0.45,0.44,
5208,-0.445,0.435,
5209,-0.44,0.425,
5210,-0.44,0.425,
5211,-0.43,0.435,
5212,-0.405,0.44,
5213,-0.38,0.425,
5214,-0.375,0.42,
5215,-0.38,0.4,
5216,-0.375,0.4,
5217,-0.355,0.415,
5218,-0.325,0.415,
5219,-0.305,0.405,
5220,-0.295,0.39,
5221,-0.29,0.395,
5222,-0.295,0.375,
5223,-0.275,0.38,
5224,-0.255,0.4,
5225,-0.24,0.375,
5226,-0.23,0.365,
5227,-0.215,0.36,
5228,-0.205,0.34,
5229,-0.195,0.34,
5230,-0.18,0.345,
5231,-0.16,0.345,
5232,-0.15,0.325,
5233,-0.145,0.315,
5234,-0.14,0.295,
5235,-0.12,0.305,
5236,-0.1,0.31,
5237,-0.09,0.295,
5238,-0.09,0.29,
5239,-0.075,0.28,
5240,-0.08,0.265,
5241,-0.06,0.265,
5242,-0.02,0.285,
5243,-0.015,0.265,
5244,-0.01,0.25,
5245,-0.025,0.24,
5246,-0.025,0.25,
5247,-0.005,0.245,
5248,0.005,0.255,
5249,0.02,0.235,
5250,0.03,0.23,
5251,0.01,0.205,
5252,-0.015,0.2,
5253,-0.015,0.195,
5254,-0.01,0.19,
5255,-0.005,0.165,
5256,-0.01,0.165,
5257,-0.025,0.155,
5258,-0.015,0.15,
5259,0.0,0.16,
5260,0.015,0.165,
5261,0.015,0.155,
5262,0.01,0.145,
5263,0.005,0.145,
5264,-0.01,0.135,
5265,-0.01,0.145,
5266,0.015,0.14,
5267,0.005,0.155,
5268,-0.01,0.13,
5269,-0.02,0.135,
5270,-0.045,0.135,
5271,-0.055,0.145,
5272,-0.04,0.15,
5273,-0.04,0.15,
5274,-0.055,0.135,
5275,-0.065,0.135,
5276,-0.07,0.145,
5277,-0.055,0.15,
5278,-0.05,0.165,
5279,-0.06,0.155,
5280,-0.105,0.165,
5281,-0.15,0.165,
5282,-0.18,0.175,
5283,-0.205,0.175,
5284,-0.215,0.19,
5285,-0.25,0.195,
5286,-0.28,0.185,
5287,-0.31,0.175,
5288,-0.335,0.18,
5289,-0.35,0.195,
5290,-0.34,0.2,
5291,-0.345,0.19,
5292,-0.355,0.185,
5293,-0.37,0.195,
5294,-0.38,0.185,
5295,-0.385,0.195,
5296,-0.375,0.195,
5297,-0.37,0.19,
5298,-0.38,0.175,
5299,-0.39,0.18,
5300,-0.395,0.17,
5301,-0.385,0.185,
5302,-0.375,0.195,
5303,-0.38,0.18,
5304,-0.385,0.18,
5305,-0.39,0.18,
5306,-0.4,0.155,
5307,-0.4,0.175,
5308,-0.38,0.185,
5309,-0.375,0.175,
5310,-0.39,0.175,
5311,-0.395,0.15,
5312,-0.405,0.15,
5313,-0.4,0.175,
5314,-0.375,0.185,
5315,-0.365,0.175,
5316,-0.37,0.17,
5317,-0.38,0.16,
5318,-0.385,0.15,
5319,-0.37,0.175,
5320,-0.37,0.18,
5321,-0.365,0.17,
5322,-0.37,0.155,
5323,-0.385,0.155,
5324,-0.38,0.145,
5325,-0.36,0.155,
5326,-0.355,0.155,
5327,-0.35,0.16,
5328,-0.35,0.16,
5329,-0.345,0.15,
5330,-0.35,0.15,
5331,-0.355,0.165,
5332,-0.34,0.18,
5333,-0.33,0.17,
5334,-0.35,0.185,
5335,-0.36,0.195,
5336,-0.38,0.21,
5337,-0.4,0.24,
5338,-0.395,0.28,
5339,-0.395,0.285,
5340,-0.39,0.28,
5341,-0.35,0.28,
5342,-0.275,0.265,
5343,-0.13,0.23,
5344,0.015,0.195,
5345,0.145,0.125,
5346,0.245,0.03,
5347,0.315,-0.065,
5348,0.35,-0.14,
5349,0.415,-0.21,
5350,0.525,-0.31,
5351,0.635,-0.465,
5352,0.74,-0.625,
5353,0.825,-0.795,
5354,0.915,-0.93,
5355,1.01,-1.005,
5356,1.055,-1.02,
5357,1.065,-1.025,
5358,1.04,-1.03,L
5359,1.015,-1.01,
5360,0.97,-0.965,
5361,0.89,-0.905,
5362,0.785,-0.825,
5363,0.65,-0.775,
5364,0.525,-0.705,
5365,0.42,-0.645,
5366,0.305,-0.59,
5367,0.195,-0.525,
5368,0.09,-0.47,
5369,-0.06,-0.41,
5370,-0.245,-0.365,
5371,-0.415,-0.32,
5372,-0.57,-0.275,
5373,-0.695,-0.23,
5374,-0.81,-0.195,
5375,-0.905,-0.165,
5376,-0.975,-0.135,
5377,-1.01,-0.11,
5378,-1.05,-0.075,
5379,-1.045,-0.045,
5380,-1.035,-0.03,
5381,-1.02,0.0,
5382,-1.03,0.025,
5383,-1.035,0.045,
5384,-1.03,0.085,
5385,-0.99,0.11,
5386,-0.935,0.145,
5387,-0.895,0.16,
5388,-0.875,0.18,
5389,-0.84,0.2,
5390,-0.83,0.225,
5391,-0.79,0.25,
5392,-0.77,0.265,
5393,-0.745,0.285,
5394,-0.715,0.285,
5395,-0.705,0.285,
5396,-0.685,0.3,
5397,-0.66,0.34,
5398,-0.645,0.355,
5399,-0.625,0.35,
5400,-0.635,0.34,
5401,-0.64,0.335,
5402,-0.635,0.34,
5403,-0.635,0.345,
5404,-0.63,0.355,
5405,-0.615,0.355,
5406,-0.625,0.35,
5407,-0.635,0.345,
5408,-0.635,0.35,
5409,-0.645,0.355,
5410,-0.62,0.38,
5411,-0.615,0.375,
5412,-0.635,0.365,
5413,-0.64,0.36,
5414,-0.655,0.36,
5415,-0.66,0.375,
5416,-0.64,0.385,
5417,-0.645,0.39,
5418,-0.64,0.385,
5419,-0.65,0.375,
5420,-0.665,0.38,
5421,-0.655,0.395,
5422,-0.63,0.405,
5423,-0.635,0.415,
5424,-0.65,0.405,
5425,-0.66,0.39,
5426,-0.675,0.405,
5427,-0.665,0.405,
5428,-0.645,0.435,
5429,-0.64,0.425,
5430,-0.645,0.435,
5431,-0.635,0.42,
5432,-0.635,0.415,
5433,-0.63,0.42,
5434,-0.595,0.435,
5435,-0.59,0.43,
5436,-0.585,0.425,
5437,-0.58,0.415,
5438,-0.575,0.42,
5439,-0.57,0.435,
5440,-0.555,0.435,
5441,-0.54,0.43,
5442,-0.525,0.415,
5443,-0.52,0.4,
5444,-0.515,0.41,
5445,-0.5,0.42,
5446,-0.48,0.425,
5447,-0.46,0.42,
5448,-0.44,0.4,
5449,-0.43,0.395,
5450,-0.43,0.395,
5451,-0.41,0.38,
5452,-0.395,0.41,
5453,-0.36,0.395,
5454,-0.35,0.375,
5455,-0.345,0.37,
5456,-0.325,0.365,
5457,-0.31,0.365,
5458,-0.29,0.37,
5459,-0.275,0.365,
5460,-0.27,0.355,
5461,-0.27,0.355,
5462,-0.275,0.325,
5463,-0.25,0.34,
5464,-0.23,0.355,
5465,-0.21,0.335,
5466,-0.205,0.315,
5467,-0.21,0.3,
5468,-0.195,0.295,
5469,-0.155,0.285,
5470,-0.15,0.29,
5471,-0.145,0.285,
5472,-0.135,0.275,
5473,-0.135,0.275,
5474,-0.125,0.27,
5475,-0.09,0.27,
5476,-0.08,0.27,
5477,-0.06,0.275,
5478,-0.055,0.255,
5479,-0.075,0.23,
5480,-0.065,0.225,
5481,-0.055,0.24,
5482,-0.04,0.235,
5483,-0.04,0.21,
5484,-0.04,0.205,
5485,-0.065,0.175,
5486,-0.085,0.165,
5487,-0.075,0.16,
5488,-0.08,0.165,
5489,-0.08,0.16,
5490,-0.075,0.16,
5491,-0.07,0.14,
5492,-0.07,0.135,
5493,-0.05,0.165,
5494,-0.04,0.16,
5495,-0.04,0.155,
5496,-0.05,0.13,
5497,-0.065,0.145,
5498,-0.075,0.135,
5499,-0.065,0.14,
5500,-0.065,0.175,
5501,-0.075,0.15,
5502,-0.08,0.145,
5503,-0.095,0.15,
5504,-0.115,0.145,
5505,-0.11,0.15,
5506,-0.105,0.155,
5507,-0.1,0.17,
5508,-0.09,0.15,
5509,-0.11,0.155,
5510,-0.14,0.16,
5511,-0.135,0.17,
5512,-0.16,0.18,
5513,-0.17,0.18,
5514,-0.21,0.175,
5515,-0.245,0.17,
5516,-0.285,0.17,
5517,-0.305,0.185,
5518,-0.33,0.2,
5519,-0.36,0.195,
5520,-0.38,0.195,
5521,-0.4,0.19,
5522,-0.42,0.195,
5523,-0.42,0.21,
5524,-0.41,0.215,
5525,-0.41,0.2,
5526,-0.415,0.2,
5527,-0.43,0.185,
5528,-0.44,0.175,
5529,-0.435,0.2,
5530,-0.425,0.185,
5531,-0.43,0.2,
5532,-0.425,0.19,
5533,-0.435,0.185,
5534,-0.455,0.185,
5535,-0.45,0.175,
5536,-0.445,0.185,
5537,-0.44,0.18,
5538,-0.44,0.175,
5539,-0.455,0.18,
5540,-0.465,0.17,
5541,-0.455,0.18,
5542,-0.445,0.185,
5543,-0.455,0.195,
5544,-0.445,0.17,
5545,-0.45,0.16,
5546,-0.445,0.16,
5547,-0.445,0.17,
5548,-0.425,0.195,
5549,-0.42,0.17,
5550,-0.43,0.16,
5551,-0.43,0.16,
5552,-0.425,0.165,
5553,-0.425,0.165,
5554,-0.41,0.175,
5555,-0.425,0.16,
5556,-0.42,0.17,
5557,-0.43,0.16,
5558,-0.435,0.17,
5559,-0.43,0.165,
5560,-0.415,0.185,
5561,-0.39,0.165,
5562,-0.395,0.165,
5563,-0.405,0.165,
5564,-0.42,0.155,
5565,-0.415,0.18,
5566,-0.4,0.2,
5567,-0.395,0.2,
5568,-0.405,0.195,
5569,-0.43,0.225,
5570,-0.45,0.245,
5571,-0.435,0.275,
5572,-0.405,0.3,
5573,-0.375,0.3,
5574,-0.32,0.285,
5575,-0.23,0.26,
5576,-0.09,0.215,
5577,0.03,0.18,
5578,0.135,0.13,
5579,0.23,0.04,
5580,0.265,-0.03,
5581,0.285,-0.105,
5582,0.325,-0.18,
5583,0.41,-0.27,
5584,0.515,-0.365,
5585,0.6,-0.51,
5586,0.675,-0.665,
5587,0.725,-0.785,
5588,0.77,-0.895,
5589,0.805,-0.925,
5590,0.805,-0.93,
5591,0.78,-0.93,
5592,0.755,-0.925,L
5593,0.72,-0.905,
5594,0.685,-0.86,
5595,0.615,-0.8,
5596,0.54,-0.745,
5597,0.445,-0.685,
5598,0.365,-0.635,
5599,0.29,-0.585,
5600,0.205,-0.54,
5601,0.14,-0.485,
5602,0.05,-0.425,
5603,-0.045,-0.395,
5604,-0.185,-0.345,
5605,-0.34,-0.315,
5606,-0.475,-0.275,
5607,-0.585,-0.235,
5608,-0.69,-0.195,
5609,-0.78,-0.17,
5610,-0.87,-0.145,
5611,-0.94,-0.125,
5612,-0.985,-0.09,
5613,-1.0,-0.06,
5614,-1.0,-0.035,
5615,-1.01,-0.015,
5616,-1.005,0.015,
5617,-1.015,0.02,
5618,-1.015,0.045,
5619,-1.0,0.085,
5620,-0.975,0.125,
5621,-0.95,0.14,
5622,-0.91,0.15,
5623,-0.885,0.175,
5624,-0.86,0.195,
5625,-0.835,0.215,
5626,-0.79,0.25,
5627,-0.77,0.26,
5628,-0.765,0.275,
5629,-0.745,0.28,
5630,-0.73,0.295,
5631,-0.69,0.31,
5632,-0.665,0.34,
5633,-0.65,0.345,
5634,-0.645,0.35,
5635,-0.645,0.345,
5636,-0.63,0.35,
5637,-0.625,0.35,
5638,-0.61,0.355,
5639,-0.59,0.34,
5640,-0.605,0.34,
5641,-0.62,0.345,
5642,-0.63,0.34,
5643,-0.63,0.355,
5644,-0.615,0.365,
5645,-0.615,0.365,
5646,-0.625,0.355,
5647,-0.635,0.355,
5648,-0.655,0.36,
5649,-0.63,0.38,
5650,-0.61,0.38,
5651,-0.625,0.385,
5652,-0.62,0.385,
5653,-0.635,0.375,
5654,-0.645,0.37,
5655,-0.635,0.385,
5656,-0.635,0.4,
5657,-0.615,0.4,
5658,-0.615,0.39,
5659,-0.62,0.39,
5660,-0.63,0.39,
5661,-0.63,0.395,
5662,-0.615,0.405,
5663,-0.605,0.415,
5664,-0.615,0.4,
5665,-0.615,0.4,
5666,-0.61,0.41,
5667,-0.6,0.415,
5668,-0.595,0.43,
5669,-0.57,0.415,
5670,-0.575,0.41,
5671,-0.575,0.405,
5672,-0.58,0.405,
5673,-0.555,0.41,
5674,-0.53,0.42,
5675,-0.52,0.415,
5676,-0.5,0.41,
5677,-0.515,0.405,
5678,-0.51,0.41,
5679,-0.48,0.405,
5680,-0.455,0.425,
5681,-0.44,0.415,
5682,-0.42,0.4,
5683,-0.4,0.385,
5684,-0.395,0.385,
5685,-0.395,0.39,
5686,-0.38,0.4,
5687,-0.345,0.385,
5688,-0.335,0.375,
5689,-0.33,0.36,
5690,-0.315,0.36,
5691,-0.295,0.37,
5692,-0.28,0.375,
5693,-0.27,0.355,
5694,-0.245,0.345,
5695,-0.235,0.34,
5696,-0.235,0.33,
5697,-0.215,0.34,
5698,-0.21,0.34,
5699,-0.185,0.32,
5700,-0.175,0.315,
5701,-0.185,0.3,
5702,-0.175,0.28,
5703,-0.16,0.295,
5704,-0.135,0.3,
5705,-0.12,0.28,
5706,-0.12,0.265,
5707,-0.12,0.26,
5708,-0.12,0.265,
5709,-0.115,0.27,
5710,-0.09,0.275,
5711,-0.07,0.265,
5712,-0.065,0.245,
5713,-0.06,0.23,
5714,-0.07,0.23,
5715,-0.06,0.23,
5716,-0.04,0.23,
5717,-0.03,0.22,
5718,-0.035,0.215,
5719,-0.05,0.19,
5720,-0.075,0.165,
5721,-0.08,0.185,
5722,-0.07,0.18,
5723,-0.06,0.17,
5724,-0.06,0.17,
5725,-0.06,0.17,
5726,-0.075,0.16,
5727,-0.06,0.165,
5728,-0.04,0.16,
5729,-0.03,0.155,
5730,-0.04,0.155,
5731,-0.055,0.13,
5732,-0.06,0.145,
5733,-0.055,0.16,
5734,-0.06,0.16,
5735,-0.065,0.16,
5736,-0.08,0.155,
5737,-0.1,0.15,
5738,-0.1,0.14,
5739,-0.1,0.17,
5740,-0.11,0.17,
5741,-0.08,0.17,
5742,-0.09,0.17,
5743,-0.115,0.165,
5744,-0.15,0.18,
5745,-0.16,0.19,
5746,-0.19,0.195,
5747,-0.205,0.195,
5748,-0.235,0.205,
5749,-0.265,0.185,
5750,-0.315,0.195,
5751,-0.325,0.205,
5752,-0.335,0.215,
5753,-0.35,0.205,
5754,-0.35,0.195,
5755,-0.37,0.195,
5756,-0.37,0.19,
5757,-0.375,0.205,
5758,-0.37,0.21,
5759,-0.375,0.21,
5760,-0.395,0.195,
5761,-0.395,0.19,
5762,-0.41,0.18,
5763,-0.42,0.195,
5764,-0.405,0.205,
5765,-0.415,0.19,
5766,-0.41,0.195,
5767,-0.41,0.19,
5768,-0.415,0.185,
5769,-0.41,0.185,
5770,-0.4,0.195,
5771,-0.395,0.195,
5772,-0.4,0.19,
5773,-0.42,0.18,
5774,-0.425,0.17,
5775,-0.43,0.185,
5776,-0.41,0.19,
5777,-0.395,0.195,
5778,-0.4,0.175,
5779,-0.405,0.18,
5780,-0.42,0.17,
5781,-0.4,0.18,
5782,-0.395,0.19,
5783,-0.39,0.185,
5784,-0.385,0.165,
5785,-0.4,0.16,
5786,-0.395,0.165,
5787,-0.375,0.165,
5788,-0.38,0.185,
5789,-0.37,0.18,
5790,-0.375,0.185,
5791,-0.38,0.16,
5792,-0.38,0.165,
5793,-0.38,0.18,
5794,-0.36,0.185,
5795,-0.355,0.185,
5796,-0.37,0.185,
5797,-0.385,0.21,
5798,-0.41,0.23,
5799,-0.415,0.265,
5800,-0.42,0.29,
5801,-0.405,0.295,
5802,-0.37,0.3,
5803,-0.33,0.275,
5804,-0.22,0.25,
5805,-0.08,0.205,
5806,0.04,0.155,
5807,0.135,0.07,
5808,0.17,-0.015,
5809,0.195,-0.1,
5810,0.245,-0.19,
5811,0.345,-0.29,
5812,0.495,-0.435,
5813,0.61,-0.605,
5814,0.69,-0.775,
5815,0.775,-0.89,
5816,0.815,-0.935,
5817,0.84,-0.96,
5818,0.855,-0.94,
5819,0.85,-0.955,
5820,0.825,-0.945,L
5821,0.79,-0.905,
5822,0.74,-0.835,
5823,0.64,-0.78,
5824,0.56,-0.71,
5825,0.485,-0.655,
5826,0.42,-0.605,
5827,0.33,-0.57,
5828,0.235,-0.51,
5829,0.13,-0.45,
5830,0.005,-0.385,
5831,-0.13,-0.34,
5832,-0.275,-0.3,
5833,-0.42,-0.265,
5834,-0.56,-0.23,
5835,-0.69,-0.205,
5836,-0.77,-0.155,
5837,-0.825,-0.135,
5838,-0.865,-0.11,
5839,-0.92,-0.09,
5840,-0.93,-0.07,
5841,-0.935,-0.03,
5842,-0.93,0.005,
5843,-0.925,0.02,
5844,-0.925,0.03,
5845,-0.935,0.065,
5846,-0.93,0.085,
5847,-0.895,0.115,
5848,-0.86,0.155,
5849,-0.82,0.17,
5850,-0.79,0.185,
5851,-0.765,0.19,
5852,-0.765,0.225,
5853,-0.74,0.255,
5854,-0.715,0.275,
5855,-0.69,0.29,
5856,-0.66,0.3,
5857,-0.66,0.315,
5858,-0.625,0.315,
5859,-0.61,0.33,
5860,-0.605,0.355,
5861,-0.58,0.35,
5862,-0.565,0.35,
5863,-0.57,0.35,
5864,-0.57,0.35,
5865,-0.565,0.36,
5866,-0.56,0.365,
5867,-0.56,0.36,
5868,-0.565,0.355,
5869,-0.575,0.355,
5870,-0.585,0.355,
5871,-0.58,0.375,
5872,-0.575,0.375,
5873,-0.58,0.385,
5874,-0.585,0.375,
5875,-0.585,0.375,
5876,-0.605,0.38,
5877,-0.6,0.39,
5878,-0.585,0.395,
5879,-0.57,0.4,
5880,-0.595,0.4,
5881,-0.595,0.4,
5882,-0.605,0.405,
5883,-0.61,0.41,
5884,-0.6,0.425,
5885,-0.59,0.43,
5886,-0.585,0.415,
5887,-0.59,0.43,
5888,-0.595,0.415,
5889,-0.59,0.425,
5890,-0.58,0.455,
5891,-0.57,0.445,
5892,-0.56,0.43,
5893,-0.58,0.425,
5894,-0.585,0.44,
5895,-0.56,0.44,
5896,-0.545,0.45,
5897,-0.535,0.44,
5898,-0.535,0.435,
5899,-0.535,0.43,
5900,-0.545,0.425,
5901,-0.51,0.44,
5902,-0.5,0.435,
5903,-0.475,0.445,
5904,-0.47,0.43,
5905,-0.465,0.42,
5906,-0.46,0.415,
5907,-0.445,0.42,
5908,-0.42,0.43,
5909,-0.405,0.425,
5910,-0.39,0.41,
5911,-0.385,0.405,
5912,-0.375,0.395,
5913,-0.355,0.405,
5914,-0.335,0.41,
5915,-0.315,0.4,
5916,-0.295,0.385,
5917,-0.295,0.365,
5918,-0.285,0.37,
5919,-0.27,0.37,
5920,-0.245,0.385,
5921,-0.235,0.375,
5922,-0.205,0.36,
5923,-0.215,0.345,
5924,-0.195,0.335,
5925,-0.185,0.34,
5926,-0.165,0.34,
5927,-0.15,0.32,
5928,-0.15,0.31,
5929,-0.15,0.305,
5930,-0.15,0.305,
5931,-0.125,0.3,
5932,-0.115,0.3,
5933,-0.085,0.285,
5934,-0.08,0.265,
5935,-0.08,0.26,
5936,-0.085,0.26,
5937,-0.06,0.26,
5938,-0.035,0.26,
5939,-0.02,0.245,
5940,-0.01,0.245,
5941,-0.02,0.245,
5942,-0.015,0.23,
5943,0.0,0.23,
5944,0.01,0.235,
5945,0.02,0.23,
5946,0.015,0.21,
5947,-0.005,0.185,
5948,-0.03,0.17,
5949,-0.035,0.175,
5950,-0.025,0.18,
5951,-0.02,0.165,
5952,-0.035,0.16,
5953,-0.02,0.145,
5954,-0.025,0.15,
5955,-0.01,0.155,
5956,0.005,0.15,
5957,0.0,0.165,
5958,0.0,0.15,
5959,-0.02,0.16,
5960,-0.025,0.135,
5961,-0.03,0.17,
5962,-0.02,0.175,
5963,-0.02,0.16,
5964,-0.025,0.145,
5965,-0.065,0.155,
5966,-0.07,0.155,
5967,-0.07,0.16,
5968,-0.06,0.165,
5969,-0.07,0.165,
5970,-0.05,0.17,
5971,-0.065,0.155,
5972,-0.07,0.16,
5973,-0.085,0.18,
5974,-0.1,0.195,
5975,-0.125,0.19,
5976,-0.155,0.18,
5977,-0.195,0.16,
5978,-0.24,0.165,
5979,-0.255,0.185,
5980,-0.275,0.195,
5981,-0.3,0.19,
5982,-0.32,0.19,
5983,-0.335,0.175,
5984,-0.355,0.185,
5985,-0.35,0.2,
5986,-0.345,0.22,
5987,-0.335,0.21,
5988,-0.36,0.2,
5989,-0.37,0.19,
5990,-0.38,0.175,
5991,-0.38,0.195,
5992,-0.365,0.195,
5993,-0.36,0.19,
5994,-0.375,0.19,
5995,-0.385,0.18,
5996,-0.385,0.175,
5997,-0.38,0.185,
5998,-0.375,0.195,
5999,-0.37,0.185,
6000,-0.365,0.165,
6001,-0.38,0.17,
6002,-0.385,0.17,
6003,-0.375,0.17,
6004,-0.37,0.18,
6005,-0.355,0.19,
6006,-0.365,0.175,
6007,-0.37,0.165,
6008,-0.37,0.16,
6009,-0.37,0.165,
6010,-0.365,0.175,
6011,-0.355,0.18,
6012,-0.35,0.17,
6013,-0.36,0.16,
6014,-0.37,0.145,
6015,-0.36,0.16,
6016,-0.34,0.175,
6017,-0.34,0.155,
6018,-0.335,0.165,
6019,-0.35,0.15,
6020,-0.345,0.145,
6021,-0.345,0.16,
6022,-0.33,0.17,
6023,-0.33,0.18,
6024,-0.34,0.185,
6025,-0.37,0.2,
6026,-0.39,0.215,
6027,-0.41,0.255,
6028,-0.405,0.275,
6029,-0.41,0.29,
6030,-0.38,0.295,
6031,-0.305,0.26,
6032,-0.2,0.205,
6033,-0.07,0.155,
6034,0.055,0.09,
6035,0.13,-0.015,
6036,0.18,-0.1,
6037,0.24,-0.185,
6038,0.315,-0.3,
6039,0.46,-0.45,
6040,0.59,-0.635,
6041,0.705,-0.815,
6042,0.79,-0.935,
6043,0.855,-1.0,
6044,0.91,-1.025,
6045,0.945,-1.045,
6046,0.975,-1.03,
6047,0.965,-1.02,L
6048,0.935,-0.965,
6049,0.87,-0.925,
6050,0.76,-0.85,
6051,0.645,-0.785,
6052,0.55,-0.7,
6053,0.465,-0.655,
6054,0.365,-0.58,
6055,0.23,-0.535,
6056,0.1,-0.48,
6057,-0.055,-0.405,
6058,-0.225,-0.355,
6059,-0.36,-0.305,
6060,-0.515,-0.275,
6061,-0.645,-0.25,
6062,-0.745,-0.22,
6063,-0.8,-0.17,
6064,-0.84,-0.13,
6065,-0.88,-0.11,
6066,-0.895,-0.075,
6067,-0.905,-0.07,
6068,-0.91,-0.04,
6069,-0.9,-0.015,
6070,-0.895,0.025,
6071,-0.89,0.05,
6072,-0.87,0.065,
6073,-0.85,0.095,
6074,-0.815,0.12,
6075,-0.785,0.155,
6076,-0.74,0.195,
6077,-0.72,0.22,
6078,-0.715,0.235,
6079,-0.695,0.24,
6080,-0.665,0.275,
6081,-0.64,0.28,
6082,-0.625,0.31,
6083,-0.59,0.305,
6084,-0.58,0.315,
6085,-0.58,0.31,
6086,-0.58,0.325,
6087,-0.56,0.335,
6088,-0.55,0.345,
6089,-0.54,0.33,
6090,-0.545,0.33,
6091,-0.565,0.33,
6092,-0.575,0.33,
6093,-0.56,0.355,
6094,-0.56,0.365,
6095,-0.555,0.355,
6096,-0.56,0.34,
6097,-0.585,0.345,
6098,-0.58,0.355,
6099,-0.59,0.37,
6100,-0.585,0.395,
6101,-0.58,0.38,
6102,-0.585,0.38,
6103,-0.585,0.375,
6104,-0.6,0.36,
6105,-0.59,0.395,
6106,-0.595,0.41,
6107,-0.565,0.39,
6108,-0.585,0.395,
6109,-0.59,0.39,
6110,-0.595,0.4,
6111,-0.59,0.41,
6112,-0.575,0.415,
6113,-0.57,0.415,
6114,-0.555,0.415,
6115,-0.555,0.4,
6116,-0.56,0.405,
6117,-0.555,0.425,
6118,-0.535,0.435,
6119,-0.53,0.425,
6120,-0.52,0.415,
6121,-0.51,0.405,
6122,-0.5,0.39,
6123,-0.48,0.415,
6124,-0.46,0.425,
6125,-0.44,0.425,
6126,-0.44,0.395,
6127,-0.435,0.395,
6128,-0.415,0.39,
6129,-0.395,0.4,
6130,-0.375,0.4,
6131,-0.35,0.39,
6132,-0.34,0.385,
6133,-0.35,0.37,
6134,-0.335,0.375,
6135,-0.315,0.375,
6136,-0.285,0.375,
6137,-0.275,0.355,
6138,-0.26,0.355,
6139,-0.25,0.345,
6140,-0.25,0.34,
6141,-0.225,0.335,
6142,-0.215,0.345,
6143,-0.18,0.335,
6144,-0.17,0.305,
6145,-0.17,0.295,
6146,-0.18,0.28,
6147,-0.145,0.295,
6148,-0.13,0.3,
6149,-0.105,0.285,
6150,-0.105,0.27,
6151,-0.09,0.245,
6152,-0.09,0.255,
6153,-0.065,0.24,
6154,-0.05,0.255,
6155,-0.025,0.25,
6156,-0.025,0.23,
6157,-0.02,0.23,
6158,-0.025,0.225,
6159,-0.01,0.23,
6160,0.005,0.23,
6161,0.02,0.215,
6162,0.02,0.19,
6163,0.01,0.18,
6164,-0.015,0.16,
6165,-0.02,0.16,
6166,-0.015,0.145,
6167,-0.015,0.14,
6168,-0.02,0.135,
6169,-0.015,0.125,
6170,-0.01,0.125,
6171,0.0,0.135,
6172,0.0,0.15,
6173,0.01,0.125,
6174,0.005,0.125,
6175,-0.015,0.115,
6176,-0.015,0.115,
6177,-0.015,0.13,
6178,-0.02,0.135,
6179,-0.025,0.14,
6180,-0.025,0.12,
6181,-0.05,0.115,
6182,-0.065,0.125,
6183,-0.065,0.135,
6184,-0.055,0.145,
6185,-0.055,0.135,
6186,-0.05,0.14,
6187,-0.065,0.145,
6188,-0.1,0.14,
6189,-0.115,0.145,
6190,-0.13,0.165,
6191,-0.165,0.17,
6192,-0.205,0.15,
6193,-0.235,0.155,
6194,-0.28,0.16,
6195,-0.305,0.175,
6196,-0.32,0.18,
6197,-0.34,0.17,
6198,-0.355,0.18,
6199,-0.365,0.16,
6200,-0.37,0.155,
6201,-0.375,0.17,
6202,-0.37,0.19,
6203,-0.38,0.175,
6204,-0.385,0.17,
6205,-0.385,0.175,
6206,-0.41,0.17,
6207,-0.4,0.17,
6208,-0.4,0.175,
6209,-0.395,0.165,
6210,-0.39,0.165,
6211,-0.395,0.16,
6212,-0.415,0.15,
6213,-0.4,0.16,
6214,-0.395,0.17,
6215,-0.39,0.17,
6216,-0.395,0.16,
6217,-0.395,0.155,
6218,-0.405,0.16,
6219,-0.39,0.15,
6220,-0.385,0.165,
6221,-0.37,0.155,
6222,-0.38,0.16,
6223,-0.39,0.15,
6224,-0.405,0.14,
6225,-0.395,0.15,
6226,-0.375,0.16,
6227,-0.365,0.16,
6228,-0.375,0.15,
6229,-0.375,0.14,
6230,-0.385,0.14,
6231,-0.375,0.15,
6232,-0.365,0.17,
6233,-0.36,0.155,
6234,-0.385,0.165,
6235,-0.395,0.16,
6236,-0.425,0.165,
6237,-0.435,0.18,
6238,-0.445,0.205,
6239,-0.48,0.215,
6240,-0.495,0.23,
6241,-0.55,0.255,
6242,-0.585,0.285,
6243,-0.605,0.32,
6244,-0.61,0.365,
6245,-0.6,0.375,
6246,-0.535,0.375,
6247,-0.435,0.375,
6248,-0.275,0.37,
6249,-0.085,0.345,
6250,0.095,0.29,
6251,0.225,0.25,
6252,0.285,0.205,
6253,0.37,0.135,
6254,0.52,0.03,
6255,0.73,-0.11,
6256,0.96,-0.26,
6257,1.175,-0.38,
6258,1.365,-0.43,
6259,1.5,-0.435,F
6260,1.555,-0.405,
6261,1.485,-0.39,
6262,1.345,-0.345,
6263,1.14,-0.29,
6264,0.89,-0.225,
6265,0.635,-0.16,
6266,0.33,-0.115,
6267,0.03,-0.045,
6268,-0.16,0.0,
6269,-0.285,0.03,
6270,-0.395,0.035,
6271,-0.445,0.04,
6272,-0.46,0.055,
6273,-0.46,0.075,
6274,-0.45,0.1,
6275,-0.455,0.085,
6276,-0.465,0.09,
6277,-0.47,0.09,
6278,-0.485,0.085,
6279,-0.47,0.085,
6280,-0.475,0.11,
6281,-0.475,0.105,
6282,-0.48,0.1,
6283,-0.49,0.09,
6284,-0.495,0.095,
6285,-0.49,0.1,
6286,-0.49,0.1,
6287,-0.485,0.1,
6288,-0.49,0.1,
6289,-0.495,0.095,
6290,-0.515,0.095,
6291,-0.505,0.1,
6292,-0.505,0.11,
6293,-0.495,0.1,
6294,-0.51,0.09,
6295,-0.525,0.085,
6296,-0.53,0.08,
6297,-0.54,0.095,
6298,-0.525,0.09,
6299,-0.515,0.085,
6300,-0.535,0.08,
6301,-0.54,0.08,
6302,-0.56,0.07,
6303,-0.55,0.075,
6304,-0.56,0.08,
6305,-0.545,0.085,
6306,-0.555,0.07,
6307,-0.575,0.07,
6308,-0.575,0.055,
6309,-0.575,0.06,
6310,-0.58,0.08,
6311,-0.575,0.065,
6312,-0.575,0.065,
6313,-0.595,0.055,
6314,-0.605,0.05,
6315,-0.605,0.06,
6316,-0.6,0.07,
6317,-0.6,0.06,
6318,-0.595,0.05,
6319,-0.615,0.04,
6320,-0.625,0.035,
6321,-0.625,0.06,
6322,-0.61,0.06,
6323,-0.605,0.045,
6324,-0.62,0.025,
6325,-0.63,0.025,
6326,-0.625,0.035,
6327,-0.62,0.025,
6328,-0.62,0.045,
6329,-0.605,0.045,
6330,-0.605,0.035,
6331,-0.615,0.025,
6332,-0.62,0.025,
6333,-0.595,0.03,
6334,-0.59,0.035,
6335,-0.58,0.04,
6336,-0.575,0.02,
6337,-0.585,0.01,
6338,-0.575,0.005,
6339,-0.56,0.025,
6340,-0.55,0.035,
6341,-0.55,0.03,
6342,-0.53,0.02,
6343,-0.525,0.015,
6344,-0.525,0.005,
6345,-0.515,0.02,
6346,-0.505,0.035,
6347,-0.48,0.01,
6348,-0.49,0.02,
6349,-0.475,0.0,
6350,-0.475,0.0,
6351,-0.46,0.02,
6352,-0.435,0.025,
6353,-0.42,0.025,
6354,-0.415,0.035,
6355,-0.42,0.02,
6356,-0.42,0.02,
6357,-0.405,0.04,
6358,-0.38,0.05,
6359,-0.37,0.045,
6360,-0.36,0.035,
6361,-0.345,0.04,
6362,-0.34,0.035,
6363,-0.325,0.06,
6364,-0.31,0.055,
6365,-0.29,0.065,
6366,-0.3,0.05,
6367,-0.3,0.06,
6368,-0.29,0.06,
6369,-0.27,0.085,
6370,-0.24,0.08,
6371,-0.235,0.08,
6372,-0.22,0.075,
6373,-0.215,0.065,
6374,-0.205,0.085,
6375,-0.18,0.1,
6376,-0.15,0.11,
6377,-0.15,0.11,
6378,-0.145,0.1,
6379,-0.145,0.08,
6380,-0.15,0.09,
6381,-0.14,0.095,
6382,-0.12,0.1,
6383,-0.125,0.095,
6384,-0.14,0.07,
6385,-0.14,0.05,
6386,-0.15,0.065,
6387,-0.15,0.07,
6388,-0.13,0.085,
6389,-0.105,0.085,
6390,-0.1,0.08,
6391,-0.095,0.075,
6392,-0.11,0.065,
6393,-0.095,0.075,
6394,-0.085,0.08,
6395,-0.08,0.08,
6396,-0.09,0.09,
6397,-0.11,0.085,
6398,-0.125,0.075,
6399,-0.12,0.09,
6400,-0.115,0.09,
6401,-0.11,0.085,
6402,-0.125,0.075,
6403,-0.125,0.09,
6404,-0.12,0.085,
6405,-0.12,0.1,
6406,-0.12,0.12,
6407,-0.14,0.12,
6408,-0.155,0.11,
6409,-0.21,0.1,
6410,-0.24,0.1,
6411,-0.275,0.12,
6412,-0.285,0.135,
6413,-0.29,0.135,
6414,-0.34,0.125,
6415,-0.36,0.13,
6416,-0.39,0.135,
6417,-0.385,0.135,
6418,-0.385,0.145,
6419,-0.365,0.14,
6420,-0.385,0.145,
6421,-0.385,0.125,
6422,-0.415,0.12,
6423,-0.41,0.135,
6424,-0.395,0.14,
6425,-0.39,0.14,
6426,-0.41,0.135,
6427,-0.405,0.12,
6428,-0.41,0.13,
6429,-0.395,0.14,
6430,-0.39,0.135,
6431,-0.39,0.13,
6432,-0.395,0.125,
6433,-0.4,0.105,
6434,-0.415,0.115,
6435,-0.405,0.125,
6436,-0.395,0.14,
6437,-0.38,0.13,
6438,-0.39,0.115,
6439,-0.395,0.115,
6440,-0.41,0.115,
6441,-0.395,0.125,
6442,-0.385,0.125,
6443,-0.39,0.12,
6444,-0.395,0.11,
6445,-0.4,0.105,
6446,-0.4,0.12,
6447,-0.39,0.125,
6448,-0.385,0.135,
6449,-0.37,0.125,
6450,-0.365,0.115,
6451,-0.38,0.105,
6452,-0.385,0.105,
6453,-0.37,0.12,
6454,-0.36,0.125,
6455,-0.35,0.125,
6456,-0.36,0.125,
6457,-0.355,0.125,
6458,-0.37,0.135,
6459,-0.375,0.16,
6460,-0.38,0.205,
6461,-0.39,0.22,
6462,-0.4,0.235,
6463,-0.41,0.25,
6464,-0.4,0.255,
6465,-0.335,0.255,
6466,-0.215,0.25,
6467,-0.07,0.185,
6468,0.06,0.12,
6469,0.185,0.025,
6470,0.28,-0.075,
6471,0.355,-0.15,
6472,0.425,-0.215,
6473,0.53,-0.335,
6474,0.67,-0.48,
6475,0.775,-0.66,
6476,0.875,-0.83,
6477,0.97,-0.94,
6478,1.07,-1.03,
6479,1.14,-1.085,
6480,1.17,-1.09,
6481,1.16,-1.11,
6482,1.15,-1.09,L
6483,1.095,-1.04,
6484,1.055,-0.975,
6485,0.97,-0.925,
6486,0.82,-0.865,
6487,0.665,-0.81,
6488,0.52,-0.74,
6489,0.435,-0.66,
6490,0.335,-0.6,
6491,0.22,-0.555,
6492,0.07,-0.52,
6493,-0.09,-0.465,
6494,-0.255,-0.41,
6495,-0.395,-0.365,
6496,-0.555,-0.32,
6497,-0.685,-0.285,
6498,-0.825,-0.255,
6499,-0.92,-0.245,
6500,-1.0,-0.21,
6501,-1.04,-0.155,
6502,-1.065,-0.115,
6503,-1.06,-0.095,
6504,-1.08,-0.085,
6505,-1.075,-0.065,
6506,-1.08,-0.04,
6507,-1.065,-0.005,
6508,-1.065,0.035,
6509,-1.04,0.065,
6510,-1.01,0.08,
6511,-0.975,0.09,
6512,-0.94,0.12,
6513,-0.895,0.145,
6514,-0.86,0.19,
6515,-0.84,0.205,
6516,-0.82,0.21,
6517,-0.825,0.22,
6518,-0.795,0.245,
6519,-0.755,0.27,
6520,-0.73,0.29,
6521,-0.705,0.295,
6522,-0.69,0.3,
6523,-0.675,0.285,
6524,-0.68,0.29,
6525,-0.66,0.305,
6526,-0.645,0.325,
6527,-0.645,0.3,
6528,-0.655,0.315,
6529,-0.66,0.3,
6530,-0.685,0.3,
6531,-0.675,0.305,
6532,-0.675,0.335,
6533,-0.675,0.335,
6534,-0.68,0.345,
6535,-0.69,0.33,
6536,-0.695,0.33,
6537,-0.695,0.34,
6538,-0.67,0.35,
6539,-0.69,0.35,
6540,-0.69,0.335,
6541,-0.705,0.33,
6542,-0.705,0.345,
6543,-0.695,0.35,
6544,-0.695,0.365,
6545,-0.7,0.36,
6546,-0.705,0.365,
6547,-0.71,0.37,
6548,-0.71,0.37,
6549,-0.71,0.385,
6550,-0.685,0.4,
6551,-0.68,0.395,
6552,-0.67,0.39,
6553,-0.68,0.38,
6554,-0.68,0.385,
6555,-0.67,0.4,
6556,-0.65,0.4,
6557,-0.64,0.4,
6558,-0.64,0.4,
6559,-0.66,0.39,
6560,-0.64,0.395,
6561,-0.615,0.39,
6562,-0.595,0.4,
6563,-0.58,0.405,
6564,-0.58,0.4,
6565,-0.58,0.385,
6566,-0.56,0.39,
6567,-0.54,0.385,
6568,-0.505,0.39,
6569,-0.495,0.38,
6570,-0.49,0.38,
6571,-0.47,0.355,
6572,-0.455,0.355,
6573,-0.445,0.365,
6574,-0.4,0.375,
6575,-0.395,0.355,
6576,-0.37,0.335,
6577,-0.37,0.33,
6578,-0.365,0.34,
6579,-0.33,0.335,
6580,-0.295,0.34,
6581,-0.295,0.325,
6582,-0.28,0.295,
6583,-0.26,0.31,
6584,-0.255,0.295,
6585,-0.235,0.295,
6586,-0.22,0.305,
6587,-0.21,0.285,
6588,-0.21,0.28,
6589,-0.205,0.255,
6590,-0.195,0.25,
6591,-0.18,0.255,
6592,-0.16,0.26,
6593,-0.14,0.255,
6594,-0.125,0.24,
6595,-0.115,0.23,
6596,-0.115,0.225,
6597,-0.105,0.225,
6598,-0.085,0.22,
6599,-0.07,0.22,
6600,-0.07,0.205,
6601,-0.08,0.19,
6602,-0.085,0.19,
6603,-0.07,0.175,
6604,-0.085,0.175,
6605,-0.085,0.15,
6606,-0.095,0.14,
6607,-0.105,0.125,
6608,-0.115,0.125,
6609,-0.105,0.14,
6610,-0.08,0.135,
6611,-0.065,0.125,
6612,-0.075,0.12,
6613,-0.09,0.105,
6614,-0.11,0.12,
6615,-0.105,0.125,
6616,-0.09,0.135,
6617,-0.09,0.12,
6618,-0.11,0.115,
6619,-0.13,0.11,
6620,-0.145,0.12,
6621,-0.135,0.125,
6622,-0.145,0.135,
6623,-0.135,0.135,
6624,-0.15,0.13,
6625,-0.16,0.12,
6626,-0.175,0.135,
6627,-0.2,0.145,
6628,-0.225,0.16,
6629,-0.255,0.16,
6630,-0.29,0.165,
6631,-0.315,0.15,
6632,-0.365,0.155,
6633,-0.38,0.17,
6634,-0.405,0.18,
6635,-0.435,0.175,
6636,-0.45,0.18,
6637,-0.465,0.165,
6638,-0.48,0.16,
6639,-0.48,0.18,
6640,-0.47,0.185,
6641,-0.47,0.18,
6642,-0.48,0.17,
6643,-0.495,0.17,
6644,-0.505,0.155,
6645,-0.5,0.17,
6646,-0.5,0.18,
6647,-0.495,0.18,
6648,-0.505,0.16,
6649,-0.525,0.155,
6650,-0.53,0.165,
