,MLII,V1,symbol
0,-0.035,0.035,
1,-0.035,0.035,
2,-0.035,0.035,
3,-0.035,0.035,
4,-0.035,0.035,
5,-0.035,0.035,
6,-0.035,0.035,
7,-0.035,0.035,
8,-0.035,0.035,
9,-0.035,0.06,
10,-0.02,0.085,
11,-0.04,0.07,
12,-0.065,0.045,
13,-0.08,0.01,
14,-0.1,0.01,
15,-0.09,0.015,
16,-0.08,0.005,
17,-0.105,0.0,
18,-0.095,-0.025,
19,-0.125,-0.055,
20,-0.135,-0.045,
21,-0.125,-0.04,
22,-0.115,-0.025,
23,-0.105,-0.025,
24,-0.12,-0.025,
25,-0.13,-0.03,
26,-0.125,-0.01,
27,-0.12,-0.01,
28,-0.105,0.005,
29,-0.1,0.0,
30,-0.115,-0.005,
31,-0.125,-0.025,+
32,-0.13,-0.005,
33,-0.13,0.005,
34,-0.115,0.015,
35,-0.115,0.02,
36,-0.11,0.0,
37,-0.125,0.005,
38,-0.13,0.015,
39,-0.12,0.035,
40,-0.105,0.035,
41,-0.105,0.04,
42,-0.09,0.015,
43,-0.125,0.015,
44,-0.135,0.025,
45,-0.12,0.03,
46,-0.1,0.05,
47,-0.11,0.035,
48,-0.115,0.035,
49,-0.12,0.025,
50,-0.115,0.04,
51,-0.11,0.05,
52,-0.09,0.055,
53,-0.085,0.05,
54,-0.095,0.04,
55,-0.12,0.045,
56,-0.125,0.04,
57,-0.12,0.04,
58,-0.11,0.06,
59,-0.1,0.045,
60,-0.115,0.03,
61,-0.135,0.02,
62,-0.135,0.025,
63,-0.14,0.05,
64,-0.11,0.055,
65,-0.13,0.05,
66,-0.135,0.03,
67,-0.15,0.0,
68,-0.14,0.01,
69,-0.135,0.02,
70,-0.13,0.035,
71,-0.14,0.025,
72,-0.135,0.025,
73,-0.145,0.01,
74,-0.145,0.015,
75,-0.135,0.035,
76,-0.12,0.035,
77,-0.125,0.035,
78,-0.13,0.015,
79,-0.145,0.015,
80,-0.145,0.025,
81,-0.125,0.05,
82,-0.125,0.06,
83,-0.135,0.035,
84,-0.13,0.025,
85,-0.145,0.02,
86,-0.155,0.03,
87,-0.15,0.05,
88,-0.135,0.045,
89,-0.135,0.03,
90,-0.14,0.0,
91,-0.16,-0.005,
92,-0.165,0.015,
93,-0.15,0.045,
94,-0.145,0.07,
95,-0.135,0.06,
96,-0.15,0.05,
97,-0.145,0.055,
98,-0.15,0.055,
99,-0.14,0.075,
100,-0.125,0.085,
101,-0.12,0.075,
102,-0.12,0.07,
103,-0.12,0.065,
104,-0.115,0.075,
105,-0.115,0.08,
106,-0.09,0.08,
107,-0.07,0.055,
108,-0.075,0.02,
109,-0.09,0.0,
110,-0.09,0.025,
111,-0.075,0.02,
112,-0.065,0.045,
113,-0.075,0.04,
114,-0.07,0.02,
115,-0.11,-0.005,
116,-0.095,-0.005,
117,-0.1,0.005,
118,-0.085,-0.005,
119,-0.08,-0.005,
120,-0.095,-0.025,
121,-0.125,-0.03,
122,-0.14,-0.055,
123,-0.125,-0.055,
124,-0.13,-0.05,
125,-0.125,-0.045,
126,-0.15,-0.04,
127,-0.155,-0.04,
128,-0.165,-0.03,
129,-0.145,-0.025,
130,-0.15,-0.005,
131,-0.145,0.0,
132,-0.175,0.005,
133,-0.195,0.0,
134,-0.205,0.015,
135,-0.19,0.04,
136,-0.185,0.05,
137,-0.185,0.035,
138,-0.2,0.01,
139,-0.205,0.0,
140,-0.22,0.01,
141,-0.205,0.04,
142,-0.185,0.05,
143,-0.195,0.045,
144,-0.225,0.025,
145,-0.215,0.035,
146,-0.23,0.03,
147,-0.22,0.05,
148,-0.22,0.055,
149,-0.22,0.055,
150,-0.23,0.03,
151,-0.235,0.025,
152,-0.245,0.035,
153,-0.235,0.045,
154,-0.215,0.055,
155,-0.225,0.05,
156,-0.23,0.045,
157,-0.245,0.025,
158,-0.25,0.02,
159,-0.24,0.04,
160,-0.235,0.045,
161,-0.215,0.05,
162,-0.23,0.04,
163,-0.25,0.03,
164,-0.24,0.035,
165,-0.23,0.025,
166,-0.22,0.02,
167,-0.215,0.025,
168,-0.225,0.015,
169,-0.24,0.01,
170,-0.245,0.015,
171,-0.23,0.035,
172,-0.22,0.055,
173,-0.205,0.03,
174,-0.195,-0.02,
175,-0.185,-0.13,
176,-0.175,-0.23,
177,-0.135,-0.36,
178,-0.09,-0.49,
179,-0.035,-0.64,
180,0.03,-0.78,
181,0.11,-0.88,
182,0.18,-0.93,
183,0.22,-0.925,
184,0.22,-0.905,
185,0.185,-0.925,
186,0.085,-0.94,
187,-0.035,-0.925,
188,-0.095,-0.9,
189,-0.095,-0.845,
190,-0.025,-0.795,
191,0.085,-0.77,
192,0.205,-0.75,
193,0.34,-0.73,
194,0.48,-0.695,
195,0.595,-0.665,
196,0.67,-0.64,
197,0.68,-0.615,L
198,0.59,-0.57,
199,0.455,-0.525,
200,0.335,-0.43,
201,0.23,-0.34,
202,0.14,-0.275,
203,0.035,-0.225,
204,-0.09,-0.175,
205,-0.2,-0.125,
206,-0.3,-0.05,
207,-0.39,0.05,
208,-0.445,0.115,
209,-0.485,0.145,
210,-0.51,0.15,
211,-0.495,0.155,
212,-0.455,0.175,
213,-0.425,0.195,
214,-0.38,0.205,
215,-0.335,0.21,
216,-0.33,0.22,
217,-0.32,0.215,
218,-0.33,0.22,
219,-0.31,0.25,
220,-0.315,0.26,
221,-0.3,0.25,
222,-0.31,0.235,
223,-0.315,0.23,
224,-0.32,0.24,
225,-0.29,0.265,
226,-0.285,0.27,
227,-0.27,0.265,
228,-0.275,0.26,
229,-0.295,0.26,
230,-0.295,0.265,
231,-0.285,0.285,
232,-0.285,0.3,
233,-0.28,0.29,
234,-0.275,0.28,
235,-0.295,0.275,
236,-0.29,0.29,
237,-0.275,0.315,
238,-0.255,0.34,
239,-0.245,0.345,
240,-0.23,0.355,
241,-0.26,0.335,
242,-0.26,0.33,
243,-0.25,0.335,
244,-0.235,0.33,
245,-0.235,0.325,
246,-0.235,0.325,
247,-0.245,0.33,
248,-0.245,0.34,
249,-0.22,0.37,
250,-0.195,0.385,
251,-0.175,0.365,
252,-0.18,0.37,
253,-0.18,0.365,
254,-0.17,0.38,
255,-0.155,0.385,
256,-0.14,0.395,
257,-0.12,0.385,
258,-0.125,0.385,
259,-0.12,0.385,
260,-0.115,0.385,
261,-0.1,0.4,
262,-0.07,0.4,
263,-0.075,0.39,
264,-0.045,0.375,
265,-0.05,0.345,
266,-0.045,0.365,
267,-0.005,0.355,
268,0.015,0.345,
269,0.025,0.32,
270,0.03,0.285,
271,0.03,0.245,
272,0.04,0.225,
273,0.06,0.23,
274,0.085,0.225,
275,0.09,0.2,
276,0.08,0.165,
277,0.08,0.135,
278,0.08,0.125,
279,0.11,0.11,
280,0.125,0.105,
281,0.14,0.085,
282,0.13,0.05,
283,0.115,0.04,
284,0.09,0.04,
285,0.09,0.055,
286,0.085,0.055,
287,0.06,0.06,
288,0.03,0.05,
289,-0.015,0.055,
290,-0.04,0.035,
291,-0.06,0.055,
292,-0.08,0.07,
293,-0.095,0.065,
294,-0.115,0.05,
295,-0.15,0.035,
296,-0.175,0.025,
297,-0.175,0.025,
298,-0.165,0.05,
299,-0.17,0.05,
300,-0.185,0.03,
301,-0.205,0.025,
302,-0.235,0.02,
303,-0.22,0.04,
304,-0.215,0.065,
305,-0.205,0.06,
306,-0.22,0.05,
307,-0.245,0.035,
308,-0.24,0.04,
309,-0.23,0.06,
310,-0.23,0.045,
311,-0.225,0.06,
312,-0.245,0.045,
313,-0.275,0.03,
314,-0.255,0.035,
315,-0.245,0.045,
316,-0.24,0.07,
317,-0.235,0.065,
318,-0.235,0.045,
319,-0.245,0.045,
320,-0.265,0.035,
321,-0.25,0.055,
322,-0.245,0.065,
323,-0.235,0.065,
324,-0.245,0.055,
325,-0.26,0.05,
326,-0.255,0.065,
327,-0.24,0.075,
328,-0.225,0.09,
329,-0.245,0.07,
330,-0.24,0.065,
331,-0.25,0.065,
332,-0.25,0.065,
333,-0.26,0.085,
334,-0.235,0.1,
335,-0.235,0.095,
336,-0.235,0.08,
337,-0.24,0.08,
338,-0.245,0.065,
339,-0.255,0.08,
340,-0.24,0.09,
341,-0.24,0.09,
342,-0.24,0.07,
343,-0.245,0.055,
344,-0.26,0.05,
345,-0.235,0.055,
346,-0.22,0.07,
347,-0.225,0.08,
348,-0.245,0.085,
349,-0.26,0.075,
350,-0.255,0.08,
351,-0.23,0.09,
352,-0.23,0.075,
353,-0.21,0.07,
354,-0.23,0.07,
355,-0.25,0.055,
356,-0.26,0.065,
357,-0.255,0.095,
358,-0.245,0.09,
359,-0.23,0.075,
360,-0.235,0.06,
361,-0.24,0.055,
362,-0.25,0.06,
363,-0.245,0.075,
364,-0.24,0.085,
365,-0.255,0.08,
366,-0.255,0.065,
367,-0.255,0.065,
368,-0.275,0.06,
369,-0.26,0.095,
370,-0.245,0.095,
371,-0.24,0.075,
372,-0.26,0.065,
373,-0.27,0.05,
374,-0.265,0.05,
375,-0.265,0.07,
376,-0.25,0.085,
377,-0.245,0.09,
378,-0.26,0.085,
379,-0.285,0.08,
380,-0.27,0.1,
381,-0.255,0.12,
382,-0.235,0.135,
383,-0.225,0.12,
384,-0.225,0.1,
385,-0.24,0.095,
386,-0.235,0.11,
387,-0.22,0.12,
388,-0.215,0.13,
389,-0.215,0.12,
390,-0.23,0.12,
391,-0.245,0.1,
392,-0.24,0.085,
393,-0.22,0.095,
394,-0.19,0.1,
395,-0.175,0.09,
396,-0.195,0.075,
397,-0.18,0.045,
398,-0.18,0.045,
399,-0.17,0.055,
400,-0.17,0.06,
401,-0.175,0.045,
402,-0.2,0.03,
403,-0.21,0.005,
404,-0.22,-0.005,
405,-0.215,0.01,
406,-0.215,0.015,
407,-0.21,0.025,
408,-0.21,0.02,
409,-0.23,0.015,
410,-0.23,0.025,
411,-0.23,0.03,
412,-0.22,0.025,
413,-0.225,0.005,
414,-0.25,-0.005,
415,-0.27,0.0,
416,-0.28,0.005,
417,-0.275,0.035,
418,-0.27,0.065,
419,-0.265,0.065,
420,-0.275,0.07,
421,-0.29,0.05,
422,-0.31,0.055,
423,-0.315,0.06,
424,-0.305,0.055,
425,-0.285,0.055,
426,-0.295,0.055,
427,-0.29,0.04,
428,-0.29,0.05,
429,-0.295,0.065,
430,-0.28,0.095,
431,-0.285,0.08,
432,-0.3,0.06,
433,-0.3,0.04,
434,-0.315,0.065,
435,-0.31,0.075,
436,-0.315,0.075,
437,-0.325,0.075,
438,-0.32,0.05,
439,-0.325,0.045,
440,-0.335,0.055,
441,-0.325,0.07,
442,-0.3,0.09,
443,-0.3,0.07,
444,-0.305,0.065,
445,-0.31,0.055,
446,-0.33,0.085,
447,-0.305,0.11,
448,-0.305,0.11,
449,-0.29,0.09,
450,-0.305,0.065,
451,-0.315,0.05,
452,-0.31,0.045,
453,-0.31,0.065,
454,-0.3,0.065,
455,-0.285,0.06,
456,-0.295,0.04,
457,-0.295,0.025,
458,-0.3,0.025,
459,-0.315,0.045,
460,-0.28,0.07,
461,-0.255,0.06,
462,-0.26,0.035,
463,-0.255,-0.03,
464,-0.25,-0.11,
465,-0.2,-0.2,
466,-0.145,-0.285,
467,-0.1,-0.42,
468,-0.05,-0.535,
469,0.015,-0.65,
470,0.08,-0.73,
471,0.145,-0.775,
472,0.21,-0.805,
473,0.23,-0.805,
474,0.2,-0.815,
475,0.135,-0.83,
476,0.08,-0.825,
477,-0.02,-0.82,
478,-0.075,-0.785,
479,-0.095,-0.74,
480,-0.075,-0.725,
481,-0.04,-0.71,
482,0.045,-0.665,
483,0.155,-0.63,
484,0.285,-0.59,
485,0.38,-0.57,
486,0.46,-0.56,
487,0.5,-0.55,
488,0.5,-0.53,
489,0.485,-0.48,L
490,0.425,-0.415,
491,0.335,-0.38,
492,0.245,-0.32,
493,0.16,-0.3,
494,0.085,-0.22,
495,0.025,-0.16,
496,-0.04,-0.095,
497,-0.125,-0.045,
498,-0.205,0.01,
499,-0.29,0.04,
500,-0.36,0.09,
501,-0.42,0.135,
502,-0.435,0.16,
503,-0.455,0.17,
504,-0.47,0.175,
505,-0.47,0.18,
506,-0.44,0.195,
507,-0.405,0.225,
508,-0.37,0.235,
509,-0.355,0.235,
510,-0.35,0.23,
511,-0.355,0.22,
512,-0.36,0.24,
513,-0.35,0.255,
514,-0.32,0.265,
515,-0.335,0.28,
516,-0.335,0.265,
517,-0.36,0.275,
518,-0.345,0.28,
519,-0.33,0.28,
520,-0.325,0.295,
521,-0.33,0.285,
522,-0.335,0.26,
523,-0.335,0.26,
524,-0.34,0.255,
525,-0.335,0.285,
526,-0.33,0.295,
527,-0.32,0.295,
528,-0.31,0.285,
529,-0.34,0.285,
530,-0.335,0.29,
531,-0.32,0.31,
532,-0.305,0.32,
533,-0.295,0.325,
534,-0.31,0.325,
535,-0.325,0.32,
536,-0.31,0.32,
537,-0.31,0.345,
538,-0.29,0.355,
539,-0.28,0.36,
540,-0.28,0.34,
541,-0.285,0.345,
542,-0.29,0.36,
543,-0.275,0.375,
544,-0.265,0.4,
545,-0.25,0.38,
546,-0.25,0.375,
547,-0.25,0.36,
548,-0.255,0.385,
549,-0.22,0.405,
550,-0.2,0.42,
551,-0.18,0.425,
552,-0.195,0.41,
553,-0.19,0.4,
554,-0.21,0.405,
555,-0.18,0.43,
556,-0.155,0.44,
557,-0.125,0.445,
558,-0.14,0.43,
559,-0.125,0.41,
560,-0.12,0.42,
561,-0.105,0.435,
562,-0.085,0.43,
563,-0.075,0.41,
564,-0.075,0.38,
565,-0.075,0.345,
566,-0.07,0.33,
567,-0.045,0.335,
568,-0.04,0.335,
569,-0.03,0.315,
570,-0.01,0.3,
571,-0.015,0.275,
572,0.005,0.255,
573,0.03,0.265,
574,0.06,0.23,
575,0.06,0.21,
576,0.065,0.185,
577,0.06,0.15,
578,0.065,0.145,
579,0.095,0.145,
580,0.125,0.145,
581,0.115,0.13,
582,0.13,0.105,
583,0.13,0.095,
584,0.11,0.085,
585,0.12,0.1,
586,0.115,0.09,
587,0.105,0.1,
588,0.085,0.075,
589,0.045,0.07,
590,0.03,0.08,
591,0.01,0.08,
592,0.01,0.085,
593,-0.005,0.075,
594,-0.025,0.065,
595,-0.075,0.055,
596,-0.09,0.075,
597,-0.105,0.075,
598,-0.115,0.075,
599,-0.115,0.075,
600,-0.15,0.07,
601,-0.15,0.055,
602,-0.175,0.06,
603,-0.18,0.075,
604,-0.175,0.095,
605,-0.18,0.085,
606,-0.19,0.07,
607,-0.21,0.07,
608,-0.215,0.07,
609,-0.195,0.075,
610,-0.185,0.08,
611,-0.18,0.075,
612,-0.195,0.06,
613,-0.215,0.07,
614,-0.23,0.07,
615,-0.22,0.09,
616,-0.21,0.085,
617,-0.21,0.06,
618,-0.225,0.045,
619,-0.215,0.035,
620,-0.23,0.065,
621,-0.22,0.07,
622,-0.205,0.09,
623,-0.19,0.075,
624,-0.2,0.065,
625,-0.195,0.06,
626,-0.2,0.075,
627,-0.205,0.08,
628,-0.185,0.085,
629,-0.195,0.085,
630,-0.195,0.07,
631,-0.205,0.05,
632,-0.21,0.07,
633,-0.205,0.085,
634,-0.185,0.105,
635,-0.17,0.1,
636,-0.19,0.095,
637,-0.205,0.075,
638,-0.195,0.08,
639,-0.18,0.095,
640,-0.175,0.105,
641,-0.17,0.1,
642,-0.19,0.09,
643,-0.195,0.08,
644,-0.215,0.07,
645,-0.19,0.09,
646,-0.185,0.09,
647,-0.19,0.09,
648,-0.195,0.08,
649,-0.195,0.08,
650,-0.195,0.075,
651,-0.2,0.095,
652,-0.18,0.1,
653,-0.17,0.1,
654,-0.185,0.085,
655,-0.21,0.075,
656,-0.2,0.08,
657,-0.2,0.115,
658,-0.17,0.12,
659,-0.165,0.12,
660,-0.2,0.095,
661,-0.21,0.075,
662,-0.21,0.08,
663,-0.195,0.09,
664,-0.17,0.1,
665,-0.18,0.105,
666,-0.19,0.07,
667,-0.2,0.065,
668,-0.215,0.07,
669,-0.205,0.09,
670,-0.195,0.09,
671,-0.185,0.09,
672,-0.2,0.07,
673,-0.21,0.06,
674,-0.21,0.065,
675,-0.205,0.08,
676,-0.2,0.095,
677,-0.195,0.09,
678,-0.205,0.065,
679,-0.22,0.08,
680,-0.215,0.075,
681,-0.205,0.09,
682,-0.21,0.1,
683,-0.185,0.095,
684,-0.195,0.08,
685,-0.21,0.07,
686,-0.215,0.065,
687,-0.21,0.09,
688,-0.195,0.105,
689,-0.19,0.105,
690,-0.215,0.105,
691,-0.21,0.11,
692,-0.215,0.105,
693,-0.19,0.13,
694,-0.18,0.14,
695,-0.165,0.125,
696,-0.17,0.125,
697,-0.19,0.11,
698,-0.18,0.115,
699,-0.17,0.135,
700,-0.16,0.14,
701,-0.145,0.13,
702,-0.15,0.115,
703,-0.15,0.095,
704,-0.145,0.09,
705,-0.155,0.095,
706,-0.12,0.105,
707,-0.115,0.095,
708,-0.105,0.065,
709,-0.105,0.045,
710,-0.115,0.05,
711,-0.105,0.045,
712,-0.11,0.07,
713,-0.095,0.055,
714,-0.11,0.045,
715,-0.125,0.03,
716,-0.13,0.03,
717,-0.145,0.035,
718,-0.135,0.04,
719,-0.13,0.03,
720,-0.145,0.005,
721,-0.16,0.0,
722,-0.165,0.005,
723,-0.165,0.035,
724,-0.15,0.035,
725,-0.155,0.035,
726,-0.165,0.035,
727,-0.175,0.015,
728,-0.195,0.03,
729,-0.195,0.025,
730,-0.18,0.045,
731,-0.185,0.045,
732,-0.2,0.05,
733,-0.195,0.05,
734,-0.21,0.07,
735,-0.205,0.09,
736,-0.205,0.095,
737,-0.22,0.095,
738,-0.225,0.085,
739,-0.215,0.065,
740,-0.24,0.05,
741,-0.225,0.05,
742,-0.21,0.075,
743,-0.22,0.08,
744,-0.24,0.07,
745,-0.25,0.06,
746,-0.245,0.06,
747,-0.225,0.08,
748,-0.225,0.09,
749,-0.22,0.08,
750,-0.23,0.07,
751,-0.25,0.065,
752,-0.25,0.065,
753,-0.245,0.075,
754,-0.235,0.09,
755,-0.215,0.08,
756,-0.22,0.07,
757,-0.24,0.065,
758,-0.245,0.065,
759,-0.23,0.08,
760,-0.23,0.105,
761,-0.215,0.085,
762,-0.225,0.07,
763,-0.225,0.065,
764,-0.24,0.065,
765,-0.225,0.07,
766,-0.205,0.085,
767,-0.22,0.08,
768,-0.22,0.055,
769,-0.22,0.065,
770,-0.23,0.06,
771,-0.215,0.07,
772,-0.2,0.08,
773,-0.19,0.08,
774,-0.205,0.07,
775,-0.21,0.065,
776,-0.205,0.065,
777,-0.185,0.05,
778,-0.15,-0.01,
779,-0.14,-0.135,
780,-0.125,-0.27,
781,-0.125,-0.39,
782,-0.07,-0.495,
783,-0.005,-0.595,
784,0.05,-0.685,
785,0.13,-0.785,
786,0.175,-0.84,
787,0.22,-0.87,
788,0.23,-0.855,
789,0.22,-0.845,
790,0.185,-0.845,
791,0.12,-0.87,
792,0.015,-0.865,
793,-0.05,-0.825,
794,-0.05,-0.775,
795,0.015,-0.735,
796,0.12,-0.705,
797,0.24,-0.675,
798,0.38,-0.675,
799,0.49,-0.655,
800,0.59,-0.64,
801,0.685,-0.6,
802,0.745,-0.56,
803,0.75,-0.54,
804,0.68,-0.515,L
805,0.565,-0.47,
806,0.455,-0.425,
807,0.375,-0.34,
808,0.29,-0.295,
809,0.21,-0.25,
810,0.12,-0.22,
811,0.005,-0.18,
812,-0.11,-0.1,
813,-0.2,-0.03,
814,-0.275,0.04,
815,-0.35,0.07,
816,-0.42,0.11,
817,-0.455,0.13,
818,-0.48,0.17,
819,-0.475,0.21,
820,-0.435,0.225,
821,-0.4,0.225,
822,-0.37,0.22,
823,-0.34,0.205,
824,-0.325,0.205,
825,-0.305,0.24,
826,-0.27,0.265,
827,-0.26,0.26,
828,-0.255,0.26,
829,-0.26,0.245,
830,-0.28,0.245,
831,-0.255,0.255,
832,-0.25,0.275,
833,-0.245,0.27,
834,-0.24,0.26,
835,-0.25,0.26,
836,-0.25,0.275,
837,-0.24,0.285,
838,-0.225,0.3,
839,-0.215,0.305,
840,-0.235,0.295,
841,-0.24,0.29,
842,-0.245,0.305,
843,-0.235,0.305,
844,-0.215,0.335,
845,-0.21,0.34,
846,-0.22,0.315,
847,-0.235,0.325,
848,-0.23,0.33,
849,-0.225,0.335,
850,-0.215,0.355,
851,-0.195,0.355,
852,-0.185,0.355,
853,-0.2,0.345,
854,-0.19,0.365,
855,-0.19,0.365,
856,-0.17,0.375,
857,-0.165,0.365,
858,-0.165,0.375,
859,-0.175,0.355,
860,-0.18,0.38,
861,-0.165,0.39,
862,-0.14,0.41,
863,-0.125,0.395,
864,-0.13,0.38,
865,-0.135,0.37,
866,-0.12,0.385,
867,-0.11,0.4,
868,-0.095,0.43,
869,-0.08,0.43,
870,-0.075,0.415,
871,-0.085,0.41,
872,-0.07,0.415,
873,-0.055,0.425,
874,-0.04,0.445,
875,-0.03,0.435,
876,-0.015,0.415,
877,-0.025,0.4,
878,-0.025,0.41,
879,0.0,0.41,
880,0.02,0.425,
881,0.045,0.4,
882,0.045,0.39,
883,0.035,0.37,
884,0.035,0.355,
885,0.07,0.355,
886,0.085,0.36,
887,0.1,0.335,
888,0.115,0.3,
889,0.11,0.275,
890,0.11,0.255,
891,0.12,0.245,
892,0.15,0.235,
893,0.16,0.205,
894,0.17,0.185,
895,0.17,0.16,
896,0.175,0.155,
897,0.19,0.135,
898,0.19,0.135,
899,0.21,0.105,
900,0.225,0.08,
901,0.2,0.065,
902,0.195,0.06,
903,0.195,0.075,
904,0.205,0.09,
905,0.19,0.085,
906,0.17,0.075,
907,0.125,0.07,
908,0.11,0.07,
909,0.095,0.085,
910,0.08,0.1,
911,0.08,0.08,
912,0.045,0.065,
913,0.015,0.065,
914,-0.015,0.065,
915,-0.035,0.075,
916,-0.035,0.085,
917,-0.04,0.075,
918,-0.08,0.07,
919,-0.095,0.07,
920,-0.095,0.07,
921,-0.09,0.095,
922,-0.1,0.09,
923,-0.095,0.08,
924,-0.1,0.065,
925,-0.13,0.045,
926,-0.13,0.05,
927,-0.125,0.065,
928,-0.125,0.075,
929,-0.125,0.07,
930,-0.135,0.055,
931,-0.145,0.055,
932,-0.155,0.06,
933,-0.15,0.085,
934,-0.14,0.09,
935,-0.13,0.08,
936,-0.145,0.075,
937,-0.15,0.07,
938,-0.145,0.085,
939,-0.155,0.085,
940,-0.145,0.095,
941,-0.12,0.1,
942,-0.145,0.075,
943,-0.155,0.08,
944,-0.165,0.08,
945,-0.15,0.085,
946,-0.13,0.105,
947,-0.13,0.1,
948,-0.14,0.085,
949,-0.15,0.085,
950,-0.145,0.08,
951,-0.145,0.09,
952,-0.145,0.11,
953,-0.125,0.09,
954,-0.14,0.085,
955,-0.15,0.085,
956,-0.165,0.07,
957,-0.155,0.1,
958,-0.145,0.11,
959,-0.155,0.105,
960,-0.15,0.095,
961,-0.165,0.095,
962,-0.17,0.1,
963,-0.16,0.12,
964,-0.15,0.125,
965,-0.15,0.115,
966,-0.155,0.12,
967,-0.17,0.115,
968,-0.195,0.105,
969,-0.18,0.095,
970,-0.155,0.095,
971,-0.15,0.11,
972,-0.16,0.115,
973,-0.175,0.1,
974,-0.175,0.09,
975,-0.165,0.085,
976,-0.14,0.08,
977,-0.14,0.07,
978,-0.145,0.06,
979,-0.17,0.055,
980,-0.18,0.07,
981,-0.17,0.095,
982,-0.15,0.105,
983,-0.15,0.1,
984,-0.155,0.085,
985,-0.165,0.06,
986,-0.175,0.065,
987,-0.175,0.07,
988,-0.155,0.075,
989,-0.145,0.065,
990,-0.155,0.05,
991,-0.17,0.05,
992,-0.18,0.065,
993,-0.16,0.07,
994,-0.15,0.08,
995,-0.155,0.08,
996,-0.165,0.075,
997,-0.17,0.075,
998,-0.185,0.08,
999,-0.18,0.09,
1000,-0.17,0.075,
1001,-0.17,0.065,
1002,-0.175,0.045,
1003,-0.18,0.065,
1004,-0.185,0.08,
1005,-0.16,0.095,
1006,-0.17,0.1,
1007,-0.18,0.09,
1008,-0.18,0.085,
1009,-0.205,0.095,
1010,-0.175,0.11,
1011,-0.16,0.115,
1012,-0.16,0.105,
1013,-0.16,0.075,
1014,-0.165,0.07,
1015,-0.17,0.075,
1016,-0.15,0.08,
1017,-0.12,0.11,
1018,-0.115,0.11,
1019,-0.12,0.1,
1020,-0.14,0.08,
1021,-0.145,0.08,
1022,-0.135,0.09,
1023,-0.11,0.085,
1024,-0.1,0.075,
1025,-0.105,0.055,
1026,-0.12,0.045,
1027,-0.115,0.04,
1028,-0.105,0.06,
1029,-0.09,0.06,
1030,-0.085,0.045,
1031,-0.1,0.02,
1032,-0.12,0.005,
1033,-0.13,0.005,
1034,-0.125,0.015,
1035,-0.115,0.03,
1036,-0.12,0.02,
1037,-0.13,0.01,
1038,-0.15,-0.005,
1039,-0.155,0.0,
1040,-0.16,0.01,
1041,-0.15,0.02,
1042,-0.155,0.005,
1043,-0.155,0.0,
1044,-0.175,-0.005,
1045,-0.2,-0.01,
1046,-0.205,0.005,
1047,-0.18,0.015,
1048,-0.175,0.005,
1049,-0.2,0.015,
1050,-0.21,0.02,
1051,-0.225,0.03,
1052,-0.2,0.055,
1053,-0.19,0.06,
1054,-0.19,0.065,
1055,-0.22,0.045,
1056,-0.245,0.045,
1057,-0.265,0.05,
1058,-0.255,0.06,
1059,-0.23,0.065,
1060,-0.225,0.06,
1061,-0.22,0.055,
1062,-0.245,0.04,
1063,-0.255,0.05,
1064,-0.245,0.07,
1065,-0.24,0.075,
1066,-0.23,0.07,
1067,-0.245,0.055,
1068,-0.265,0.05,
1069,-0.275,0.06,
1070,-0.265,0.065,
1071,-0.25,0.08,
1072,-0.25,0.07,
1073,-0.25,0.06,
1074,-0.27,0.055,
1075,-0.275,0.065,
1076,-0.255,0.075,
1077,-0.255,0.085,
1078,-0.26,0.075,
1079,-0.255,0.06,
1080,-0.275,0.055,
1081,-0.285,0.055,
1082,-0.26,0.055,
1083,-0.275,0.07,
1084,-0.275,0.065,
1085,-0.265,0.045,
1086,-0.28,0.03,
1087,-0.285,0.04,
1088,-0.275,0.065,
1089,-0.26,0.07,
1090,-0.26,0.055,
1091,-0.255,0.05,
1092,-0.265,0.035,
1093,-0.27,0.045,
1094,-0.26,0.04,
1095,-0.25,0.06,
1096,-0.24,0.055,
1097,-0.255,0.065,
1098,-0.265,0.045,
1099,-0.26,0.025,
1100,-0.235,-0.01,
1101,-0.21,-0.065,
1102,-0.18,-0.16,
1103,-0.165,-0.28,
1104,-0.15,-0.4,
1105,-0.115,-0.51,
1106,-0.06,-0.61,
1107,0.015,-0.705,
1108,0.09,-0.81,
1109,0.135,-0.865,
1110,0.145,-0.905,
1111,0.15,-0.92,
1112,0.145,-0.9,
1113,0.115,-0.89,
1114,0.05,-0.91,
1115,-0.05,-0.92,
1116,-0.125,-0.895,
1117,-0.165,-0.87,
1118,-0.12,-0.81,
1119,-0.03,-0.765,
1120,0.08,-0.74,
1121,0.21,-0.72,
1122,0.3,-0.695,
1123,0.41,-0.68,
1124,0.525,-0.655,
1125,0.63,-0.61,
1126,0.69,-0.605,
1127,0.67,-0.58,L
1128,0.6,-0.555,
1129,0.485,-0.495,
1130,0.39,-0.425,
1131,0.31,-0.365,
1132,0.215,-0.32,
1133,0.12,-0.275,
1134,0.005,-0.24,
1135,-0.1,-0.18,
1136,-0.2,-0.115,
1137,-0.29,-0.06,
1138,-0.375,-0.005,
1139,-0.46,0.04,
1140,-0.505,0.075,
1141,-0.545,0.11,
1142,-0.555,0.165,
1143,-0.52,0.185,
1144,-0.505,0.19,
1145,-0.47,0.185,
1146,-0.455,0.185,
1147,-0.44,0.19,
1148,-0.41,0.225,
1149,-0.365,0.225,
1150,-0.345,0.23,
1151,-0.34,0.22,
1152,-0.345,0.215,
1153,-0.355,0.235,
1154,-0.355,0.25,
1155,-0.34,0.275,
1156,-0.32,0.265,
1157,-0.325,0.245,
1158,-0.35,0.245,
1159,-0.34,0.25,
1160,-0.335,0.265,
1161,-0.325,0.28,
1162,-0.32,0.265,
1163,-0.32,0.27,
1164,-0.325,0.26,
1165,-0.335,0.27,
1166,-0.33,0.285,
1167,-0.315,0.305,
1168,-0.305,0.285,
1169,-0.305,0.285,
1170,-0.33,0.275,
1171,-0.32,0.29,
1172,-0.31,0.305,
1173,-0.31,0.315,
1174,-0.305,0.325,
1175,-0.295,0.305,
1176,-0.3,0.3,
1177,-0.31,0.315,
1178,-0.305,0.32,
1179,-0.29,0.345,
1180,-0.28,0.345,
1181,-0.27,0.33,
1182,-0.28,0.325,
1183,-0.28,0.345,
1184,-0.275,0.35,
1185,-0.255,0.365,
1186,-0.235,0.365,
1187,-0.25,0.37,
1188,-0.265,0.36,
1189,-0.26,0.365,
1190,-0.235,0.38,
1191,-0.22,0.405,
1192,-0.215,0.4,
1193,-0.2,0.38,
1194,-0.2,0.365,
1195,-0.195,0.385,
1196,-0.185,0.385,
1197,-0.17,0.4,
1198,-0.15,0.395,
1199,-0.145,0.395,
1200,-0.14,0.38,
1201,-0.13,0.375,
1202,-0.13,0.39,
1203,-0.1,0.395,
1204,-0.08,0.385,
1205,-0.075,0.37,
1206,-0.08,0.35,
1207,-0.065,0.34,
1208,-0.04,0.34,
1209,-0.03,0.34,
1210,-0.015,0.315,
1211,-0.015,0.285,
1212,-0.015,0.265,
1213,0.0,0.25,
1214,0.025,0.24,
1215,0.035,0.225,
1216,0.035,0.195,
1217,0.04,0.175,
1218,0.035,0.135,
1219,0.045,0.13,
1220,0.055,0.135,
1221,0.08,0.125,
1222,0.1,0.105,
1223,0.095,0.08,
1224,0.085,0.06,
1225,0.08,0.06,
1226,0.07,0.065,
1227,0.075,0.08,
1228,0.075,0.08,
1229,0.045,0.05,
1230,0.015,0.045,
1231,-0.025,0.05,
1232,-0.03,0.07,
1233,-0.04,0.08,
1234,-0.05,0.06,
1235,-0.085,0.05,
1236,-0.11,0.055,
1237,-0.135,0.045,
1238,-0.15,0.045,
1239,-0.16,0.055,
1240,-0.165,0.05,
1241,-0.18,0.04,
1242,-0.21,0.04,
1243,-0.215,0.045,
1244,-0.21,0.045,
1245,-0.21,0.065,
1246,-0.21,0.055,
1247,-0.22,0.04,
1248,-0.25,0.04,
1249,-0.275,0.04,
1250,-0.265,0.055,
1251,-0.26,0.05,
1252,-0.26,0.06,
1253,-0.26,0.05,
1254,-0.29,0.04,
1255,-0.305,0.04,
1256,-0.29,0.065,
1257,-0.285,0.065,
1258,-0.265,0.05,
1259,-0.28,0.045,
1260,-0.295,0.045,
1261,-0.31,0.045,
1262,-0.295,0.065,
1263,-0.28,0.08,
1264,-0.285,0.07,
1265,-0.28,0.05,
1266,-0.305,0.04,
1267,-0.305,0.05,
1268,-0.29,0.075,
1269,-0.29,0.09,
1270,-0.29,0.08,
1271,-0.295,0.07,
1272,-0.3,0.05,
1273,-0.305,0.07,
1274,-0.285,0.08,
1275,-0.27,0.09,
1276,-0.27,0.095,
1277,-0.28,0.08,
1278,-0.305,0.065,
1279,-0.3,0.08,
1280,-0.295,0.09,
1281,-0.28,0.1,
1282,-0.28,0.105,
1283,-0.3,0.085,
1284,-0.295,0.08,
1285,-0.305,0.09,
1286,-0.295,0.1,
1287,-0.295,0.11,
1288,-0.29,0.09,
1289,-0.29,0.085,
1290,-0.305,0.085,
1291,-0.31,0.09,
1292,-0.295,0.095,
1293,-0.3,0.105,
1294,-0.275,0.095,
1295,-0.295,0.08,
1296,-0.305,0.08,
1297,-0.315,0.1,
1298,-0.3,0.1,
1299,-0.29,0.11,
1300,-0.295,0.085,
1301,-0.29,0.075,
1302,-0.315,0.06,
1303,-0.33,0.065,
1304,-0.33,0.085,
1305,-0.29,0.1,
1306,-0.285,0.08,
1307,-0.285,0.085,
1308,-0.29,0.07,
1309,-0.305,0.075,
1310,-0.305,0.09,
1311,-0.285,0.105,
1312,-0.285,0.09,
1313,-0.295,0.075,
1314,-0.29,0.075,
1315,-0.305,0.075,
1316,-0.285,0.095,
1317,-0.305,0.11,
1318,-0.29,0.09,
1319,-0.285,0.095,
1320,-0.31,0.07,
1321,-0.33,0.08,
1322,-0.33,0.095,
1323,-0.32,0.105,
1324,-0.305,0.115,
1325,-0.31,0.1,
1326,-0.33,0.095,
1327,-0.335,0.105,
1328,-0.305,0.13,
1329,-0.285,0.145,
1330,-0.27,0.14,
1331,-0.265,0.13,
1332,-0.28,0.12,
1333,-0.285,0.12,
1334,-0.28,0.13,
1335,-0.28,0.155,
1336,-0.25,0.14,
1337,-0.255,0.125,
1338,-0.27,0.095,
1339,-0.26,0.085,
1340,-0.245,0.07,
1341,-0.235,0.08,
1342,-0.2,0.07,
1343,-0.195,0.07,
1344,-0.21,0.04,
1345,-0.23,0.045,
1346,-0.235,0.04,
1347,-0.23,0.055,
1348,-0.225,0.05,
1349,-0.23,0.035,
1350,-0.255,0.025,
1351,-0.255,0.035,
1352,-0.27,0.02,
1353,-0.26,0.03,
1354,-0.27,0.015,
1355,-0.285,-0.005,
1356,-0.28,0.0,
1357,-0.285,0.01,
1358,-0.27,0.03,
1359,-0.275,0.035,
1360,-0.255,0.055,
1361,-0.28,0.05,
1362,-0.31,0.045,
1363,-0.335,0.065,
1364,-0.325,0.09,
1365,-0.315,0.11,
1366,-0.32,0.11,
1367,-0.335,0.095,
1368,-0.35,0.095,
1369,-0.36,0.125,
1370,-0.335,0.14,
1371,-0.32,0.12,
1372,-0.305,0.08,
1373,-0.315,0.04,
1374,-0.34,0.035,
1375,-0.34,0.035,
1376,-0.34,0.05,
1377,-0.33,0.06,
1378,-0.325,0.07,
1379,-0.33,0.045,
1380,-0.365,0.06,
1381,-0.365,0.065,
1382,-0.355,0.09,
1383,-0.34,0.095,
1384,-0.335,0.085,
1385,-0.345,0.09,
1386,-0.35,0.075,
1387,-0.35,0.07,
1388,-0.345,0.095,
1389,-0.33,0.115,
1390,-0.32,0.1,
1391,-0.34,0.085,
1392,-0.33,0.065,
1393,-0.335,0.07,
1394,-0.33,0.08,
1395,-0.31,0.095,
1396,-0.305,0.08,
1397,-0.305,0.075,
1398,-0.325,0.055,
1399,-0.325,0.075,
1400,-0.3,0.08,
1401,-0.28,0.09,
1402,-0.26,0.065,
1403,-0.26,0.01,
1404,-0.25,-0.075,
1405,-0.255,-0.15,
1406,-0.215,-0.245,
1407,-0.135,-0.35,
1408,-0.065,-0.465,
1409,0.025,-0.585,
1410,0.085,-0.695,
1411,0.155,-0.765,
1412,0.25,-0.795,
1413,0.31,-0.785,
1414,0.33,-0.78,
1415,0.305,-0.76,
1416,0.255,-0.805,
1417,0.185,-0.815,
1418,0.12,-0.8,
1419,0.095,-0.76,
1420,0.07,-0.73,
1421,0.08,-0.695,
1422,0.13,-0.68,
1423,0.235,-0.655,
1424,0.36,-0.625,
1425,0.505,-0.6,
1426,0.63,-0.57,
1427,0.705,-0.56,
1428,0.755,-0.525,
1429,0.755,-0.485,
1430,0.705,-0.41,L
1431,0.66,-0.365,
1432,0.59,-0.315,
1433,0.515,-0.275,
1434,0.43,-0.235,
1435,0.34,-0.195,
1436,0.26,-0.125,
1437,0.185,-0.06,
1438,0.07,-0.005,
1439,-0.04,0.04,
1440,-0.175,0.08,
1441,-0.29,0.14,
1442,-0.365,0.19,
1443,-0.42,0.225,
1444,-0.455,0.23,
1445,-0.485,0.22,
1446,-0.465,0.215,
1447,-0.45,0.23,
1448,-0.425,0.245,
1449,-0.405,0.285,
1450,-0.385,0.28,
1451,-0.37,0.265,
1452,-0.37,0.255,
1453,-0.385,0.265,
1454,-0.39,0.28,
1455,-0.38,0.28,
1456,-0.38,0.265,
1457,-0.39,0.28,
1458,-0.4,0.275,
1459,-0.395,0.28,
1460,-0.4,0.295,
1461,-0.375,0.325,
1462,-0.355,0.32,
1463,-0.375,0.305,
1464,-0.39,0.31,
1465,-0.395,0.325,
1466,-0.385,0.35,
1467,-0.375,0.385,
1468,-0.375,0.385,
1469,-0.365,0.375,
1470,-0.37,0.35,
1471,-0.385,0.315,
1472,-0.385,0.305,
1473,-0.365,0.305,
1474,-0.37,0.305,
1475,-0.355,0.32,
1476,-0.37,0.325,
1477,-0.375,0.34,
1478,-0.355,0.375,
1479,-0.345,0.38,
1480,-0.315,0.39,
1481,-0.325,0.355,
1482,-0.335,0.36,
1483,-0.345,0.365,
1484,-0.34,0.38,
1485,-0.335,0.405,
1486,-0.315,0.4,
1487,-0.305,0.405,
1488,-0.315,0.405,
1489,-0.31,0.41,
1490,-0.295,0.425,
1491,-0.285,0.455,
1492,-0.27,0.45,
1493,-0.265,0.445,
1494,-0.265,0.435,
1495,-0.27,0.44,
1496,-0.255,0.45,
1497,-0.225,0.455,
1498,-0.215,0.45,
1499,-0.205,0.45,
1500,-0.22,0.435,
1501,-0.2,0.45,
1502,-0.19,0.45,
1503,-0.17,0.47,
1504,-0.155,0.465,
1505,-0.145,0.45,
1506,-0.145,0.425,
1507,-0.14,0.39,
1508,-0.13,0.39,
1509,-0.09,0.395,
1510,-0.07,0.37,
1511,-0.05,0.33,
1512,-0.075,0.295,
1513,-0.07,0.29,
1514,-0.045,0.285,
1515,-0.025,0.26,
1516,0.005,0.225,
1517,0.02,0.195,
1518,0.03,0.17,
1519,0.04,0.165,
1520,0.065,0.17,
1521,0.09,0.165,
1522,0.12,0.155,
1523,0.13,0.14,
1524,0.115,0.13,
1525,0.105,0.12,
1526,0.11,0.12,
1527,0.125,0.13,
1528,0.115,0.12,
1529,0.105,0.095,
1530,0.07,0.095,
1531,0.05,0.09,
1532,0.04,0.09,
1533,0.025,0.1,
1534,0.01,0.095,
1535,-0.015,0.09,
1536,-0.055,0.095,
1537,-0.09,0.1,
1538,-0.09,0.125,
1539,-0.095,0.13,
1540,-0.1,0.115,
1541,-0.12,0.105,
1542,-0.145,0.08,
1543,-0.155,0.095,
1544,-0.15,0.09,
1545,-0.145,0.095,
1546,-0.155,0.095,
1547,-0.14,0.08,
1548,-0.175,0.1,
1549,-0.17,0.095,
1550,-0.17,0.095,
1551,-0.165,0.09,
1552,-0.15,0.065,
1553,-0.165,0.05,
1554,-0.175,0.035,
1555,-0.185,0.055,
1556,-0.165,0.075,
1557,-0.16,0.095,
1558,-0.16,0.07,
1559,-0.165,0.08,
1560,-0.175,0.05,
1561,-0.185,0.065,
1562,-0.18,0.075,
1563,-0.165,0.095,
1564,-0.15,0.095,
1565,-0.165,0.08,
1566,-0.175,0.075,
1567,-0.175,0.085,
1568,-0.175,0.1,
1569,-0.155,0.115,
1570,-0.155,0.105,
1571,-0.16,0.09,
1572,-0.16,0.08,
1573,-0.17,0.08,
1574,-0.15,0.095,
1575,-0.15,0.115,
1576,-0.155,0.11,
1577,-0.15,0.095,
1578,-0.16,0.08,
1579,-0.17,0.08,
1580,-0.15,0.095,
1581,-0.135,0.115,
1582,-0.13,0.12,
1583,-0.145,0.11,
1584,-0.15,0.095,
1585,-0.16,0.105,
1586,-0.155,0.105,
1587,-0.13,0.115,
1588,-0.13,0.1,
1589,-0.135,0.09,
1590,-0.145,0.09,
1591,-0.145,0.09,
1592,-0.145,0.11,
1593,-0.125,0.11,
1594,-0.105,0.095,
1595,-0.12,0.095,
1596,-0.135,0.09,
1597,-0.15,0.095,
1598,-0.14,0.105,
1599,-0.13,0.105,
1600,-0.125,0.1,
1601,-0.135,0.085,
1602,-0.145,0.07,
1603,-0.165,0.075,
1604,-0.16,0.09,
1605,-0.125,0.11,
1606,-0.125,0.095,
1607,-0.125,0.085,
1608,-0.13,0.075,
1609,-0.145,0.085,
1610,-0.135,0.1,
1611,-0.135,0.1,
1612,-0.12,0.1,
1613,-0.125,0.09,
1614,-0.14,0.075,
1615,-0.15,0.075,
1616,-0.14,0.09,
1617,-0.13,0.09,
1618,-0.135,0.105,
1619,-0.13,0.09,
1620,-0.15,0.075,
1621,-0.155,0.08,
1622,-0.16,0.095,
1623,-0.145,0.12,
1624,-0.135,0.115,
1625,-0.145,0.09,
1626,-0.15,0.08,
1627,-0.15,0.09,
1628,-0.155,0.105,
1629,-0.14,0.13,
1630,-0.125,0.135,
1631,-0.135,0.115,
1632,-0.155,0.11,
1633,-0.16,0.13,
1634,-0.145,0.135,
1635,-0.125,0.145,
1636,-0.105,0.14,
1637,-0.105,0.13,
1638,-0.12,0.135,
1639,-0.13,0.14,
1640,-0.13,0.155,
1641,-0.11,0.15,
1642,-0.1,0.155,
1643,-0.1,0.13,
1644,-0.11,0.12,
1645,-0.1,0.095,
1646,-0.095,0.1,
1647,-0.08,0.115,
1648,-0.05,0.105,
1649,-0.065,0.1,
1650,-0.07,0.08,
1651,-0.08,0.085,
1652,-0.075,0.085,
1653,-0.075,0.075,
1654,-0.08,0.085,
1655,-0.08,0.065,
1656,-0.1,0.055,
1657,-0.105,0.055,
1658,-0.095,0.035,
1659,-0.085,0.03,
1660,-0.09,0.01,
1661,-0.115,0.015,
1662,-0.13,0.015,
1663,-0.15,0.02,
1664,-0.14,0.035,
1665,-0.125,0.045,
1666,-0.12,0.035,
1667,-0.12,0.05,
1668,-0.145,0.045,
1669,-0.15,0.04,
1670,-0.15,0.07,
1671,-0.145,0.07,
1672,-0.135,0.09,
1673,-0.14,0.09,
1674,-0.155,0.085,
1675,-0.175,0.08,
1676,-0.18,0.1,
1677,-0.175,0.105,
1678,-0.17,0.095,
1679,-0.175,0.09,
1680,-0.19,0.09,
1681,-0.205,0.09,
1682,-0.18,0.11,
1683,-0.19,0.12,
1684,-0.17,0.11,
1685,-0.19,0.11,
1686,-0.195,0.09,
1687,-0.2,0.1,
1688,-0.19,0.105,
1689,-0.18,0.11,
1690,-0.185,0.105,
1691,-0.19,0.1,
1692,-0.205,0.095,
1693,-0.22,0.1,
1694,-0.215,0.1,
1695,-0.21,0.125,
1696,-0.195,0.11,
1697,-0.21,0.105,
1698,-0.2,0.09,
1699,-0.22,0.105,
1700,-0.205,0.1,
1701,-0.2,0.105,
1702,-0.185,0.1,
1703,-0.205,0.08,
1704,-0.205,0.085,
1705,-0.2,0.095,
1706,-0.21,0.105,
1707,-0.175,0.12,
1708,-0.18,0.1,
1709,-0.175,0.095,
1710,-0.18,0.07,
1711,-0.2,0.075,
1712,-0.18,0.08,
1713,-0.16,0.08,
1714,-0.145,0.025,
1715,-0.135,-0.07,
1716,-0.13,-0.185,
1717,-0.115,-0.315,
1718,-0.08,-0.445,
1719,-0.005,-0.575,
1720,0.075,-0.71,
1721,0.15,-0.81,
1722,0.235,-0.875,
1723,0.305,-0.88,
1724,0.335,-0.85,
1725,0.365,-0.835,
1726,0.34,-0.845,
1727,0.28,-0.86,
1728,0.205,-0.865,
1729,0.16,-0.83,
1730,0.155,-0.775,
1731,0.225,-0.72,
1732,0.345,-0.69,
1733,0.49,-0.665,
1734,0.6,-0.65,
1735,0.72,-0.63,
1736,0.835,-0.59,
1737,0.925,-0.555,
1738,0.955,-0.53,
1739,0.885,-0.49,L
1740,0.765,-0.435,
1741,0.66,-0.36,
1742,0.58,-0.285,
1743,0.52,-0.22,
1744,0.435,-0.18,
1745,0.305,-0.13,
1746,0.17,-0.085,
1747,0.025,-0.005,
1748,-0.135,0.07,
1749,-0.235,0.14,
1750,-0.315,0.18,
1751,-0.365,0.205,
1752,-0.405,0.23,
1753,-0.425,0.24,
1754,-0.4,0.265,
1755,-0.34,0.285,
1756,-0.31,0.295,
1757,-0.29,0.28,
1758,-0.265,0.285,
1759,-0.27,0.29,
1760,-0.27,0.305,
1761,-0.25,0.325,
1762,-0.245,0.32,
1763,-0.26,0.31,
1764,-0.26,0.305,
1765,-0.275,0.305,
1766,-0.26,0.32,
1767,-0.26,0.335,
1768,-0.25,0.33,
1769,-0.255,0.34,
1770,-0.27,0.31,
1771,-0.27,0.33,
1772,-0.26,0.34,
1773,-0.245,0.35,
1774,-0.24,0.345,
1775,-0.24,0.345,
1776,-0.27,0.345,
1777,-0.27,0.345,
1778,-0.26,0.37,
1779,-0.25,0.375,
1780,-0.245,0.39,
1781,-0.245,0.385,
1782,-0.245,0.375,
1783,-0.275,0.385,
1784,-0.265,0.405,
1785,-0.245,0.415,
1786,-0.24,0.42,
1787,-0.24,0.42,
1788,-0.255,0.41,
1789,-0.25,0.415,
1790,-0.24,0.445,
1791,-0.23,0.455,
1792,-0.22,0.46,
1793,-0.21,0.45,
1794,-0.225,0.44,
1795,-0.22,0.46,
1796,-0.235,0.47,
1797,-0.195,0.5,
1798,-0.175,0.495,
1799,-0.175,0.485,
1800,-0.18,0.47,
1801,-0.18,0.485,
1802,-0.16,0.49,
1803,-0.145,0.525,
1804,-0.13,0.5,
1805,-0.125,0.48,
1806,-0.115,0.475,
1807,-0.115,0.475,
1808,-0.095,0.48,
1809,-0.08,0.485,
1810,-0.06,0.48,
1811,-0.065,0.445,
1812,-0.065,0.43,
1813,-0.06,0.405,
1814,-0.035,0.415,
1815,-0.02,0.415,
1816,0.01,0.375,
1817,0.02,0.34,
1818,0.015,0.32,
1819,0.025,0.3,
1820,0.035,0.28,
1821,0.065,0.27,
1822,0.085,0.24,
1823,0.105,0.215,
1824,0.12,0.18,
1825,0.115,0.18,
1826,0.15,0.175,
1827,0.185,0.18,
1828,0.19,0.17,
1829,0.19,0.155,
1830,0.175,0.135,
1831,0.16,0.135,
1832,0.16,0.14,
1833,0.155,0.15,
1834,0.135,0.14,
1835,0.115,0.12,
1836,0.08,0.105,
1837,0.05,0.11,
1838,0.04,0.12,
1839,0.035,0.135,
1840,0.035,0.125,
1841,0.005,0.115,
1842,-0.03,0.1,
1843,-0.045,0.11,
1844,-0.08,0.115,
1845,-0.06,0.135,
1846,-0.055,0.125,
1847,-0.07,0.1,
1848,-0.095,0.11,
1849,-0.11,0.105,
1850,-0.105,0.11,
1851,-0.095,0.125,
1852,-0.09,0.12,
1853,-0.11,0.105,
1854,-0.125,0.115,
1855,-0.145,0.11,
1856,-0.15,0.13,
1857,-0.14,0.135,
1858,-0.13,0.13,
1859,-0.135,0.11,
1860,-0.13,0.115,
1861,-0.14,0.12,
1862,-0.15,0.13,
1863,-0.14,0.135,
1864,-0.125,0.13,
1865,-0.13,0.125,
1866,-0.14,0.105,
1867,-0.155,0.115,
1868,-0.14,0.13,
1869,-0.13,0.145,
1870,-0.11,0.14,
1871,-0.125,0.125,
1872,-0.14,0.12,
1873,-0.16,0.135,
1874,-0.14,0.145,
1875,-0.135,0.15,
1876,-0.115,0.145,
1877,-0.13,0.125,
1878,-0.15,0.11,
1879,-0.155,0.15,
1880,-0.15,0.155,
1881,-0.135,0.17,
1882,-0.13,0.16,
1883,-0.14,0.15,
1884,-0.145,0.14,
1885,-0.16,0.14,
1886,-0.145,0.15,
1887,-0.135,0.165,
1888,-0.135,0.155,
1889,-0.14,0.14,
1890,-0.165,0.15,
1891,-0.165,0.14,
1892,-0.165,0.17,
1893,-0.155,0.18,
1894,-0.14,0.18,
1895,-0.14,0.155,
1896,-0.17,0.13,
1897,-0.18,0.14,
1898,-0.17,0.145,
1899,-0.16,0.17,
1900,-0.15,0.155,
1901,-0.17,0.135,
1902,-0.175,0.135,
1903,-0.175,0.135,
1904,-0.175,0.15,
1905,-0.17,0.15,
1906,-0.155,0.165,
1907,-0.17,0.155,
1908,-0.18,0.135,
1909,-0.185,0.13,
1910,-0.18,0.14,
1911,-0.18,0.15,
1912,-0.16,0.15,
1913,-0.17,0.13,
1914,-0.175,0.125,
1915,-0.2,0.13,
1916,-0.19,0.145,
1917,-0.17,0.16,
1918,-0.16,0.15,
1919,-0.175,0.14,
1920,-0.18,0.12,
1921,-0.19,0.13,
1922,-0.195,0.145,
1923,-0.18,0.145,
1924,-0.175,0.15,
1925,-0.17,0.135,
1926,-0.19,0.12,
1927,-0.205,0.13,
1928,-0.2,0.135,
1929,-0.17,0.15,
1930,-0.155,0.145,
1931,-0.18,0.135,
1932,-0.185,0.14,
1933,-0.19,0.16,
1934,-0.185,0.17,
1935,-0.17,0.185,
1936,-0.16,0.19,
1937,-0.165,0.18,
1938,-0.185,0.17,
1939,-0.175,0.17,
1940,-0.175,0.18,
1941,-0.14,0.19,
1942,-0.125,0.195,
1943,-0.13,0.195,
1944,-0.14,0.18,
1945,-0.15,0.165,
1946,-0.14,0.175,
1947,-0.12,0.165,
1948,-0.12,0.155,
1949,-0.11,0.13,
1950,-0.115,0.12,
1951,-0.11,0.105,
1952,-0.11,0.115,
1953,-0.08,0.13,
1954,-0.07,0.11,
1955,-0.085,0.095,
1956,-0.105,0.09,
1957,-0.13,0.07,
1958,-0.115,0.075,
1959,-0.11,0.085,
1960,-0.1,0.095,
1961,-0.125,0.08,
1962,-0.15,0.075,
1963,-0.155,0.07,
1964,-0.145,0.075,
1965,-0.145,0.09,
1966,-0.14,0.085,
1967,-0.15,0.075,
1968,-0.165,0.07,
1969,-0.175,0.07,
1970,-0.175,0.085,
1971,-0.175,0.095,
1972,-0.165,0.085,
1973,-0.165,0.1,
1974,-0.18,0.095,
1975,-0.19,0.1,
1976,-0.195,0.11,
1977,-0.195,0.13,
1978,-0.19,0.125,
1979,-0.215,0.12,
1980,-0.225,0.105,
1981,-0.22,0.11,
1982,-0.205,0.13,
1983,-0.19,0.14,
1984,-0.19,0.13,
1985,-0.205,0.125,
1986,-0.225,0.105,
1987,-0.25,0.125,
1988,-0.24,0.135,
1989,-0.21,0.135,
1990,-0.22,0.14,
1991,-0.225,0.125,
1992,-0.24,0.12,
1993,-0.24,0.125,
1994,-0.235,0.14,
1995,-0.22,0.155,
1996,-0.21,0.145,
1997,-0.22,0.12,
1998,-0.22,0.12,
1999,-0.24,0.12,
2000,-0.25,0.125,
2001,-0.22,0.14,
2002,-0.21,0.13,
2003,-0.22,0.115,
2004,-0.225,0.11,
2005,-0.23,0.12,
2006,-0.235,0.12,
2007,-0.22,0.145,
2008,-0.21,0.13,
2009,-0.22,0.12,
2010,-0.225,0.105,
2011,-0.25,0.095,
2012,-0.23,0.105,
2013,-0.21,0.125,
2014,-0.195,0.13,
2015,-0.21,0.09,
2016,-0.195,0.03,
2017,-0.185,-0.035,
2018,-0.165,-0.125,
2019,-0.125,-0.245,
2020,-0.1,-0.385,
2021,-0.06,-0.535,
2022,-0.005,-0.68,
2023,0.07,-0.765,
2024,0.16,-0.835,
2025,0.215,-0.83,
2026,0.25,-0.83,
2027,0.25,-0.845,
2028,0.19,-0.86,
2029,0.115,-0.86,
2030,0.07,-0.825,
2031,0.06,-0.78,
2032,0.1,-0.735,
2033,0.175,-0.72,
2034,0.3,-0.69,
2035,0.43,-0.67,
2036,0.585,-0.625,
2037,0.73,-0.585,
2038,0.83,-0.575,
2039,0.865,-0.545,
2040,0.835,-0.535,L
2041,0.715,-0.465,
2042,0.62,-0.39,
2043,0.525,-0.315,
2044,0.43,-0.26,
2045,0.315,-0.22,
2046,0.18,-0.165,
2047,0.025,-0.095,
2048,-0.13,-0.03,
2049,-0.245,0.055,
2050,-0.335,0.12,
2051,-0.42,0.17,
2052,-0.48,0.195,
2053,-0.51,0.235,
2054,-0.5,0.255,
2055,-0.45,0.28,
2056,-0.39,0.285,
2057,-0.355,0.275,
2058,-0.34,0.275,
2059,-0.34,0.295,
2060,-0.3,0.315,
2061,-0.3,0.33,
2062,-0.28,0.325,
2063,-0.295,0.32,
2064,-0.31,0.31,
2065,-0.33,0.32,
2066,-0.295,0.34,
2067,-0.305,0.365,
2068,-0.29,0.36,
2069,-0.29,0.355,
2070,-0.29,0.345,
2071,-0.305,0.345,
2072,-0.285,0.36,
2073,-0.275,0.365,
2074,-0.255,0.38,
2075,-0.265,0.365,
2076,-0.28,0.365,
2077,-0.285,0.375,
2078,-0.275,0.385,
2079,-0.27,0.405,
2080,-0.255,0.39,
2081,-0.26,0.39,
2082,-0.27,0.39,
2083,-0.275,0.41,
2084,-0.27,0.425,
2085,-0.255,0.455,
2086,-0.235,0.445,
2087,-0.245,0.44,
2088,-0.26,0.445,
2089,-0.245,0.445,
2090,-0.24,0.475,
2091,-0.215,0.49,
2092,-0.2,0.485,
2093,-0.215,0.49,
2094,-0.21,0.475,
2095,-0.215,0.49,
2096,-0.21,0.515,
2097,-0.185,0.52,
2098,-0.165,0.515,
2099,-0.17,0.505,
2100,-0.175,0.495,
2101,-0.17,0.505,
2102,-0.165,0.53,
2103,-0.14,0.53,
2104,-0.105,0.525,
2105,-0.115,0.495,
2106,-0.11,0.485,
2107,-0.11,0.485,
2108,-0.085,0.5,
2109,-0.05,0.505,
2110,-0.03,0.48,
2111,-0.035,0.455,
2112,-0.035,0.435,
2113,-0.015,0.425,
2114,-0.005,0.4,
2115,0.015,0.4,
2116,0.035,0.38,
2117,0.045,0.33,
2118,0.025,0.3,
2119,0.025,0.29,
2120,0.065,0.295,
2121,0.09,0.265,
2122,0.11,0.255,
2123,0.105,0.215,
2124,0.115,0.2,
2125,0.115,0.18,
2126,0.135,0.18,
2127,0.16,0.19,
2128,0.175,0.175,
2129,0.175,0.155,
2130,0.155,0.135,
2131,0.13,0.145,
2132,0.105,0.15,
2133,0.105,0.165,
2134,0.11,0.16,
2135,0.085,0.145,
2136,0.04,0.135,
2137,0.01,0.14,
2138,-0.015,0.155,
2139,-0.02,0.165,
2140,-0.025,0.155,
2141,-0.045,0.13,
2142,-0.08,0.11,
2143,-0.105,0.11,
2144,-0.12,0.135,
2145,-0.115,0.145,
2146,-0.12,0.135,
2147,-0.135,0.135,
2148,-0.165,0.125,
2149,-0.16,0.145,
2150,-0.17,0.125,
2151,-0.155,0.145,
2152,-0.145,0.145,
2153,-0.145,0.13,
2154,-0.18,0.12,
2155,-0.185,0.115,
2156,-0.175,0.14,
2157,-0.17,0.155,
2158,-0.155,0.155,
2159,-0.175,0.145,
2160,-0.19,0.125,
2161,-0.205,0.135,
2162,-0.18,0.145,
2163,-0.17,0.16,
2164,-0.16,0.16,
2165,-0.17,0.155,
2166,-0.195,0.14,
2167,-0.21,0.135,
2168,-0.2,0.155,
2169,-0.185,0.175,
2170,-0.175,0.165,
2171,-0.19,0.145,
2172,-0.215,0.135,
2173,-0.205,0.15,
2174,-0.205,0.17,
2175,-0.185,0.18,
2176,-0.185,0.175,
2177,-0.185,0.155,
2178,-0.21,0.155,
2179,-0.23,0.15,
2180,-0.21,0.175,
2181,-0.2,0.195,
2182,-0.19,0.175,
2183,-0.2,0.165,
2184,-0.205,0.16,
2185,-0.215,0.165,
2186,-0.22,0.18,
2187,-0.21,0.175,
2188,-0.205,0.18,
2189,-0.21,0.165,
2190,-0.21,0.15,
2191,-0.23,0.16,
2192,-0.225,0.18,
2193,-0.205,0.175,
2194,-0.2,0.185,
2195,-0.205,0.175,
2196,-0.215,0.165,
2197,-0.225,0.165,
2198,-0.215,0.165,
2199,-0.21,0.175,
2200,-0.205,0.18,
2201,-0.21,0.155,
2202,-0.23,0.15,
2203,-0.23,0.145,
2204,-0.22,0.15,
2205,-0.22,0.18,
2206,-0.2,0.175,
2207,-0.215,0.16,
2208,-0.23,0.155,
2209,-0.235,0.15,
2210,-0.23,0.15,
2211,-0.235,0.165,
2212,-0.22,0.155,
2213,-0.225,0.145,
2214,-0.24,0.13,
2215,-0.25,0.15,
2216,-0.245,0.15,
2217,-0.23,0.17,
2218,-0.225,0.16,
2219,-0.24,0.145,
2220,-0.25,0.14,
2221,-0.24,0.15,
2222,-0.24,0.17,
2223,-0.23,0.17,
2224,-0.225,0.175,
2225,-0.235,0.16,
2226,-0.265,0.15,
2227,-0.27,0.14,
2228,-0.26,0.135,
2229,-0.245,0.15,
2230,-0.24,0.16,
2231,-0.235,0.15,
2232,-0.26,0.135,
2233,-0.25,0.145,
2234,-0.26,0.175,
2235,-0.235,0.18,
2236,-0.23,0.18,
2237,-0.24,0.18,
2238,-0.245,0.18,
2239,-0.255,0.18,
2240,-0.255,0.195,
2241,-0.225,0.205,
2242,-0.21,0.21,
2243,-0.21,0.2,
2244,-0.215,0.195,
2245,-0.22,0.195,
2246,-0.21,0.205,
2247,-0.2,0.215,
2248,-0.19,0.195,
2249,-0.2,0.17,
2250,-0.205,0.135,
2251,-0.22,0.145,
2252,-0.195,0.145,
2253,-0.175,0.16,
2254,-0.17,0.145,
2255,-0.17,0.14,
2256,-0.205,0.11,
2257,-0.2,0.11,
2258,-0.185,0.11,
2259,-0.185,0.115,
2260,-0.175,0.105,
2261,-0.19,0.095,
2262,-0.205,0.085,
2263,-0.22,0.1,
2264,-0.23,0.105,
2265,-0.225,0.11,
2266,-0.205,0.105,
2267,-0.23,0.085,
2268,-0.25,0.075,
2269,-0.27,0.075,
2270,-0.255,0.08,
2271,-0.255,0.095,
2272,-0.25,0.09,
2273,-0.265,0.105,
2274,-0.275,0.095,
2275,-0.31,0.115,
2276,-0.31,0.135,
2277,-0.28,0.15,
2278,-0.29,0.155,
2279,-0.285,0.14,
2280,-0.315,0.13,
2281,-0.325,0.145,
2282,-0.325,0.155,
2283,-0.3,0.165,
2284,-0.285,0.165,
2285,-0.3,0.15,
2286,-0.32,0.14,
2287,-0.335,0.145,
2288,-0.32,0.15,
2289,-0.31,0.15,
2290,-0.31,0.15,
2291,-0.325,0.15,
2292,-0.33,0.145,
2293,-0.34,0.15,
2294,-0.34,0.16,
2295,-0.32,0.16,
2296,-0.315,0.155,
2297,-0.33,0.15,
2298,-0.34,0.135,
2299,-0.35,0.145,
2300,-0.345,0.15,
2301,-0.335,0.175,
2302,-0.325,0.165,
2303,-0.315,0.16,
2304,-0.34,0.145,
2305,-0.335,0.14,
2306,-0.34,0.15,
2307,-0.33,0.17,
2308,-0.315,0.155,
2309,-0.32,0.15,
2310,-0.32,0.135,
2311,-0.34,0.135,
2312,-0.315,0.15,
2313,-0.315,0.165,
2314,-0.315,0.14,
2315,-0.315,0.14,
2316,-0.315,0.135,
2317,-0.32,0.135,
2318,-0.31,0.145,
2319,-0.29,0.13,
2320,-0.26,0.065,
2321,-0.265,-0.03,
2322,-0.26,-0.15,
2323,-0.23,-0.29,
2324,-0.165,-0.41,
2325,-0.07,-0.54,
2326,0.01,-0.655,
2327,0.095,-0.765,
2328,0.15,-0.83,
2329,0.17,-0.85,
2330,0.185,-0.81,
2331,0.165,-0.82,
2332,0.09,-0.83,
2333,-0.02,-0.825,
2334,-0.09,-0.795,
2335,-0.1,-0.75,
2336,-0.04,-0.695,
2337,0.085,-0.655,
2338,0.255,-0.62,
2339,0.41,-0.61,
2340,0.525,-0.59,
2341,0.62,-0.57,
2342,0.7,-0.535,
2343,0.74,-0.5,
2344,0.7,-0.47,L
2345,0.59,-0.425,
2346,0.47,-0.37,
2347,0.355,-0.31,
2348,0.24,-0.225,
2349,0.13,-0.15,
2350,0.025,-0.11,
2351,-0.105,-0.05,
2352,-0.235,-0.005,
2353,-0.36,0.065,
2354,-0.45,0.15,
2355,-0.495,0.225,
2356,-0.54,0.255,
2357,-0.565,0.265,
2358,-0.56,0.27,
2359,-0.535,0.295,
2360,-0.495,0.315,
2361,-0.445,0.335,
2362,-0.42,0.34,
2363,-0.39,0.33,
2364,-0.41,0.325,
2365,-0.41,0.34,
2366,-0.415,0.345,
2367,-0.395,0.38,
2368,-0.385,0.365,
2369,-0.39,0.365,
2370,-0.415,0.345,
2371,-0.41,0.37,
2372,-0.42,0.375,
2373,-0.415,0.385,
2374,-0.39,0.39,
2375,-0.385,0.38,
2376,-0.395,0.38,
2377,-0.4,0.39,
2378,-0.38,0.41,
2379,-0.37,0.415,
2380,-0.355,0.42,
2381,-0.355,0.415,
2382,-0.365,0.405,
2383,-0.385,0.405,
2384,-0.37,0.425,
2385,-0.365,0.445,
2386,-0.345,0.435,
2387,-0.35,0.435,
2388,-0.355,0.445,
2389,-0.35,0.455,
2390,-0.345,0.465,
2391,-0.325,0.48,
2392,-0.315,0.485,
2393,-0.305,0.49,
2394,-0.315,0.48,
2395,-0.325,0.495,
2396,-0.305,0.51,
2397,-0.28,0.525,
2398,-0.275,0.52,
2399,-0.27,0.515,
2400,-0.265,0.505,
2401,-0.29,0.52,
2402,-0.26,0.535,
2403,-0.215,0.53,
2404,-0.205,0.535,
2405,-0.19,0.52,
2406,-0.2,0.515,
2407,-0.19,0.51,
2408,-0.17,0.52,
2409,-0.155,0.515,
2410,-0.13,0.51,
2411,-0.115,0.495,
2412,-0.11,0.46,
2413,-0.1,0.46,
2414,-0.09,0.45,
2415,-0.07,0.45,
2416,-0.035,0.42,
2417,-0.045,0.375,
2418,-0.035,0.355,
2419,-0.035,0.335,
2420,-0.015,0.32,
2421,0.01,0.31,
2422,0.055,0.275,
2423,0.05,0.24,
2424,0.07,0.22,
2425,0.07,0.22,
2426,0.085,0.21,
2427,0.09,0.225,
2428,0.11,0.215,
2429,0.1,0.17,
2430,0.065,0.17,
2431,0.01,0.16,
2432,0.01,0.17,
2433,-0.005,0.2,
2434,-0.02,0.185,
2435,-0.05,0.17,
2436,-0.09,0.16,
2437,-0.135,0.15,
2438,-0.155,0.165,
2439,-0.17,0.185,
2440,-0.165,0.185,
2441,-0.17,0.155,
2442,-0.195,0.155,
2443,-0.225,0.165,
2444,-0.225,0.16,
2445,-0.22,0.175,
2446,-0.235,0.16,
2447,-0.235,0.16,
2448,-0.25,0.15,
2449,-0.255,0.14,
2450,-0.25,0.165,
2451,-0.24,0.17,
2452,-0.23,0.165,
2453,-0.245,0.16,
2454,-0.265,0.15,
2455,-0.26,0.155,
2456,-0.26,0.16,
2457,-0.245,0.165,
2458,-0.235,0.175,
2459,-0.24,0.17,
2460,-0.255,0.155,
2461,-0.27,0.16,
2462,-0.265,0.175,
2463,-0.24,0.185,
2464,-0.235,0.17,
2465,-0.235,0.17,
2466,-0.26,0.16,
2467,-0.26,0.165,
2468,-0.255,0.18,
2469,-0.245,0.19,
2470,-0.235,0.185,
2471,-0.235,0.18,
2472,-0.245,0.155,
2473,-0.26,0.175,
2474,-0.25,0.19,
2475,-0.24,0.19,
2476,-0.23,0.19,
2477,-0.235,0.18,
2478,-0.26,0.175,
2479,-0.275,0.18,
2480,-0.275,0.19,
2481,-0.24,0.195,
2482,-0.24,0.185,
2483,-0.24,0.175,
2484,-0.25,0.18,
2485,-0.265,0.19,
2486,-0.25,0.195,
2487,-0.23,0.2,
2488,-0.22,0.19,
2489,-0.225,0.185,
2490,-0.24,0.17,
2491,-0.25,0.175,
2492,-0.25,0.18,
2493,-0.24,0.195,
2494,-0.22,0.18,
2495,-0.235,0.185,
2496,-0.245,0.16,
2497,-0.255,0.175,
2498,-0.25,0.175,
2499,-0.24,0.19,
2500,-0.23,0.185,
2501,-0.23,0.17,
2502,-0.25,0.16,
2503,-0.255,0.16,
2504,-0.255,0.19,
2505,-0.23,0.185,
2506,-0.22,0.175,
2507,-0.22,0.175,
2508,-0.235,0.165,
2509,-0.235,0.16,
2510,-0.25,0.175,
2511,-0.23,0.185,
2512,-0.21,0.185,
2513,-0.24,0.17,
2514,-0.24,0.15,
2515,-0.245,0.16,
2516,-0.25,0.155,
2517,-0.23,0.175,
2518,-0.22,0.175,
2519,-0.225,0.155,
2520,-0.235,0.145,
2521,-0.25,0.16,
2522,-0.24,0.17,
2523,-0.225,0.19,
2524,-0.22,0.19,
2525,-0.225,0.18,
2526,-0.24,0.18,
2527,-0.25,0.19,
2528,-0.24,0.205,
2529,-0.235,0.235,
2530,-0.205,0.215,
2531,-0.205,0.215,
2532,-0.205,0.205,
2533,-0.21,0.195,
2534,-0.195,0.22,
2535,-0.19,0.22,
2536,-0.18,0.21,
2537,-0.18,0.195,
2538,-0.185,0.19,
2539,-0.195,0.175,
2540,-0.185,0.18,
2541,-0.155,0.165,
2542,-0.13,0.17,
2543,-0.14,0.155,
2544,-0.14,0.14,
2545,-0.135,0.14,
2546,-0.14,0.135,
2547,-0.12,0.135,
2548,-0.12,0.125,
2549,-0.13,0.115,
2550,-0.15,0.09,
2551,-0.165,0.095,
2552,-0.15,0.105,
2553,-0.16,0.115,
2554,-0.16,0.1,
2555,-0.16,0.095,
2556,-0.175,0.07,
2557,-0.19,0.08,
2558,-0.175,0.085,
2559,-0.175,0.095,
2560,-0.17,0.095,
2561,-0.175,0.075,
2562,-0.19,0.08,
2563,-0.21,0.075,
2564,-0.22,0.09,
2565,-0.215,0.105,
2566,-0.185,0.11,
2567,-0.195,0.11,
2568,-0.205,0.105,
2569,-0.23,0.115,
2570,-0.225,0.135,
2571,-0.225,0.14,
2572,-0.21,0.14,
2573,-0.225,0.125,
2574,-0.245,0.12,
2575,-0.24,0.125,
2576,-0.235,0.13,
2577,-0.215,0.15,
2578,-0.205,0.135,
2579,-0.21,0.135,
2580,-0.225,0.125,
2581,-0.25,0.115,
2582,-0.24,0.13,
2583,-0.23,0.145,
2584,-0.23,0.14,
2585,-0.235,0.14,
2586,-0.24,0.115,
2587,-0.26,0.125,
2588,-0.245,0.14,
2589,-0.24,0.155,
2590,-0.22,0.15,
2591,-0.225,0.145,
2592,-0.235,0.125,
2593,-0.255,0.125,
2594,-0.245,0.14,
2595,-0.24,0.15,
2596,-0.22,0.135,
2597,-0.22,0.125,
2598,-0.24,0.13,
2599,-0.245,0.13,
2600,-0.245,0.14,
2601,-0.235,0.155,
2602,-0.21,0.14,
2603,-0.225,0.14,
2604,-0.24,0.125,
2605,-0.24,0.115,
2606,-0.245,0.125,
2607,-0.23,0.145,
2608,-0.2,0.13,
2609,-0.215,0.12,
2610,-0.225,0.105,
2611,-0.24,0.105,
2612,-0.215,0.125,
2613,-0.19,0.12,
2614,-0.175,0.09,
2615,-0.155,-0.005,
2616,-0.15,-0.085,
2617,-0.135,-0.185,
2618,-0.1,-0.285,
2619,-0.045,-0.39,
2620,0.015,-0.53,
2621,0.08,-0.635,
2622,0.125,-0.74,
2623,0.175,-0.785,
2624,0.24,-0.785,
2625,0.27,-0.775,
2626,0.28,-0.78,
2627,0.225,-0.79,
2628,0.155,-0.805,
2629,0.07,-0.79,
2630,0.025,-0.745,
2631,0.05,-0.71,
2632,0.105,-0.675,
2633,0.185,-0.655,
2634,0.275,-0.64,
2635,0.39,-0.615,
2636,0.54,-0.595,
2637,0.66,-0.555,
2638,0.745,-0.535,
2639,0.79,-0.52,
2640,0.76,-0.505,
2641,0.69,-0.465,L
2642,0.6,-0.415,
2643,0.535,-0.34,
2644,0.455,-0.295,
2645,0.37,-0.235,
2646,0.275,-0.2,
2647,0.175,-0.145,
2648,0.07,-0.085,
2649,-0.035,-0.02,
2650,-0.13,0.025,
2651,-0.24,0.085,
2652,-0.325,0.125,
2653,-0.41,0.18,
2654,-0.435,0.225,
2655,-0.435,0.265,
2656,-0.43,0.275,
2657,-0.41,0.265,
2658,-0.4,0.265,
2659,-0.385,0.285,
2660,-0.35,0.305,
2661,-0.295,0.31,
2662,-0.26,0.32,
2663,-0.265,0.32,
2664,-0.275,0.305,
2665,-0.275,0.325,
2666,-0.275,0.34,
2667,-0.275,0.345,
2668,-0.265,0.35,
2669,-0.27,0.345,
2670,-0.265,0.34,
2671,-0.28,0.33,
2672,-0.27,0.36,
2673,-0.265,0.365,
2674,-0.245,0.365,
2675,-0.245,0.36,
2676,-0.27,0.35,
2677,-0.27,0.36,
2678,-0.265,0.375,
2679,-0.26,0.385,
2680,-0.24,0.39,
2681,-0.25,0.39,
2682,-0.245,0.37,
2683,-0.25,0.385,
2684,-0.245,0.395,
2685,-0.24,0.405,
2686,-0.215,0.405,
2687,-0.23,0.405,
2688,-0.245,0.4,
2689,-0.25,0.4,
2690,-0.235,0.43,
2691,-0.21,0.435,
2692,-0.195,0.445,
2693,-0.195,0.44,
2694,-0.22,0.425,
2695,-0.21,0.455,
2696,-0.21,0.475,
2697,-0.185,0.48,
2698,-0.17,0.475,
2699,-0.18,0.475,
2700,-0.17,0.475,
2701,-0.17,0.485,
2702,-0.17,0.5,
2703,-0.16,0.515,
2704,-0.14,0.515,
2705,-0.13,0.5,
2706,-0.13,0.495,
2707,-0.125,0.51,
2708,-0.12,0.515,
2709,-0.105,0.53,
2710,-0.08,0.525,
2711,-0.08,0.52,
2712,-0.075,0.51,
2713,-0.075,0.51,
2714,-0.055,0.515,
2715,-0.03,0.525,
2716,-0.01,0.505,
2717,-0.015,0.485,
2718,-0.015,0.465,
2719,-0.005,0.45,
2720,0.01,0.45,
2721,0.02,0.455,
2722,0.045,0.43,
2723,0.055,0.395,
2724,0.045,0.36,
2725,0.05,0.35,
2726,0.065,0.35,
2727,0.085,0.325,
2728,0.11,0.295,
2729,0.125,0.27,
2730,0.125,0.24,
2731,0.13,0.23,
2732,0.145,0.205,
2733,0.17,0.21,
2734,0.18,0.2,
2735,0.21,0.19,
2736,0.205,0.175,
2737,0.2,0.15,
2738,0.19,0.165,
2739,0.2,0.17,
2740,0.21,0.155,
2741,0.175,0.14,
2742,0.14,0.13,
2743,0.115,0.13,
2744,0.095,0.15,
2745,0.09,0.16,
2746,0.085,0.145,
2747,0.055,0.13,
2748,0.015,0.125,
2749,-0.01,0.125,
2750,-0.025,0.125,
2751,-0.02,0.14,
2752,-0.025,0.125,
2753,-0.05,0.125,
2754,-0.08,0.12,
2755,-0.09,0.115,
2756,-0.1,0.135,
2757,-0.09,0.15,
2758,-0.085,0.135,
2759,-0.095,0.125,
2760,-0.115,0.115,
2761,-0.14,0.12,
2762,-0.13,0.14,
2763,-0.125,0.15,
2764,-0.1,0.15,
2765,-0.115,0.14,
2766,-0.13,0.12,
2767,-0.14,0.13,
2768,-0.145,0.135,
2769,-0.145,0.145,
2770,-0.115,0.135,
2771,-0.115,0.13,
2772,-0.13,0.125,
2773,-0.155,0.125,
2774,-0.145,0.145,
2775,-0.14,0.16,
2776,-0.125,0.16,
2777,-0.125,0.14,
2778,-0.14,0.14,
2779,-0.145,0.13,
2780,-0.14,0.155,
2781,-0.14,0.155,
2782,-0.12,0.15,
2783,-0.12,0.145,
2784,-0.14,0.145,
2785,-0.135,0.155,
2786,-0.13,0.16,
2787,-0.115,0.175,
2788,-0.105,0.155,
2789,-0.125,0.155,
2790,-0.13,0.14,
2791,-0.14,0.15,
2792,-0.135,0.165,
2793,-0.125,0.17,
2794,-0.105,0.17,
2795,-0.115,0.155,
2796,-0.135,0.16,
2797,-0.135,0.15,
2798,-0.15,0.17,
2799,-0.125,0.17,
2800,-0.11,0.165,
2801,-0.12,0.17,
2802,-0.135,0.14,
2803,-0.155,0.15,
2804,-0.155,0.16,
2805,-0.13,0.17,
2806,-0.12,0.17,
2807,-0.125,0.16,
2808,-0.15,0.14,
2809,-0.16,0.155,
2810,-0.155,0.165,
2811,-0.14,0.175,
2812,-0.13,0.17,
2813,-0.14,0.155,
2814,-0.145,0.15,
2815,-0.17,0.145,
2816,-0.165,0.155,
2817,-0.15,0.17,
2818,-0.125,0.17,
2819,-0.135,0.165,
2820,-0.15,0.14,
2821,-0.16,0.145,
2822,-0.155,0.155,
2823,-0.14,0.17,
2824,-0.125,0.16,
2825,-0.15,0.145,
2826,-0.165,0.14,
2827,-0.18,0.14,
2828,-0.17,0.155,
2829,-0.155,0.15,
2830,-0.15,0.155,
2831,-0.15,0.14,
2832,-0.165,0.135,
2833,-0.18,0.14,
2834,-0.16,0.14,
2835,-0.155,0.17,
2836,-0.15,0.15,
2837,-0.16,0.145,
2838,-0.165,0.13,
2839,-0.17,0.135,
2840,-0.175,0.155,
2841,-0.17,0.165,
2842,-0.155,0.17,
2843,-0.145,0.165,
2844,-0.17,0.155,
2845,-0.19,0.175,
2846,-0.185,0.19,
2847,-0.16,0.2,
2848,-0.155,0.18,
2849,-0.16,0.185,
2850,-0.16,0.17,
2851,-0.155,0.175,
2852,-0.14,0.19,
2853,-0.125,0.195,
2854,-0.105,0.195,
2855,-0.11,0.2,
2856,-0.135,0.18,
2857,-0.15,0.185,
2858,-0.14,0.2,
2859,-0.115,0.185,
2860,-0.1,0.17,
2861,-0.09,0.15,
2862,-0.1,0.135,
2863,-0.1,0.125,
2864,-0.09,0.125,
2865,-0.075,0.15,
2866,-0.065,0.13,
2867,-0.06,0.115,
2868,-0.09,0.105,
2869,-0.11,0.11,
2870,-0.105,0.115,
2871,-0.095,0.125,
2872,-0.085,0.105,
2873,-0.1,0.09,
2874,-0.115,0.08,
2875,-0.115,0.09,
2876,-0.135,0.095,
2877,-0.13,0.105,
2878,-0.115,0.1,
2879,-0.14,0.09,
2880,-0.16,0.07,
2881,-0.16,0.08,
2882,-0.17,0.105,
2883,-0.145,0.115,
2884,-0.14,0.105,
2885,-0.145,0.105,
2886,-0.165,0.1,
2887,-0.19,0.115,
2888,-0.185,0.14,
2889,-0.16,0.15,
2890,-0.155,0.155,
2891,-0.17,0.135,
2892,-0.215,0.14,
2893,-0.22,0.14,
2894,-0.205,0.155,
2895,-0.205,0.16,
2896,-0.18,0.16,
2897,-0.185,0.15,
2898,-0.2,0.135,
2899,-0.21,0.14,
2900,-0.215,0.16,
2901,-0.2,0.17,
2902,-0.205,0.16,
2903,-0.22,0.15,
2904,-0.22,0.15,
2905,-0.225,0.155,
2906,-0.225,0.16,
2907,-0.205,0.17,
2908,-0.2,0.16,
2909,-0.2,0.145,
2910,-0.225,0.14,
2911,-0.235,0.15,
2912,-0.23,0.155,
2913,-0.21,0.155,
2914,-0.205,0.17,
2915,-0.21,0.165,
2916,-0.235,0.145,
2917,-0.22,0.15,
2918,-0.225,0.155,
2919,-0.205,0.17,
2920,-0.195,0.17,
2921,-0.205,0.15,
2922,-0.215,0.145,
2923,-0.22,0.145,
2924,-0.22,0.165,
2925,-0.205,0.165,
2926,-0.19,0.17,
2927,-0.21,0.16,
2928,-0.215,0.14,
2929,-0.22,0.15,
2930,-0.21,0.15,
2931,-0.2,0.16,
2932,-0.195,0.165,
2933,-0.2,0.145,
2934,-0.195,0.12,
2935,-0.18,0.07,
2936,-0.155,0.01,
2937,-0.115,-0.065,
2938,-0.09,-0.2,
2939,-0.065,-0.33,
2940,-0.03,-0.475,
2941,0.01,-0.575,
2942,0.09,-0.68,
2943,0.17,-0.74,
2944,0.22,-0.78,
2945,0.265,-0.805,
2946,0.275,-0.805,
2947,0.235,-0.8,
2948,0.195,-0.8,
2949,0.135,-0.795,
2950,0.08,-0.775,
2951,0.065,-0.76,
2952,0.08,-0.72,
2953,0.135,-0.68,
2954,0.245,-0.635,
2955,0.385,-0.6,
2956,0.52,-0.585,
2957,0.645,-0.58,
2958,0.74,-0.565,
2959,0.815,-0.545,
2960,0.85,-0.505,
2961,0.835,-0.46,L
2962,0.77,-0.425,
2963,0.645,-0.39,
2964,0.56,-0.345,
2965,0.48,-0.28,
2966,0.385,-0.225,
2967,0.31,-0.16,
2968,0.235,-0.13,
2969,0.12,-0.08,
2970,-0.015,-0.04,
2971,-0.13,0.025,
2972,-0.25,0.11,
2973,-0.33,0.165,
2974,-0.39,0.22,
2975,-0.43,0.245,
2976,-0.47,0.265,
2977,-0.485,0.285,
2978,-0.465,0.31,
2979,-0.405,0.33,
2980,-0.37,0.33,
2981,-0.345,0.32,
2982,-0.305,0.325,
2983,-0.3,0.325,
2984,-0.295,0.355,
2985,-0.285,0.375,
2986,-0.28,0.375,
2987,-0.275,0.36,
2988,-0.285,0.36,
2989,-0.29,0.355,
2990,-0.285,0.38,
2991,-0.27,0.39,
2992,-0.26,0.4,
2993,-0.26,0.38,
2994,-0.26,0.375,
2995,-0.285,0.385,
2996,-0.28,0.395,
2997,-0.265,0.415,
2998,-0.25,0.41,
2999,-0.25,0.4,
3000,-0.26,0.4,
3001,-0.265,0.41,
3002,-0.26,0.415,
3003,-0.245,0.43,
3004,-0.24,0.435,
3005,-0.23,0.425,
3006,-0.25,0.41,
3007,-0.25,0.43,
3008,-0.245,0.435,
3009,-0.235,0.45,
3010,-0.225,0.47,
3011,-0.23,0.455,
3012,-0.245,0.445,
3013,-0.235,0.465,
3014,-0.225,0.47,
3015,-0.21,0.49,
3016,-0.195,0.485,
3017,-0.2,0.49,
3018,-0.205,0.47,
3019,-0.205,0.485,
3020,-0.215,0.505,
3021,-0.195,0.53,
3022,-0.16,0.525,
3023,-0.16,0.515,
3024,-0.175,0.515,
3025,-0.175,0.515,
3026,-0.175,0.535,
3027,-0.15,0.545,
3028,-0.135,0.545,
3029,-0.145,0.535,
3030,-0.135,0.525,
3031,-0.135,0.53,
3032,-0.11,0.54,
3033,-0.095,0.545,
3034,-0.095,0.545,
3035,-0.085,0.535,
3036,-0.095,0.525,
3037,-0.09,0.53,
3038,-0.07,0.52,
3039,-0.03,0.53,
3040,-0.005,0.52,
3041,-0.01,0.495,
3042,-0.005,0.475,
3043,-0.005,0.46,
3044,0.0,0.455,
3045,0.035,0.44,
3046,0.055,0.425,
3047,0.055,0.385,
3048,0.055,0.36,
3049,0.05,0.345,
3050,0.07,0.33,
3051,0.105,0.325,
3052,0.105,0.3,
3053,0.12,0.275,
3054,0.13,0.24,
3055,0.125,0.235,
3056,0.145,0.23,
3057,0.165,0.23,
3058,0.185,0.215,
3059,0.185,0.195,
3060,0.175,0.185,
3061,0.16,0.175,
3062,0.145,0.175,
3063,0.15,0.19,
3064,0.135,0.195,
3065,0.11,0.17,
3066,0.08,0.165,
3067,0.035,0.175,
3068,0.025,0.165,
3069,0.01,0.175,
3070,0.015,0.165,
3071,-0.01,0.165,
3072,-0.04,0.155,
3073,-0.065,0.165,
3074,-0.095,0.16,
3075,-0.095,0.17,
3076,-0.08,0.185,
3077,-0.105,0.165,
3078,-0.115,0.155,
3079,-0.135,0.155,
3080,-0.15,0.17,
3081,-0.14,0.17,
3082,-0.14,0.165,
3083,-0.145,0.165,
3084,-0.155,0.14,
3085,-0.17,0.15,
3086,-0.17,0.155,
3087,-0.15,0.18,
3088,-0.155,0.175,
3089,-0.17,0.175,
3090,-0.185,0.16,
3091,-0.185,0.16,
3092,-0.185,0.165,
3093,-0.17,0.195,
3094,-0.16,0.18,
3095,-0.165,0.175,
3096,-0.175,0.15,
3097,-0.185,0.17,
3098,-0.185,0.175,
3099,-0.175,0.18,
3100,-0.165,0.19,
3101,-0.175,0.175,
3102,-0.195,0.17,
3103,-0.195,0.17,
3104,-0.21,0.185,
3105,-0.185,0.19,
3106,-0.18,0.19,
3107,-0.19,0.195,
3108,-0.19,0.185,
3109,-0.195,0.175,
3110,-0.205,0.195,
3111,-0.185,0.215,
3112,-0.175,0.195,
3113,-0.18,0.19,
3114,-0.19,0.19,
3115,-0.215,0.18,
3116,-0.2,0.195,
3117,-0.19,0.205,
3118,-0.18,0.215,
3119,-0.185,0.2,
3120,-0.185,0.2,
3121,-0.2,0.195,
3122,-0.2,0.215,
3123,-0.18,0.215,
3124,-0.175,0.21,
3125,-0.185,0.2,
3126,-0.19,0.18,
3127,-0.21,0.18,
3128,-0.2,0.2,
3129,-0.19,0.21,
3130,-0.175,0.215,
3131,-0.19,0.185,
3132,-0.195,0.175,
3133,-0.21,0.185,
3134,-0.2,0.19,
3135,-0.19,0.19,
3136,-0.18,0.19,
3137,-0.19,0.185,
3138,-0.22,0.165,
3139,-0.235,0.175,
3140,-0.21,0.19,
3141,-0.205,0.19,
3142,-0.195,0.2,
3143,-0.205,0.185,
3144,-0.205,0.17,
3145,-0.22,0.175,
3146,-0.21,0.185,
3147,-0.2,0.195,
3148,-0.195,0.195,
3149,-0.2,0.185,
3150,-0.205,0.165,
3151,-0.22,0.17,
3152,-0.215,0.185,
3153,-0.2,0.195,
3154,-0.195,0.18,
3155,-0.205,0.18,
3156,-0.21,0.17,
3157,-0.215,0.175,
3158,-0.23,0.18,
3159,-0.2,0.19,
3160,-0.205,0.2,
3161,-0.21,0.175,
3162,-0.22,0.165,
3163,-0.24,0.17,
3164,-0.22,0.19,
3165,-0.215,0.2,
3166,-0.195,0.205,
3167,-0.2,0.205,
3168,-0.22,0.2,
3169,-0.21,0.215,
3170,-0.215,0.225,
3171,-0.205,0.235,
3172,-0.19,0.23,
3173,-0.195,0.23,
3174,-0.19,0.215,
3175,-0.2,0.22,
3176,-0.18,0.23,
3177,-0.17,0.24,
3178,-0.145,0.23,
3179,-0.155,0.22,
3180,-0.155,0.195,
3181,-0.16,0.185,
3182,-0.155,0.195,
3183,-0.125,0.185,
3184,-0.12,0.18,
3185,-0.115,0.165,
3186,-0.13,0.14,
3187,-0.14,0.14,
3188,-0.13,0.155,
3189,-0.125,0.145,
3190,-0.12,0.145,
3191,-0.115,0.13,
3192,-0.15,0.12,
3193,-0.17,0.12,
3194,-0.16,0.125,
3195,-0.15,0.14,
3196,-0.15,0.13,
3197,-0.16,0.115,
3198,-0.18,0.1,
3199,-0.195,0.1,
3200,-0.2,0.12,
3201,-0.19,0.14,
3202,-0.19,0.145,
3203,-0.19,0.135,
3204,-0.2,0.12,
3205,-0.22,0.12,
3206,-0.22,0.145,
3207,-0.21,0.165,
3208,-0.195,0.18,
3209,-0.2,0.17,
3210,-0.225,0.165,
3211,-0.245,0.155,
3212,-0.25,0.165,
3213,-0.235,0.175,
3214,-0.23,0.17,
3215,-0.225,0.17,
3216,-0.245,0.16,
3217,-0.26,0.16,
3218,-0.25,0.18,
3219,-0.25,0.18,
3220,-0.24,0.18,
3221,-0.25,0.175,
3222,-0.27,0.16,
3223,-0.275,0.165,
3224,-0.285,0.185,
3225,-0.27,0.19,
3226,-0.25,0.19,
3227,-0.255,0.19,
3228,-0.27,0.17,
3229,-0.28,0.18,
3230,-0.295,0.175,
3231,-0.27,0.195,
3232,-0.265,0.195,
3233,-0.27,0.175,
3234,-0.285,0.165,
3235,-0.29,0.17,
3236,-0.28,0.19,
3237,-0.27,0.185,
3238,-0.255,0.185,
3239,-0.26,0.185,
3240,-0.28,0.17,
3241,-0.29,0.16,
3242,-0.295,0.175,
3243,-0.28,0.175,
3244,-0.265,0.175,
3245,-0.26,0.175,
3246,-0.275,0.155,
3247,-0.285,0.15,
3248,-0.285,0.165,
3249,-0.27,0.175,
3250,-0.245,0.18,
3251,-0.245,0.16,
3252,-0.25,0.12,
3253,-0.24,0.055,
3254,-0.22,-0.01,
3255,-0.19,-0.09,
3256,-0.145,-0.21,
3257,-0.115,-0.345,
3258,-0.085,-0.465,
3259,-0.03,-0.565,
3260,0.03,-0.65,
3261,0.1,-0.705,
3262,0.155,-0.745,
3263,0.19,-0.775,
3264,0.19,-0.78,
3265,0.145,-0.79,
3266,0.085,-0.785,
3267,0.03,-0.765,
3268,-0.025,-0.74,
3269,-0.04,-0.72,
3270,-0.035,-0.7,
3271,0.04,-0.665,
3272,0.17,-0.625,
3273,0.335,-0.58,
3274,0.47,-0.555,
3275,0.595,-0.555,
3276,0.665,-0.535,
3277,0.705,-0.5,
3278,0.69,-0.465,L
3279,0.625,-0.4,
3280,0.535,-0.36,
3281,0.42,-0.32,
3282,0.29,-0.27,
3283,0.18,-0.225,
3284,0.085,-0.15,
3285,-0.035,-0.095,
3286,-0.14,-0.035,
3287,-0.255,0.02,
3288,-0.365,0.08,
3289,-0.455,0.135,
3290,-0.51,0.2,
3291,-0.545,0.25,
3292,-0.565,0.29,
3293,-0.575,0.295,
3294,-0.58,0.3,
3295,-0.555,0.305,
3296,-0.505,0.34,
3297,-0.45,0.35,
3298,-0.41,0.35,
3299,-0.385,0.345,
3300,-0.385,0.35,
3301,-0.38,0.345,
3302,-0.385,0.37,
3303,-0.37,0.39,
3304,-0.36,0.4,
3305,-0.36,0.39,
3306,-0.365,0.38,
3307,-0.375,0.385,
3308,-0.38,0.41,
3309,-0.355,0.42,
3310,-0.345,0.41,
3311,-0.365,0.405,
3312,-0.365,0.405,
3313,-0.375,0.415,
3314,-0.375,0.425,
3315,-0.34,0.445,
3316,-0.335,0.43,
3317,-0.345,0.44,
3318,-0.36,0.425,
3319,-0.375,0.435,
3320,-0.36,0.445,
3321,-0.34,0.45,
3322,-0.32,0.45,
3323,-0.33,0.45,
3324,-0.34,0.455,
3325,-0.35,0.455,
3326,-0.345,0.465,
3327,-0.33,0.48,
3328,-0.32,0.48,
3329,-0.315,0.485,
3330,-0.32,0.48,
3331,-0.33,0.48,
3332,-0.32,0.495,
3333,-0.295,0.51,
3334,-0.28,0.51,
3335,-0.29,0.51,
3336,-0.29,0.495,
3337,-0.29,0.515,
3338,-0.3,0.535,
3339,-0.28,0.55,
3340,-0.265,0.545,
3341,-0.26,0.535,
3342,-0.255,0.54,
3343,-0.255,0.545,
3344,-0.255,0.56,
3345,-0.235,0.585,
3346,-0.21,0.57,
3347,-0.2,0.56,
3348,-0.2,0.55,
3349,-0.205,0.57,
3350,-0.185,0.565,
3351,-0.165,0.57,
3352,-0.15,0.57,
3353,-0.14,0.565,
3354,-0.155,0.55,
3355,-0.135,0.54,
3356,-0.115,0.54,
3357,-0.09,0.545,
3358,-0.06,0.54,
3359,-0.065,0.515,
3360,-0.065,0.485,
3361,-0.08,0.48,
3362,-0.075,0.465,
3363,-0.045,0.455,
3364,-0.005,0.44,
3365,-0.005,0.41,
3366,0.0,0.38,
3367,0.0,0.355,
3368,0.015,0.33,
3369,0.035,0.32,
3370,0.055,0.31,
3371,0.075,0.275,
3372,0.065,0.27,
3373,0.065,0.255,
3374,0.06,0.25,
3375,0.08,0.245,
3376,0.09,0.235,
3377,0.07,0.225,
3378,0.055,0.22,
3379,0.03,0.215,
3380,0.01,0.215,
3381,0.01,0.21,
3382,-0.025,0.22,
3383,-0.025,0.205,
3384,-0.075,0.205,
3385,-0.105,0.195,
3386,-0.12,0.21,
3387,-0.135,0.205,
3388,-0.14,0.21,
3389,-0.165,0.19,
3390,-0.2,0.185,
3391,-0.235,0.19,
3392,-0.23,0.215,
3393,-0.225,0.22,
3394,-0.225,0.215,
3395,-0.25,0.195,
3396,-0.27,0.185,
3397,-0.295,0.18,
3398,-0.295,0.195,
3399,-0.29,0.22,
3400,-0.27,0.22,
3401,-0.275,0.2,
3402,-0.295,0.18,
3403,-0.3,0.195,
3404,-0.305,0.195,
3405,-0.31,0.195,
3406,-0.295,0.215,
3407,-0.305,0.205,
3408,-0.315,0.2,
3409,-0.335,0.185,
3410,-0.32,0.205,
3411,-0.315,0.215,
3412,-0.295,0.205,
3413,-0.295,0.205,
3414,-0.325,0.195,
3415,-0.33,0.215,
3416,-0.325,0.215,
3417,-0.3,0.225,
3418,-0.29,0.225,
3419,-0.3,0.225,
3420,-0.325,0.215,
3421,-0.33,0.225,
3422,-0.32,0.23,
3423,-0.3,0.24,
3424,-0.3,0.24,
3425,-0.3,0.235,
3426,-0.32,0.21,
3427,-0.33,0.21,
3428,-0.33,0.23,
3429,-0.32,0.23,
3430,-0.305,0.24,
3431,-0.31,0.23,
3432,-0.32,0.225,
3433,-0.32,0.23,
3434,-0.33,0.23,
3435,-0.325,0.255,
3436,-0.32,0.245,
3437,-0.315,0.24,
3438,-0.33,0.24,
3439,-0.325,0.235,
3440,-0.335,0.245,
3441,-0.315,0.27,
3442,-0.29,0.25,
3443,-0.305,0.245,
3444,-0.31,0.225,
3445,-0.325,0.21,
3446,-0.32,0.235,
3447,-0.31,0.235,
3448,-0.305,0.235,
3449,-0.29,0.23,
3450,-0.305,0.215,
3451,-0.315,0.22,
3452,-0.32,0.235,
3453,-0.31,0.25,
3454,-0.3,0.24,
3455,-0.305,0.23,
3456,-0.32,0.21,
3457,-0.34,0.215,
3458,-0.33,0.23,
3459,-0.32,0.255,
3460,-0.315,0.255,
3461,-0.33,0.23,
3462,-0.33,0.215,
3463,-0.335,0.2,
3464,-0.345,0.21,
3465,-0.315,0.23,
3466,-0.31,0.235,
3467,-0.315,0.22,
3468,-0.33,0.205,
3469,-0.335,0.215,
3470,-0.33,0.235,
3471,-0.33,0.24,
3472,-0.31,0.24,
3473,-0.315,0.22,
3474,-0.335,0.215,
3475,-0.335,0.215,
3476,-0.335,0.23,
3477,-0.325,0.24,
3478,-0.325,0.24,
3479,-0.32,0.245,
3480,-0.325,0.245,
3481,-0.35,0.255,
3482,-0.325,0.27,
3483,-0.305,0.29,
3484,-0.29,0.28,
3485,-0.29,0.265,
3486,-0.3,0.25,
3487,-0.305,0.255,
3488,-0.295,0.27,
3489,-0.28,0.28,
3490,-0.255,0.27,
3491,-0.27,0.275,
3492,-0.28,0.235,
3493,-0.275,0.225,
3494,-0.26,0.225,
3495,-0.245,0.23,
3496,-0.24,0.23,
3497,-0.25,0.22,
3498,-0.24,0.185,
3499,-0.23,0.18,
3500,-0.235,0.175,
3501,-0.23,0.195,
3502,-0.22,0.18,
3503,-0.225,0.15,
3504,-0.24,0.145,
3505,-0.255,0.145,
3506,-0.275,0.16,
3507,-0.255,0.17,
3508,-0.25,0.18,
3509,-0.26,0.155,
3510,-0.28,0.145,
3511,-0.31,0.145,
3512,-0.295,0.165,
3513,-0.285,0.175,
3514,-0.29,0.155,
3515,-0.29,0.155,
3516,-0.305,0.145,
3517,-0.325,0.15,
3518,-0.335,0.175,
3519,-0.315,0.19,
3520,-0.3,0.205,
3521,-0.345,0.185,
3522,-0.335,0.18,
3523,-0.35,0.195,
3524,-0.355,0.195,
3525,-0.335,0.21,
3526,-0.315,0.215,
3527,-0.315,0.195,
3528,-0.33,0.19,
3529,-0.335,0.185,
3530,-0.345,0.205,
3531,-0.325,0.22,
3532,-0.33,0.215,
3533,-0.335,0.2,
3534,-0.34,0.19,
3535,-0.345,0.18,
3536,-0.335,0.2,
3537,-0.34,0.21,
3538,-0.32,0.21,
3539,-0.33,0.2,
3540,-0.335,0.195,
3541,-0.345,0.195,
3542,-0.35,0.205,
3543,-0.32,0.215,
3544,-0.31,0.205,
3545,-0.315,0.205,
3546,-0.33,0.18,
3547,-0.335,0.18,
3548,-0.33,0.185,
3549,-0.315,0.2,
3550,-0.305,0.195,
3551,-0.305,0.19,
3552,-0.295,0.17,
3553,-0.31,0.155,
3554,-0.29,0.12,
3555,-0.265,0.065,
3556,-0.225,-0.03,
3557,-0.195,-0.145,
3558,-0.17,-0.31,
3559,-0.11,-0.425,
3560,-0.03,-0.54,
3561,0.045,-0.625,
3562,0.125,-0.67,
3563,0.16,-0.72,
3564,0.185,-0.71,
3565,0.155,-0.71,
3566,0.105,-0.705,
3567,0.03,-0.7,
3568,-0.035,-0.69,
3569,-0.1,-0.655,
3570,-0.085,-0.64,
3571,-0.02,-0.605,
3572,0.085,-0.56,
3573,0.21,-0.52,
3574,0.35,-0.5,
3575,0.445,-0.49,
3576,0.52,-0.48,
3577,0.57,-0.45,
3578,0.615,-0.42,
3579,0.58,-0.355,L
3580,0.535,-0.305,
3581,0.425,-0.265,
3582,0.32,-0.23,
3583,0.24,-0.175,
3584,0.125,-0.115,
3585,0.05,-0.06,
3586,-0.005,0.0,
3587,-0.12,0.05,
3588,-0.23,0.08,
3589,-0.325,0.155,
3590,-0.405,0.22,
3591,-0.47,0.27,
3592,-0.485,0.305,
3593,-0.52,0.315,
3594,-0.525,0.32,
3595,-0.505,0.33,
3596,-0.465,0.35,
3597,-0.42,0.37,
3598,-0.39,0.39,
3599,-0.365,0.375,
3600,-0.36,0.37,
3601,-0.36,0.38,
3602,-0.36,0.4,
3603,-0.335,0.405,
3604,-0.33,0.405,
3605,-0.345,0.41,
3606,-0.36,0.405,
3607,-0.34,0.4,
3608,-0.345,0.415,
3609,-0.33,0.435,
3610,-0.315,0.435,
3611,-0.32,0.42,
3612,-0.32,0.42,
3613,-0.335,0.425,
3614,-0.315,0.435,
3615,-0.305,0.445,
3616,-0.295,0.445,
3617,-0.32,0.435,
3618,-0.315,0.425,
3619,-0.33,0.435,
3620,-0.325,0.455,
3621,-0.31,0.46,
3622,-0.295,0.46,
3623,-0.29,0.465,
3624,-0.3,0.46,
3625,-0.305,0.45,
3626,-0.3,0.48,
3627,-0.29,0.495,
3628,-0.265,0.51,
3629,-0.27,0.495,
3630,-0.285,0.49,
3631,-0.275,0.49,
3632,-0.265,0.505,
3633,-0.255,0.52,
3634,-0.24,0.525,
3635,-0.23,0.53,
3636,-0.235,0.52,
3637,-0.25,0.52,
3638,-0.235,0.54,
3639,-0.215,0.565,
3640,-0.18,0.565,
3641,-0.195,0.555,
3642,-0.195,0.545,
3643,-0.195,0.56,
3644,-0.175,0.565,
3645,-0.165,0.59,
3646,-0.13,0.59,
3647,-0.125,0.565,
3648,-0.135,0.555,
3649,-0.125,0.56,
3650,-0.12,0.56,
3651,-0.105,0.585,
3652,-0.085,0.57,
3653,-0.07,0.57,
3654,-0.06,0.545,
3655,-0.06,0.54,
3656,-0.04,0.535,
3657,-0.015,0.525,
3658,0.005,0.51,
3659,0.015,0.485,
3660,0.015,0.455,
3661,0.02,0.445,
3662,0.02,0.43,
3663,0.045,0.415,
3664,0.075,0.405,
3665,0.085,0.36,
3666,0.09,0.335,
3667,0.085,0.32,
3668,0.11,0.32,
3669,0.13,0.31,
3670,0.16,0.29,
3671,0.155,0.27,
3672,0.14,0.26,
3673,0.14,0.25,
3674,0.14,0.26,
3675,0.15,0.27,
3676,0.125,0.27,
3677,0.11,0.245,
3678,0.085,0.235,
3679,0.055,0.225,
3680,0.035,0.225,
3681,0.02,0.23,
3682,0.015,0.23,
3683,-0.005,0.22,
3684,-0.03,0.21,
3685,-0.065,0.22,
3686,-0.075,0.225,
3687,-0.095,0.235,
3688,-0.085,0.23,
3689,-0.105,0.225,
3690,-0.13,0.215,
3691,-0.155,0.21,
3692,-0.16,0.245,
3693,-0.145,0.24,
3694,-0.155,0.24,
3695,-0.15,0.22,
3696,-0.18,0.205,
3697,-0.2,0.215,
3698,-0.2,0.225,
3699,-0.19,0.22,
3700,-0.195,0.22,
3701,-0.175,0.21,
3702,-0.19,0.195,
3703,-0.2,0.205,
3704,-0.19,0.21,
3705,-0.2,0.235,
3706,-0.175,0.235,
3707,-0.17,0.21,
3708,-0.19,0.2,
3709,-0.2,0.2,
3710,-0.2,0.215,
3711,-0.195,0.225,
3712,-0.19,0.23,
3713,-0.2,0.225,
3714,-0.2,0.21,
3715,-0.205,0.215,
3716,-0.2,0.225,
3717,-0.19,0.225,
3718,-0.165,0.235,
3719,-0.185,0.23,
3720,-0.195,0.22,
3721,-0.2,0.215,
3722,-0.215,0.23,
3723,-0.19,0.245,
3724,-0.165,0.24,
3725,-0.175,0.24,
3726,-0.185,0.225,
3727,-0.195,0.22,
3728,-0.19,0.225,
3729,-0.18,0.24,
3730,-0.165,0.235,
3731,-0.18,0.22,
3732,-0.185,0.23,
3733,-0.185,0.205,
3734,-0.195,0.22,
3735,-0.175,0.23,
3736,-0.165,0.23,
3737,-0.18,0.22,
3738,-0.185,0.195,
3739,-0.19,0.215,
3740,-0.205,0.22,
3741,-0.19,0.23,
3742,-0.175,0.235,
3743,-0.18,0.215,
3744,-0.195,0.205,
3745,-0.205,0.205,
3746,-0.215,0.22,
3747,-0.2,0.23,
3748,-0.18,0.225,
3749,-0.195,0.195,
3750,-0.2,0.195,
3751,-0.2,0.195,
3752,-0.22,0.21,
3753,-0.2,0.21,
3754,-0.18,0.22,
3755,-0.2,0.215,
3756,-0.195,0.195,
3757,-0.215,0.195,
3758,-0.225,0.2,
3759,-0.195,0.225,
3760,-0.185,0.21,
3761,-0.19,0.21,
3762,-0.205,0.195,
3763,-0.21,0.195,
3764,-0.225,0.205,
3765,-0.215,0.215,
3766,-0.2,0.215,
3767,-0.195,0.2,
3768,-0.195,0.19,
3769,-0.215,0.185,
3770,-0.215,0.205,
3771,-0.2,0.22,
3772,-0.195,0.215,
3773,-0.215,0.21,
3774,-0.235,0.2,
3775,-0.235,0.21,
3776,-0.225,0.22,
3777,-0.215,0.235,
3778,-0.2,0.245,
3779,-0.2,0.23,
3780,-0.205,0.225,
3781,-0.22,0.235,
3782,-0.215,0.24,
3783,-0.205,0.25,
3784,-0.185,0.245,
3785,-0.185,0.24,
3786,-0.185,0.235,
3787,-0.18,0.225,
3788,-0.185,0.23,
3789,-0.17,0.255,
3790,-0.15,0.235,
3791,-0.15,0.215,
3792,-0.16,0.195,
3793,-0.155,0.19,
3794,-0.155,0.195,
3795,-0.135,0.19,
3796,-0.11,0.175,
3797,-0.105,0.16,
3798,-0.115,0.135,
3799,-0.15,0.135,
3800,-0.135,0.145,
3801,-0.14,0.16,
3802,-0.14,0.145,
3803,-0.135,0.145,
3804,-0.15,0.125,
3805,-0.165,0.12,
3806,-0.175,0.135,
3807,-0.175,0.145,
3808,-0.165,0.135,
3809,-0.175,0.14,
3810,-0.18,0.12,
3811,-0.195,0.11,
3812,-0.2,0.135,
3813,-0.19,0.135,
3814,-0.19,0.15,
3815,-0.2,0.135,
3816,-0.2,0.13,
3817,-0.215,0.14,
3818,-0.205,0.165,
3819,-0.195,0.185,
3820,-0.2,0.175,
3821,-0.2,0.165,
3822,-0.235,0.15,
3823,-0.265,0.15,
3824,-0.27,0.165,
3825,-0.25,0.175,
3826,-0.23,0.165,
3827,-0.24,0.165,
3828,-0.235,0.15,
3829,-0.26,0.16,
3830,-0.25,0.18,
3831,-0.255,0.195,
3832,-0.245,0.19,
3833,-0.265,0.165,
3834,-0.27,0.17,
3835,-0.3,0.165,
3836,-0.295,0.175,
3837,-0.265,0.19,
3838,-0.245,0.21,
3839,-0.25,0.18,
3840,-0.265,0.175,
3841,-0.285,0.175,
3842,-0.28,0.195,
3843,-0.27,0.19,
3844,-0.26,0.19,
3845,-0.255,0.175,
3846,-0.28,0.165,
3847,-0.275,0.165,
3848,-0.275,0.185,
3849,-0.26,0.19,
3850,-0.25,0.2,
3851,-0.245,0.19,
3852,-0.26,0.175,
3853,-0.27,0.17,
3854,-0.265,0.185,
3855,-0.255,0.185,
3856,-0.25,0.195,
3857,-0.25,0.185,
3858,-0.27,0.18,
3859,-0.26,0.19,
3860,-0.25,0.185,
3861,-0.225,0.17,
3862,-0.2,0.11,
3863,-0.175,0.015,
3864,-0.16,-0.105,
3865,-0.15,-0.215,
3866,-0.1,-0.325,
3867,-0.04,-0.43,
3868,0.045,-0.535,
3869,0.09,-0.625,
3870,0.155,-0.68,
3871,0.185,-0.705,
3872,0.18,-0.685,
3873,0.17,-0.675,
3874,0.13,-0.69,
3875,0.04,-0.715,
3876,-0.02,-0.695,
3877,-0.055,-0.675,
3878,-0.03,-0.62,
3879,0.045,-0.59,
3880,0.18,-0.555,
3881,0.29,-0.535,
3882,0.42,-0.525,
3883,0.53,-0.51,
3884,0.655,-0.47,
3885,0.735,-0.445,
3886,0.775,-0.415,
3887,0.7,-0.385,L
3888,0.585,-0.355,
3889,0.46,-0.295,
3890,0.365,-0.23,
3891,0.285,-0.165,
3892,0.21,-0.105,
3893,0.09,-0.065,
3894,-0.05,-0.01,
3895,-0.18,0.035,
3896,-0.31,0.13,
3897,-0.395,0.195,
3898,-0.455,0.25,
3899,-0.49,0.26,
3900,-0.535,0.27,
3901,-0.515,0.285,
3902,-0.5,0.3,
3903,-0.435,0.33,
3904,-0.395,0.34,
3905,-0.355,0.34,
3906,-0.35,0.34,
3907,-0.345,0.36,
3908,-0.31,0.375,
3909,-0.305,0.385,
3910,-0.3,0.4,
3911,-0.305,0.395,
3912,-0.315,0.375,
3913,-0.31,0.36,
3914,-0.305,0.375,
3915,-0.3,0.395,
3916,-0.27,0.405,
3917,-0.265,0.39,
3918,-0.29,0.39,
3919,-0.305,0.39,
3920,-0.295,0.41,
3921,-0.275,0.41,
3922,-0.255,0.42,
3923,-0.265,0.425,
3924,-0.27,0.4,
3925,-0.295,0.415,
3926,-0.29,0.43,
3927,-0.29,0.435,
3928,-0.275,0.445,
3929,-0.28,0.445,
3930,-0.305,0.425,
3931,-0.295,0.435,
3932,-0.29,0.445,
3933,-0.27,0.46,
3934,-0.24,0.47,
3935,-0.23,0.455,
3936,-0.23,0.455,
3937,-0.255,0.465,
3938,-0.24,0.465,
3939,-0.23,0.485,
3940,-0.2,0.485,
3941,-0.195,0.495,
3942,-0.21,0.49,
3943,-0.225,0.485,
3944,-0.22,0.5,
3945,-0.2,0.515,
3946,-0.165,0.525,
3947,-0.16,0.52,
3948,-0.175,0.505,
3949,-0.175,0.505,
3950,-0.16,0.525,
3951,-0.14,0.54,
3952,-0.12,0.545,
3953,-0.125,0.535,
3954,-0.13,0.525,
3955,-0.14,0.515,
3956,-0.135,0.525,
3957,-0.11,0.53,
3958,-0.075,0.53,
3959,-0.07,0.52,
3960,-0.065,0.505,
3961,-0.07,0.495,
3962,-0.055,0.495,
3963,-0.035,0.51,
3964,-0.015,0.48,
3965,-0.005,0.465,
3966,-0.005,0.435,
3967,-0.005,0.41,
3968,0.015,0.405,
3969,0.03,0.4,
3970,0.065,0.36,
3971,0.075,0.335,
3972,0.07,0.295,
3973,0.055,0.275,
3974,0.085,0.265,
3975,0.11,0.275,
3976,0.135,0.255,
3977,0.13,0.245,
3978,0.145,0.22,
3979,0.13,0.215,
3980,0.135,0.225,
3981,0.165,0.23,
3982,0.155,0.225,
3983,0.125,0.2,
3984,0.095,0.2,
3985,0.065,0.2,
3986,0.02,0.21,
3987,0.02,0.215,
3988,0.0,0.215,
3989,-0.01,0.2,
3990,-0.04,0.175,
3991,-0.08,0.185,
3992,-0.085,0.19,
3993,-0.09,0.205,
3994,-0.09,0.2,
3995,-0.1,0.175,
3996,-0.125,0.165,
3997,-0.16,0.175,
3998,-0.165,0.18,
3999,-0.17,0.19,
4000,-0.16,0.195,
4001,-0.165,0.19,
4002,-0.19,0.16,
4003,-0.22,0.17,
4004,-0.21,0.195,
4005,-0.205,0.2,
4006,-0.185,0.2,
4007,-0.2,0.185,
4008,-0.21,0.17,
4009,-0.225,0.19,
4010,-0.205,0.18,
4011,-0.2,0.19,
4012,-0.2,0.2,
4013,-0.21,0.19,
4014,-0.21,0.175,
4015,-0.22,0.185,
4016,-0.215,0.195,
4017,-0.21,0.205,
4018,-0.19,0.21,
4019,-0.205,0.19,
4020,-0.225,0.18,
4021,-0.24,0.185,
4022,-0.23,0.195,
4023,-0.21,0.205,
4024,-0.185,0.21,
4025,-0.2,0.21,
4026,-0.2,0.195,
4027,-0.2,0.19,
4028,-0.205,0.2,
4029,-0.195,0.215,
4030,-0.2,0.215,
4031,-0.205,0.205,
4032,-0.235,0.195,
4033,-0.24,0.2,
4034,-0.23,0.2,
4035,-0.205,0.215,
4036,-0.19,0.215,
4037,-0.195,0.195,
4038,-0.21,0.195,
4039,-0.22,0.195,
4040,-0.215,0.21,
4041,-0.215,0.22,
4042,-0.21,0.225,
4043,-0.22,0.215,
4044,-0.24,0.195,
4045,-0.235,0.205,
4046,-0.23,0.2,
4047,-0.225,0.22,
4048,-0.21,0.22,
4049,-0.225,0.205,
4050,-0.22,0.195,
4051,-0.24,0.19,
4052,-0.245,0.2,
4053,-0.235,0.2,
4054,-0.225,0.195,
4055,-0.23,0.185,
4056,-0.235,0.19,
4057,-0.25,0.175,
4058,-0.235,0.195,
4059,-0.23,0.2,
4060,-0.215,0.195,
4061,-0.215,0.185,
4062,-0.245,0.165,
4063,-0.255,0.18,
4064,-0.255,0.185,
4065,-0.245,0.19,
4066,-0.23,0.195,
4067,-0.215,0.18,
4068,-0.255,0.17,
4069,-0.26,0.175,
4070,-0.245,0.17,
4071,-0.255,0.185,
4072,-0.235,0.175,
4073,-0.235,0.175,
4074,-0.235,0.155,
4075,-0.255,0.16,
4076,-0.26,0.17,
4077,-0.265,0.175,
4078,-0.25,0.175,
4079,-0.25,0.17,
4080,-0.27,0.165,
4081,-0.275,0.17,
4082,-0.255,0.175,
4083,-0.265,0.2,
4084,-0.235,0.19,
4085,-0.225,0.195,
4086,-0.235,0.185,
4087,-0.25,0.195,
4088,-0.255,0.205,
4089,-0.23,0.225,
4090,-0.2,0.22,
4091,-0.205,0.205,
4092,-0.215,0.19,
4093,-0.225,0.2,
4094,-0.22,0.2,
4095,-0.215,0.22,
4096,-0.19,0.235,
4097,-0.185,0.205,
4098,-0.195,0.185,
4099,-0.195,0.17,
4100,-0.195,0.17,
4101,-0.17,0.175,
4102,-0.14,0.175,
4103,-0.155,0.16,
4104,-0.15,0.13,
4105,-0.175,0.125,
4106,-0.165,0.135,
4107,-0.155,0.14,
4108,-0.145,0.12,
4109,-0.16,0.115,
4110,-0.19,0.095,
4111,-0.205,0.095,
4112,-0.215,0.11,
4113,-0.2,0.115,
4114,-0.185,0.11,
4115,-0.195,0.11,
4116,-0.21,0.095,
4117,-0.225,0.08,
4118,-0.22,0.1,
4119,-0.215,0.105,
4120,-0.215,0.11,
4121,-0.23,0.095,
4122,-0.255,0.085,
4123,-0.265,0.095,
4124,-0.27,0.115,
4125,-0.265,0.13,
4126,-0.235,0.14,
4127,-0.24,0.14,
4128,-0.26,0.13,
4129,-0.28,0.125,
4130,-0.305,0.14,
4131,-0.285,0.155,
4132,-0.27,0.15,
4133,-0.27,0.145,
4134,-0.275,0.135,
4135,-0.29,0.135,
4136,-0.285,0.155,
4137,-0.285,0.165,
4138,-0.275,0.16,
4139,-0.285,0.16,
4140,-0.295,0.135,
4141,-0.295,0.145,
4142,-0.3,0.165,
4143,-0.275,0.165,
4144,-0.27,0.16,
4145,-0.285,0.155,
4146,-0.3,0.135,
4147,-0.31,0.14,
4148,-0.32,0.145,
4149,-0.29,0.155,
4150,-0.29,0.17,
4151,-0.295,0.15,
4152,-0.305,0.13,
4153,-0.32,0.14,
4154,-0.305,0.145,
4155,-0.31,0.155,
4156,-0.285,0.145,
4157,-0.29,0.145,
4158,-0.31,0.125,
4159,-0.31,0.125,
4160,-0.32,0.135,
4161,-0.305,0.145,
4162,-0.28,0.14,
4163,-0.29,0.13,
4164,-0.295,0.105,
4165,-0.295,0.115,
4166,-0.29,0.13,
4167,-0.285,0.135,
4168,-0.255,0.135,
4169,-0.255,0.105,
4170,-0.245,0.045,
4171,-0.24,-0.035,
4172,-0.22,-0.115,
4173,-0.2,-0.235,
4174,-0.14,-0.335,
4175,-0.09,-0.475,
4176,-0.05,-0.58,
4177,0.02,-0.655,
4178,0.075,-0.705,
4179,0.105,-0.72,
4180,0.135,-0.72,
4181,0.1,-0.74,
4182,0.03,-0.765,
4183,-0.055,-0.785,
4184,-0.11,-0.765,
4185,-0.135,-0.715,
4186,-0.08,-0.665,
4187,-0.005,-0.66,
4188,0.095,-0.625,
4189,0.23,-0.595,
4190,0.36,-0.565,
4191,0.5,-0.555,
4192,0.625,-0.52,
4193,0.695,-0.525,
4194,0.69,-0.51,
4195,0.63,-0.49,L
4196,0.53,-0.42,
4197,0.435,-0.35,
4198,0.345,-0.295,
4199,0.26,-0.245,
4200,0.135,-0.21,
4201,-0.01,-0.15,
4202,-0.135,-0.08,
4203,-0.255,-0.005,
4204,-0.365,0.06,
4205,-0.455,0.115,
4206,-0.53,0.15,
4207,-0.57,0.19,
4208,-0.585,0.235,
4209,-0.565,0.25,
4210,-0.53,0.275,
4211,-0.49,0.275,
4212,-0.465,0.275,
4213,-0.43,0.28,
4214,-0.395,0.28,
4215,-0.365,0.305,
4216,-0.34,0.305,
4217,-0.335,0.31,
4218,-0.35,0.315,
4219,-0.37,0.31,
4220,-0.37,0.32,
4221,-0.35,0.335,
4222,-0.32,0.335,
4223,-0.335,0.33,
4224,-0.34,0.33,
4225,-0.345,0.33,
4226,-0.345,0.34,
4227,-0.33,0.35,
4228,-0.33,0.345,
4229,-0.31,0.34,
4230,-0.325,0.33,
4231,-0.33,0.34,
4232,-0.325,0.36,
4233,-0.31,0.37,
4234,-0.3,0.375,
4235,-0.315,0.365,
4236,-0.32,0.365,
4237,-0.34,0.375,
4238,-0.31,0.365,
4239,-0.32,0.39,
4240,-0.295,0.4,
4241,-0.285,0.38,
4242,-0.3,0.38,
4243,-0.305,0.385,
4244,-0.295,0.41,
4245,-0.28,0.425,
4246,-0.265,0.425,
4247,-0.265,0.42,
4248,-0.275,0.415,
4249,-0.275,0.425,
4250,-0.265,0.44,
4251,-0.25,0.45,
4252,-0.22,0.45,
4253,-0.225,0.445,
4254,-0.24,0.445,
4255,-0.225,0.445,
4256,-0.215,0.46,
4257,-0.195,0.48,
4258,-0.175,0.475,
4259,-0.165,0.46,
4260,-0.17,0.455,
4261,-0.17,0.465,
4262,-0.15,0.465,
4263,-0.14,0.47,
4264,-0.095,0.48,
4265,-0.1,0.445,
4266,-0.1,0.43,
4267,-0.095,0.43,
4268,-0.07,0.435,
4269,-0.05,0.435,
4270,-0.025,0.405,
4271,-0.02,0.38,
4272,-0.025,0.355,
4273,-0.025,0.33,
4274,-0.02,0.315,
4275,-0.01,0.32,
4276,0.02,0.3,
4277,0.03,0.265,
4278,0.035,0.235,
4279,0.045,0.225,
4280,0.06,0.21,
4281,0.08,0.215,
4282,0.1,0.195,
4283,0.1,0.17,
4284,0.1,0.165,
4285,0.08,0.145,
4286,0.085,0.16,
4287,0.08,0.165,
4288,0.07,0.175,
4289,0.045,0.14,
4290,0.025,0.12,
4291,-0.01,0.12,
4292,-0.04,0.115,
4293,-0.045,0.14,
4294,-0.05,0.135,
4295,-0.075,0.125,
4296,-0.115,0.125,
4297,-0.15,0.105,
4298,-0.16,0.12,
4299,-0.175,0.14,
4300,-0.18,0.14,
4301,-0.18,0.13,
4302,-0.2,0.12,
4303,-0.22,0.12,
4304,-0.22,0.115,
4305,-0.215,0.13,
4306,-0.205,0.135,
4307,-0.22,0.125,
4308,-0.245,0.11,
4309,-0.27,0.1,
4310,-0.265,0.12,
4311,-0.26,0.13,
4312,-0.25,0.135,
4313,-0.26,0.13,
4314,-0.27,0.125,
4315,-0.28,0.11,
4316,-0.295,0.125,
4317,-0.275,0.135,
4318,-0.26,0.145,
4319,-0.27,0.13,
4320,-0.26,0.125,
4321,-0.295,0.115,
4322,-0.28,0.125,
4323,-0.275,0.145,
4324,-0.25,0.145,
4325,-0.255,0.135,
4326,-0.275,0.11,
4327,-0.285,0.12,
4328,-0.285,0.135,
4329,-0.28,0.15,
4330,-0.255,0.15,
4331,-0.255,0.14,
4332,-0.265,0.13,
4333,-0.285,0.13,
4334,-0.305,0.14,
4335,-0.295,0.16,
4336,-0.255,0.155,
4337,-0.27,0.145,
4338,-0.295,0.13,
4339,-0.29,0.135,
4340,-0.295,0.15,
4341,-0.28,0.165,
4342,-0.285,0.165,
4343,-0.29,0.14,
4344,-0.295,0.135,
4345,-0.32,0.14,
4346,-0.32,0.15,
4347,-0.305,0.145,
4348,-0.31,0.145,
4349,-0.31,0.145,
4350,-0.315,0.135,
4351,-0.325,0.13,
4352,-0.32,0.135,
4353,-0.3,0.135,
4354,-0.285,0.135,
4355,-0.3,0.14,
4356,-0.31,0.125,
4357,-0.33,0.115,
4358,-0.335,0.135,
4359,-0.315,0.135,
4360,-0.3,0.145,
4361,-0.305,0.135,
4362,-0.32,0.12,
4363,-0.345,0.12,
4364,-0.345,0.12,
4365,-0.32,0.13,
4366,-0.325,0.14,
4367,-0.33,0.13,
4368,-0.345,0.115,
4369,-0.355,0.105,
4370,-0.36,0.125,
4371,-0.345,0.125,
4372,-0.325,0.125,
4373,-0.315,0.115,
4374,-0.325,0.1,
4375,-0.35,0.1,
4376,-0.345,0.11,
4377,-0.33,0.13,
4378,-0.32,0.115,
4379,-0.34,0.125,
4380,-0.34,0.1,
4381,-0.35,0.105,
4382,-0.335,0.115,
4383,-0.335,0.115,
4384,-0.335,0.125,
4385,-0.335,0.125,
4386,-0.34,0.115,
4387,-0.35,0.11,
4388,-0.355,0.145,
4389,-0.345,0.15,
4390,-0.335,0.15,
4391,-0.345,0.145,
4392,-0.35,0.145,
4393,-0.335,0.135,
4394,-0.345,0.155,
4395,-0.32,0.175,
4396,-0.31,0.17,
4397,-0.31,0.155,
4398,-0.315,0.135,
4399,-0.33,0.11,
4400,-0.32,0.12,
4401,-0.295,0.13,
4402,-0.275,0.115,
4403,-0.27,0.11,
4404,-0.27,0.08,
4405,-0.29,0.065,
4406,-0.285,0.08,
4407,-0.27,0.075,
4408,-0.27,0.08,
4409,-0.275,0.055,
4410,-0.32,0.045,
4411,-0.33,0.035,
4412,-0.305,0.05,
4413,-0.305,0.055,
4414,-0.3,0.05,
4415,-0.31,0.035,
4416,-0.335,0.035,
4417,-0.34,0.025,
4418,-0.345,0.04,
4419,-0.34,0.055,
4420,-0.325,0.05,
4421,-0.335,0.045,
4422,-0.355,0.025,
4423,-0.38,0.035,
4424,-0.38,0.055,
4425,-0.38,0.075,
4426,-0.365,0.09,
4427,-0.37,0.085,
4428,-0.39,0.085,
4429,-0.405,0.065,
4430,-0.415,0.085,
4431,-0.425,0.09,
4432,-0.41,0.09,
4433,-0.405,0.095,
4434,-0.42,0.09,
4435,-0.435,0.08,
4436,-0.435,0.085,
4437,-0.435,0.08,
4438,-0.415,0.095,
4439,-0.415,0.085,
4440,-0.425,0.08,
4441,-0.435,0.075,
4442,-0.44,0.1,
4443,-0.435,0.11,
4444,-0.435,0.105,
4445,-0.44,0.085,
4446,-0.445,0.085,
4447,-0.455,0.07,
4448,-0.445,0.085,
4449,-0.43,0.105,
4450,-0.425,0.095,
4451,-0.425,0.09,
4452,-0.43,0.08,
4453,-0.435,0.08,
4454,-0.45,0.08,
4455,-0.445,0.095,
4456,-0.415,0.095,
4457,-0.42,0.095,
4458,-0.43,0.085,
4459,-0.435,0.08,
4460,-0.455,0.085,
4461,-0.435,0.095,
4462,-0.415,0.095,
4463,-0.42,0.09,
4464,-0.43,0.07,
4465,-0.43,0.08,
4466,-0.425,0.08,
4467,-0.4,0.095,
4468,-0.38,0.07,
4469,-0.355,0.02,
4470,-0.345,-0.065,
4471,-0.335,-0.17,
4472,-0.31,-0.27,
4473,-0.255,-0.375,
4474,-0.185,-0.485,
4475,-0.11,-0.615,
4476,-0.065,-0.71,
4477,-0.03,-0.785,
4478,-0.01,-0.815,
4479,-0.005,-0.815,
4480,-0.02,-0.8,
4481,-0.105,-0.825,
4482,-0.225,-0.865,
4483,-0.325,-0.85,
4484,-0.37,-0.805,
4485,-0.34,-0.75,
4486,-0.245,-0.71,
4487,-0.13,-0.69,
4488,-0.005,-0.675,
4489,0.13,-0.655,
4490,0.255,-0.615,
4491,0.36,-0.59,
4492,0.43,-0.56,
4493,0.45,-0.55,
4494,0.385,-0.54,L
4495,0.27,-0.485,
4496,0.17,-0.415,
4497,0.09,-0.345,
4498,0.005,-0.29,
4499,-0.095,-0.225,
4500,-0.195,-0.2,
4501,-0.295,-0.14,
4502,-0.395,-0.08,
4503,-0.47,-0.015,
4504,-0.53,0.045,
4505,-0.595,0.08,
4506,-0.65,0.12,
4507,-0.69,0.14,
4508,-0.695,0.175,
4509,-0.675,0.215,
4510,-0.63,0.225,
4511,-0.6,0.22,
4512,-0.56,0.21,
4513,-0.54,0.235,
4514,-0.525,0.245,
4515,-0.5,0.265,
4516,-0.495,0.265,
4517,-0.505,0.27,
4518,-0.51,0.26,
4519,-0.515,0.255,
4520,-0.505,0.28,
4521,-0.485,0.295,
4522,-0.47,0.29,
4523,-0.47,0.285,
4524,-0.505,0.28,
4525,-0.52,0.275,
4526,-0.525,0.295,
4527,-0.5,0.305,
4528,-0.485,0.31,
4529,-0.48,0.3,
4530,-0.48,0.295,
4531,-0.485,0.3,
4532,-0.48,0.32,
4533,-0.475,0.33,
4534,-0.465,0.345,
4535,-0.46,0.33,
4536,-0.48,0.33,
4537,-0.48,0.32,
4538,-0.485,0.34,
4539,-0.46,0.36,
4540,-0.445,0.365,
4541,-0.45,0.355,
4542,-0.445,0.36,
4543,-0.445,0.365,
4544,-0.425,0.375,
4545,-0.41,0.38,
4546,-0.39,0.395,
4547,-0.39,0.395,
4548,-0.395,0.385,
4549,-0.405,0.39,
4550,-0.385,0.395,
4551,-0.375,0.405,
4552,-0.34,0.41,
4553,-0.33,0.415,
4554,-0.345,0.405,
4555,-0.335,0.395,
4556,-0.32,0.415,
4557,-0.315,0.43,
4558,-0.285,0.43,
4559,-0.27,0.43,
4560,-0.27,0.405,
4561,-0.27,0.4,
4562,-0.25,0.405,
4563,-0.235,0.415,
4564,-0.22,0.4,
4565,-0.2,0.385,
4566,-0.195,0.36,
4567,-0.195,0.345,
4568,-0.185,0.345,
4569,-0.165,0.335,
4570,-0.14,0.33,
4571,-0.13,0.29,
4572,-0.13,0.25,
4573,-0.115,0.23,
4574,-0.125,0.21,
4575,-0.095,0.205,
4576,-0.065,0.195,
4577,-0.055,0.17,
4578,-0.055,0.13,
4579,-0.05,0.125,
4580,-0.05,0.125,
4581,-0.03,0.125,
4582,-0.045,0.12,
4583,-0.045,0.105,
4584,-0.055,0.085,
4585,-0.085,0.08,
4586,-0.11,0.09,
4587,-0.12,0.095,
4588,-0.145,0.085,
4589,-0.165,0.085,
4590,-0.21,0.065,
4591,-0.245,0.055,
4592,-0.265,0.065,
4593,-0.27,0.075,
4594,-0.285,0.07,
4595,-0.3,0.06,
4596,-0.315,0.05,
4597,-0.345,0.04,
4598,-0.36,0.055,
4599,-0.36,0.065,
4600,-0.355,0.065,
4601,-0.35,0.06,
4602,-0.375,0.045,
4603,-0.395,0.045,
4604,-0.4,0.065,
4605,-0.385,0.06,
4606,-0.385,0.07,
4607,-0.38,0.07,
4608,-0.405,0.055,
4609,-0.42,0.045,
4610,-0.42,0.06,
4611,-0.405,0.07,
4612,-0.405,0.08,
4613,-0.4,0.075,
4614,-0.405,0.05,
4615,-0.395,0.04,
4616,-0.4,0.055,
4617,-0.4,0.08,
4618,-0.38,0.075,
4619,-0.37,0.075,
4620,-0.39,0.06,
4621,-0.405,0.045,
4622,-0.41,0.05,
4623,-0.39,0.065,
4624,-0.365,0.07,
4625,-0.375,0.075,
4626,-0.37,0.075,
4627,-0.39,0.07,
4628,-0.39,0.08,
4629,-0.38,0.095,
4630,-0.35,0.09,
4631,-0.355,0.075,
4632,-0.365,0.06,
4633,-0.38,0.065,
4634,-0.385,0.07,
4635,-0.37,0.08,
4636,-0.365,0.08,
4637,-0.36,0.085,
4638,-0.37,0.075,
4639,-0.375,0.065,
4640,-0.39,0.085,
4641,-0.375,0.09,
4642,-0.355,0.1,
4643,-0.365,0.08,
4644,-0.365,0.07,
4645,-0.375,0.07,
4646,-0.375,0.075,
4647,-0.36,0.08,
4648,-0.35,0.085,
4649,-0.355,0.085,
4650,-0.37,0.06,
4651,-0.37,0.05,
4652,-0.375,0.055,
4653,-0.355,0.065,
4654,-0.345,0.065,
4655,-0.345,0.06,
4656,-0.375,0.05,
4657,-0.375,0.06,
4658,-0.39,0.055,
4659,-0.36,0.07,
4660,-0.35,0.07,
4661,-0.355,0.05,
4662,-0.37,0.035,
4663,-0.37,0.045,
4664,-0.385,0.05,
4665,-0.36,0.065,
4666,-0.35,0.07,
4667,-0.34,0.06,
4668,-0.355,0.045,
4669,-0.37,0.055,
4670,-0.37,0.06,
4671,-0.355,0.07,
4672,-0.345,0.065,
4673,-0.345,0.055,
4674,-0.355,0.045,
4675,-0.365,0.045,
4676,-0.36,0.07,
4677,-0.355,0.085,
4678,-0.345,0.1,
4679,-0.345,0.09,
4680,-0.345,0.075,
4681,-0.345,0.08,
4682,-0.35,0.09,
4683,-0.325,0.1,
4684,-0.295,0.12,
4685,-0.29,0.11,
4686,-0.3,0.1,
4687,-0.32,0.1,
4688,-0.32,0.105,
4689,-0.295,0.125,
4690,-0.28,0.12,
4691,-0.27,0.095,
4692,-0.27,0.065,
4693,-0.295,0.055,
4694,-0.28,0.045,
4695,-0.25,0.055,
4696,-0.235,0.05,
4697,-0.235,0.035,
4698,-0.24,0.02,
4699,-0.255,-0.005,
4700,-0.27,0.01,
4701,-0.255,0.02,
4702,-0.255,0.015,
4703,-0.27,0.005,
4704,-0.28,-0.025,
4705,-0.3,-0.015,
4706,-0.305,-0.005,
4707,-0.295,0.0,
4708,-0.28,0.01,
4709,-0.29,0.0,
4710,-0.29,-0.01,
4711,-0.33,-0.02,
4712,-0.32,0.005,
4713,-0.32,0.01,
4714,-0.3,0.015,
4715,-0.3,0.0,
4716,-0.32,-0.005,
4717,-0.34,0.0,
4718,-0.34,0.03,
4719,-0.335,0.045,
4720,-0.32,0.06,
4721,-0.33,0.04,
4722,-0.35,0.025,
4723,-0.36,0.015,
4724,-0.365,0.025,
4725,-0.35,0.05,
4726,-0.33,0.045,
4727,-0.325,0.045,
4728,-0.35,0.04,
4729,-0.37,0.02,
4730,-0.375,0.035,
4731,-0.355,0.04,
4732,-0.33,0.045,
4733,-0.34,0.045,
4734,-0.355,0.035,
4735,-0.375,0.02,
4736,-0.39,0.03,
4737,-0.375,0.04,
4738,-0.36,0.045,
4739,-0.34,0.045,
4740,-0.355,0.03,
4741,-0.365,0.03,
4742,-0.375,0.035,
4743,-0.375,0.045,
4744,-0.34,0.055,
4745,-0.34,0.045,
4746,-0.35,0.04,
4747,-0.37,0.025,
4748,-0.37,0.03,
4749,-0.355,0.05,
4750,-0.345,0.055,
4751,-0.355,0.05,
4752,-0.355,0.025,
4753,-0.365,0.03,
4754,-0.37,0.03,
4755,-0.34,0.035,
4756,-0.33,0.045,
4757,-0.33,0.04,
4758,-0.34,0.015,
4759,-0.36,0.02,
4760,-0.345,0.005,
4761,-0.315,-0.02,
4762,-0.275,-0.09,
4763,-0.25,-0.195,
4764,-0.245,-0.315,
4765,-0.22,-0.445,
4766,-0.16,-0.575,
4767,-0.08,-0.665,
4768,-0.005,-0.76,
4769,0.065,-0.84,
4770,0.11,-0.88,
4771,0.135,-0.9,
4772,0.13,-0.875,
4773,0.115,-0.87,
4774,0.075,-0.885,
4775,0.005,-0.89,
4776,-0.06,-0.865,
4777,-0.075,-0.835,
4778,-0.025,-0.79,
4779,0.085,-0.745,
4780,0.22,-0.695,
4781,0.345,-0.7,
4782,0.475,-0.69,
4783,0.555,-0.66,
4784,0.635,-0.645,
4785,0.68,-0.61,
4786,0.655,-0.58,L
4787,0.565,-0.535,
4788,0.435,-0.495,
4789,0.33,-0.43,
4790,0.255,-0.36,
4791,0.175,-0.3,
4792,0.095,-0.24,
4793,-0.01,-0.195,
4794,-0.145,-0.145,
4795,-0.27,-0.09,
4796,-0.365,-0.035,
4797,-0.435,0.035,
4798,-0.485,0.09,
4799,-0.525,0.13,
4800,-0.565,0.135,
4801,-0.585,0.16,
4802,-0.575,0.19,
4803,-0.54,0.2,
4804,-0.475,0.215,
4805,-0.465,0.205,
4806,-0.43,0.21,
4807,-0.43,0.215,
4808,-0.425,0.225,
4809,-0.405,0.245,
4810,-0.395,0.265,
4811,-0.39,0.255,
4812,-0.4,0.245,
4813,-0.405,0.26,
4814,-0.405,0.26,
4815,-0.415,0.265,
4816,-0.38,0.265,
4817,-0.375,0.27,
4818,-0.39,0.26,
4819,-0.415,0.26,
4820,-0.415,0.265,
4821,-0.38,0.285,
4822,-0.375,0.285,
4823,-0.38,0.285,
4824,-0.39,0.28,
4825,-0.405,0.275,
4826,-0.395,0.285,
4827,-0.39,0.3,
4828,-0.365,0.31,
4829,-0.37,0.305,
4830,-0.38,0.295,
4831,-0.395,0.305,
4832,-0.385,0.31,
4833,-0.365,0.315,
4834,-0.355,0.34,
4835,-0.355,0.32,
4836,-0.355,0.325,
4837,-0.365,0.32,
4838,-0.36,0.35,
4839,-0.35,0.36,
4840,-0.33,0.365,
4841,-0.32,0.375,
4842,-0.315,0.36,
4843,-0.34,0.365,
4844,-0.335,0.375,
4845,-0.315,0.385,
4846,-0.31,0.4,
4847,-0.29,0.415,
4848,-0.3,0.39,
4849,-0.305,0.395,
4850,-0.3,0.4,
4851,-0.28,0.415,
4852,-0.25,0.425,
4853,-0.245,0.415,
4854,-0.25,0.415,
4855,-0.26,0.415,
4856,-0.245,0.415,
4857,-0.225,0.435,
4858,-0.215,0.43,
4859,-0.205,0.415,
4860,-0.215,0.4,
4861,-0.19,0.39,
4862,-0.185,0.405,
4863,-0.165,0.395,
4864,-0.14,0.39,
4865,-0.125,0.37,
4866,-0.13,0.33,
4867,-0.13,0.325,
4868,-0.125,0.31,
4869,-0.105,0.305,
4870,-0.085,0.3,
4871,-0.075,0.26,
4872,-0.065,0.24,
4873,-0.065,0.21,
4874,-0.045,0.195,
4875,-0.03,0.195,
4876,0.0,0.18,
4877,0.015,0.15,
4878,0.01,0.13,
4879,0.02,0.105,
4880,0.015,0.105,
4881,0.04,0.105,
4882,0.07,0.105,
4883,0.055,0.09,
4884,0.045,0.075,
4885,0.02,0.07,
4886,0.0,0.08,
4887,-0.005,0.075,
4888,-0.005,0.095,
4889,-0.03,0.065,
4890,-0.06,0.06,
4891,-0.095,0.06,
4892,-0.105,0.06,
4893,-0.125,0.075,
4894,-0.12,0.08,
4895,-0.145,0.07,
4896,-0.17,0.045,
4897,-0.19,0.045,
4898,-0.2,0.055,
4899,-0.21,0.07,
4900,-0.21,0.07,
4901,-0.235,0.07,
4902,-0.24,0.055,
4903,-0.25,0.035,
4904,-0.26,0.05,
4905,-0.255,0.065,
4906,-0.245,0.075,
4907,-0.245,0.055,
4908,-0.27,0.05,
4909,-0.275,0.035,
4910,-0.275,0.055,
4911,-0.28,0.07,
4912,-0.255,0.06,
4913,-0.26,0.05,
4914,-0.27,0.045,
4915,-0.29,0.04,
4916,-0.285,0.05,
4917,-0.28,0.075,
4918,-0.285,0.075,
4919,-0.275,0.06,
4920,-0.265,0.055,
4921,-0.285,0.05,
4922,-0.27,0.055,
4923,-0.265,0.075,
4924,-0.25,0.09,
4925,-0.255,0.07,
4926,-0.27,0.06,
4927,-0.28,0.06,
4928,-0.28,0.065,
4929,-0.275,0.085,
4930,-0.245,0.095,
4931,-0.25,0.09,
4932,-0.265,0.07,
4933,-0.28,0.08,
4934,-0.27,0.085,
4935,-0.255,0.095,
4936,-0.255,0.09,
4937,-0.245,0.075,
4938,-0.26,0.085,
4939,-0.28,0.08,
4940,-0.27,0.085,
4941,-0.26,0.09,
4942,-0.24,0.105,
4943,-0.255,0.085,
4944,-0.26,0.08,
4945,-0.28,0.08,
4946,-0.28,0.08,
4947,-0.28,0.095,
4948,-0.25,0.095,
4949,-0.25,0.08,
4950,-0.275,0.07,
4951,-0.29,0.08,
4952,-0.27,0.085,
4953,-0.265,0.09,
4954,-0.25,0.085,
4955,-0.26,0.08,
4956,-0.27,0.08,
4957,-0.285,0.065,
4958,-0.29,0.075,
4959,-0.265,0.085,
4960,-0.265,0.1,
4961,-0.265,0.085,
4962,-0.27,0.065,
4963,-0.28,0.07,
4964,-0.285,0.07,
4965,-0.29,0.07,
4966,-0.265,0.09,
4967,-0.255,0.075,
4968,-0.27,0.06,
4969,-0.28,0.055,
4970,-0.29,0.065,
4971,-0.285,0.075,
4972,-0.27,0.085,
4973,-0.275,0.065,
4974,-0.275,0.055,
4975,-0.285,0.045,
4976,-0.285,0.06,
4977,-0.285,0.065,
4978,-0.26,0.075,
4979,-0.265,0.075,
4980,-0.27,0.045,
4981,-0.285,0.05,
4982,-0.29,0.05,
4983,-0.28,0.065,
4984,-0.275,0.075,
4985,-0.28,0.065,
4986,-0.29,0.055,
4987,-0.29,0.045,
4988,-0.29,0.07,
4989,-0.295,0.1,
4990,-0.26,0.1,
4991,-0.27,0.095,
4992,-0.28,0.095,
4993,-0.295,0.09,
4994,-0.285,0.1,
4995,-0.265,0.11,
4996,-0.23,0.11,
4997,-0.24,0.11,
4998,-0.26,0.095,
4999,-0.26,0.1,
5000,-0.23,0.12,
5001,-0.235,0.12,
5002,-0.205,0.11,
5003,-0.205,0.09,
5004,-0.21,0.06,
5005,-0.23,0.04,
5006,-0.225,0.055,
5007,-0.195,0.06,
5008,-0.175,0.06,
5009,-0.17,0.05,
5010,-0.19,0.035,
5011,-0.205,0.015,
5012,-0.215,0.03,
5013,-0.195,0.035,
5014,-0.19,0.03,
5015,-0.2,0.015,
5016,-0.215,-0.005,
5017,-0.215,-0.005,
5018,-0.245,0.005,
5019,-0.235,0.02,
5020,-0.22,0.02,
5021,-0.225,0.01,
5022,-0.25,-0.005,
5023,-0.255,-0.005,
5024,-0.25,0.0,
5025,-0.25,0.01,
5026,-0.255,0.005,
5027,-0.235,-0.005,
5028,-0.26,-0.005,
5029,-0.28,-0.005,
5030,-0.285,0.01,
5031,-0.275,0.025,
5032,-0.25,0.055,
5033,-0.25,0.045,
5034,-0.275,0.025,
5035,-0.295,0.035,
5036,-0.31,0.045,
5037,-0.3,0.045,
5038,-0.295,0.06,
5039,-0.29,0.05,
5040,-0.295,0.035,
5041,-0.305,0.04,
5042,-0.31,0.045,
5043,-0.305,0.05,
5044,-0.3,0.065,
5045,-0.315,0.055,
5046,-0.33,0.05,
5047,-0.34,0.05,
5048,-0.32,0.05,
5049,-0.32,0.055,
5050,-0.3,0.065,
5051,-0.31,0.05,
5052,-0.315,0.04,
5053,-0.325,0.045,
5054,-0.34,0.05,
5055,-0.33,0.07,
5056,-0.305,0.065,
5057,-0.3,0.065,
5058,-0.32,0.05,
5059,-0.335,0.035,
5060,-0.335,0.055,
5061,-0.315,0.065,
5062,-0.315,0.065,
5063,-0.305,0.055,
5064,-0.31,0.035,
5065,-0.315,0.03,
5066,-0.32,0.045,
5067,-0.315,0.055,
5068,-0.3,0.06,
5069,-0.295,0.045,
5070,-0.31,0.03,
5071,-0.325,0.03,
5072,-0.31,0.04,
5073,-0.295,0.05,
5074,-0.275,0.05,
5075,-0.27,0.03,
5076,-0.265,-0.025,
5077,-0.265,-0.105,
5078,-0.25,-0.19,
5079,-0.23,-0.305,
5080,-0.16,-0.41,
5081,-0.12,-0.565,
5082,-0.065,-0.69,
5083,-0.03,-0.805,
5084,0.055,-0.88,
5085,0.12,-0.9,
5086,0.175,-0.915,
5087,0.195,-0.915,
5088,0.165,-0.925,
5089,0.105,-0.95,
5090,0.04,-0.94,
5091,-0.005,-0.92,
5092,-0.025,-0.865,
5093,0.005,-0.82,
5094,0.065,-0.795,
5095,0.165,-0.775,
5096,0.3,-0.73,
5097,0.455,-0.69,
5098,0.575,-0.665,
5099,0.66,-0.665,
5100,0.705,-0.64,
5101,0.69,-0.605,L
5102,0.62,-0.565,
5103,0.51,-0.485,
5104,0.425,-0.42,
5105,0.34,-0.37,
5106,0.25,-0.335,
5107,0.125,-0.28,
5108,0.03,-0.21,
5109,-0.08,-0.14,
5110,-0.195,-0.085,
5111,-0.3,-0.02,
5112,-0.395,0.02,
5113,-0.485,0.075,
5114,-0.53,0.125,
5115,-0.54,0.165,
5116,-0.535,0.195,
5117,-0.515,0.2,
5118,-0.485,0.19,
5119,-0.455,0.195,
5120,-0.44,0.22,
5121,-0.4,0.225,
5122,-0.38,0.24,
5123,-0.37,0.245,
5124,-0.37,0.235,
5125,-0.385,0.23,
5126,-0.385,0.25,
5127,-0.365,0.27,
5128,-0.35,0.28,
5129,-0.36,0.275,
5130,-0.37,0.27,
5131,-0.37,0.255,
5132,-0.375,0.275,
5133,-0.355,0.285,
5134,-0.335,0.3,
5135,-0.34,0.29,
5136,-0.335,0.28,
5137,-0.35,0.28,
5138,-0.35,0.295,
5139,-0.35,0.3,
5140,-0.325,0.32,
5141,-0.335,0.32,
5142,-0.34,0.3,
5143,-0.35,0.305,
5144,-0.355,0.32,
5145,-0.32,0.33,
5146,-0.32,0.34,
5147,-0.3,0.335,
5148,-0.32,0.335,
5149,-0.335,0.33,
5150,-0.335,0.345,
5151,-0.32,0.365,
5152,-0.31,0.375,
5153,-0.295,0.375,
5154,-0.29,0.365,
5155,-0.295,0.36,
5156,-0.305,0.385,
5157,-0.28,0.395,
5158,-0.25,0.405,
5159,-0.255,0.4,
5160,-0.25,0.395,
5161,-0.255,0.4,
5162,-0.25,0.41,
5163,-0.24,0.4,
5164,-0.225,0.42,
5165,-0.22,0.42,
5166,-0.215,0.42,
5167,-0.23,0.42,
5168,-0.21,0.435,
5169,-0.165,0.46,
5170,-0.14,0.47,
5171,-0.12,0.46,
5172,-0.12,0.44,
5173,-0.13,0.445,
5174,-0.14,0.45,
5175,-0.12,0.445,
5176,-0.12,0.445,
5177,-0.115,0.43,
5178,-0.12,0.41,
5179,-0.125,0.4,
5180,-0.125,0.39,
5181,-0.08,0.38,
5182,-0.05,0.37,
5183,-0.05,0.355,
5184,-0.03,0.32,
5185,-0.035,0.3,
5186,-0.025,0.28,
5187,-0.015,0.275,
5188,0.005,0.255,
5189,0.025,0.225,
5190,0.05,0.195,
5191,0.045,0.155,
5192,0.04,0.15,
5193,0.08,0.165,
5194,0.095,0.14,
5195,0.1,0.115,
5196,0.09,0.105,
5197,0.085,0.09,
5198,0.085,0.09,
5199,0.09,0.1,
5200,0.095,0.095,
5201,0.085,0.09,
5202,0.055,0.065,
5203,0.03,0.06,
5204,0.0,0.07,
5205,-0.01,0.075,
5206,-0.015,0.075,
5207,-0.025,0.075,
5208,-0.075,0.05,
5209,-0.095,0.045,
5210,-0.115,0.065,
5211,-0.12,0.065,
5212,-0.115,0.07,
5213,-0.135,0.055,
5214,-0.155,0.03,
5215,-0.17,0.04,
5216,-0.18,0.05,
5217,-0.185,0.05,
5218,-0.2,0.06,
5219,-0.195,0.035,
5220,-0.2,0.045,
5221,-0.22,0.045,
5222,-0.23,0.045,
5223,-0.235,0.05,
5224,-0.21,0.06,
5225,-0.22,0.055,
5226,-0.23,0.04,
5227,-0.245,0.05,
5228,-0.27,0.045,
5229,-0.24,0.065,
5230,-0.225,0.065,
5231,-0.24,0.055,
5232,-0.245,0.055,
5233,-0.255,0.04,
5234,-0.26,0.06,
5235,-0.265,0.065,
5236,-0.23,0.075,
5237,-0.23,0.065,
5238,-0.245,0.06,
5239,-0.255,0.045,
5240,-0.245,0.055,
5241,-0.245,0.06,
5242,-0.22,0.07,
5243,-0.235,0.065,
5244,-0.25,0.06,
5245,-0.26,0.05,
5246,-0.28,0.055,
5247,-0.24,0.075,
5248,-0.23,0.085,
5249,-0.235,0.075,
5250,-0.255,0.065,
5251,-0.26,0.065,
5252,-0.265,0.07,
5253,-0.26,0.075,
5254,-0.24,0.105,
5255,-0.24,0.075,
5256,-0.245,0.08,
5257,-0.26,0.075,
5258,-0.265,0.075,
5259,-0.26,0.1,
5260,-0.25,0.09,
5261,-0.24,0.085,
5262,-0.24,0.075,
5263,-0.265,0.065,
5264,-0.265,0.07,
5265,-0.265,0.095,
5266,-0.245,0.09,
5267,-0.26,0.09,
5268,-0.26,0.075,
5269,-0.26,0.055,
5270,-0.28,0.075,
5271,-0.275,0.085,
5272,-0.25,0.08,
5273,-0.25,0.075,
5274,-0.25,0.07,
5275,-0.27,0.06,
5276,-0.27,0.07,
5277,-0.25,0.075,
5278,-0.245,0.09,
5279,-0.25,0.075,
5280,-0.26,0.065,
5281,-0.255,0.055,
5282,-0.27,0.065,
5283,-0.255,0.08,
5284,-0.24,0.085,
5285,-0.245,0.07,
5286,-0.265,0.06,
5287,-0.27,0.05,
5288,-0.28,0.065,
5289,-0.27,0.075,
5290,-0.255,0.08,
5291,-0.25,0.08,
5292,-0.255,0.06,
5293,-0.265,0.05,
5294,-0.275,0.06,
5295,-0.265,0.075,
5296,-0.26,0.08,
5297,-0.265,0.075,
5298,-0.265,0.055,
5299,-0.27,0.045,
5300,-0.275,0.05,
5301,-0.26,0.07,
5302,-0.25,0.085,
5303,-0.25,0.075,
5304,-0.27,0.07,
5305,-0.285,0.06,
5306,-0.29,0.065,
5307,-0.275,0.1,
5308,-0.265,0.105,
5309,-0.255,0.105,
5310,-0.275,0.105,
5311,-0.295,0.09,
5312,-0.295,0.105,
5313,-0.265,0.11,
5314,-0.245,0.115,
5315,-0.225,0.11,
5316,-0.23,0.11,
5317,-0.24,0.11,
5318,-0.245,0.115,
5319,-0.235,0.13,
5320,-0.21,0.125,
5321,-0.21,0.11,
5322,-0.225,0.09,
5323,-0.235,0.065,
5324,-0.225,0.07,
5325,-0.2,0.075,
5326,-0.19,0.08,
5327,-0.185,0.06,
5328,-0.185,0.045,
5329,-0.195,0.04,
5330,-0.195,0.035,
5331,-0.2,0.04,
5332,-0.195,0.025,
5333,-0.2,0.04,
5334,-0.21,0.005,
5335,-0.23,0.0,
5336,-0.225,0.01,
5337,-0.215,0.02,
5338,-0.23,0.035,
5339,-0.225,0.02,
5340,-0.245,0.005,
5341,-0.26,0.0,
5342,-0.275,0.01,
5343,-0.26,0.02,
5344,-0.255,0.02,
5345,-0.27,0.025,
5346,-0.275,0.0,
5347,-0.295,0.01,
5348,-0.295,0.015,
5349,-0.285,0.045,
5350,-0.28,0.06,
5351,-0.28,0.06,
5352,-0.285,0.05,
5353,-0.305,0.05,
5354,-0.325,0.05,
5355,-0.305,0.08,
5356,-0.29,0.065,
5357,-0.3,0.065,
5358,-0.3,0.045,
5359,-0.325,0.045,
5360,-0.335,0.05,
5361,-0.32,0.085,
5362,-0.305,0.08,
5363,-0.29,0.075,
5364,-0.31,0.065,
5365,-0.325,0.065,
5366,-0.335,0.075,
5367,-0.3,0.08,
5368,-0.305,0.085,
5369,-0.31,0.075,
5370,-0.32,0.06,
5371,-0.325,0.065,
5372,-0.325,0.06,
5373,-0.325,0.075,
5374,-0.31,0.08,
5375,-0.315,0.075,
5376,-0.31,0.055,
5377,-0.335,0.045,
5378,-0.335,0.065,
5379,-0.31,0.075,
5380,-0.3,0.08,
5381,-0.31,0.07,
5382,-0.32,0.06,
5383,-0.33,0.06,
5384,-0.345,0.065,
5385,-0.315,0.08,
5386,-0.295,0.075,
5387,-0.3,0.06,
5388,-0.31,0.055,
5389,-0.315,0.045,
5390,-0.315,0.065,
5391,-0.305,0.08,
5392,-0.27,0.06,
5393,-0.25,0.015,
5394,-0.245,-0.065,
5395,-0.25,-0.17,
5396,-0.215,-0.27,
5397,-0.185,-0.405,
5398,-0.12,-0.525,
5399,-0.065,-0.645,
5400,0.0,-0.77,
5401,0.04,-0.84,
5402,0.07,-0.905,
5403,0.105,-0.88,
5404,0.12,-0.87,
5405,0.115,-0.895,
5406,0.03,-0.925,
5407,-0.045,-0.935,
5408,-0.09,-0.88,
5409,-0.09,-0.825,
5410,-0.015,-0.795,
5411,0.07,-0.76,
5412,0.18,-0.74,
5413,0.285,-0.715,
5414,0.41,-0.7,
5415,0.515,-0.675,
5416,0.605,-0.65,
5417,0.66,-0.63,
5418,0.64,-0.61,
5419,0.59,-0.58,L
5420,0.47,-0.525,
5421,0.38,-0.47,
5422,0.305,-0.39,
5423,0.23,-0.35,
5424,0.125,-0.305,
5425,0.015,-0.27,
5426,-0.095,-0.205,
5427,-0.2,-0.125,
5428,-0.305,-0.06,
5429,-0.405,-0.005,
5430,-0.49,0.045,
5431,-0.555,0.1,
5432,-0.605,0.15,
5433,-0.605,0.185,
5434,-0.57,0.205,
5435,-0.525,0.215,
5436,-0.505,0.21,
5437,-0.465,0.215,
5438,-0.445,0.215,
5439,-0.405,0.25,
5440,-0.38,0.26,
5441,-0.355,0.265,
5442,-0.365,0.255,
5443,-0.38,0.245,
5444,-0.395,0.265,
5445,-0.39,0.265,
5446,-0.365,0.295,
5447,-0.355,0.29,
5448,-0.37,0.27,
5449,-0.37,0.27,
5450,-0.365,0.285,
5451,-0.355,0.3,
5452,-0.345,0.325,
5453,-0.345,0.31,
5454,-0.345,0.3,
5455,-0.36,0.285,
5456,-0.365,0.295,
5457,-0.355,0.315,
5458,-0.335,0.325,
5459,-0.325,0.32,
5460,-0.345,0.315,
5461,-0.35,0.315,
5462,-0.335,0.325,
5463,-0.325,0.34,
5464,-0.3,0.36,
5465,-0.305,0.345,
5466,-0.31,0.335,
5467,-0.33,0.345,
5468,-0.33,0.345,
5469,-0.305,0.38,
5470,-0.29,0.39,
5471,-0.275,0.375,
5472,-0.28,0.375,
5473,-0.3,0.38,
5474,-0.3,0.385,
5475,-0.28,0.41,
5476,-0.265,0.42,
5477,-0.24,0.415,
5478,-0.25,0.415,
5479,-0.25,0.405,
5480,-0.25,0.425,
5481,-0.225,0.43,
5482,-0.21,0.455,
5483,-0.205,0.435,
5484,-0.2,0.44,
5485,-0.215,0.43,
5486,-0.205,0.425,
5487,-0.19,0.45,
5488,-0.18,0.47,
5489,-0.165,0.46,
5490,-0.155,0.44,
5491,-0.17,0.44,
5492,-0.165,0.44,
5493,-0.125,0.435,
5494,-0.115,0.44,
5495,-0.09,0.415,
5496,-0.08,0.395,
5497,-0.085,0.385,
5498,-0.07,0.38,
5499,-0.06,0.375,
5500,-0.035,0.365,
5501,-0.025,0.345,
5502,-0.035,0.31,
5503,-0.025,0.285,
5504,-0.02,0.28,
5505,0.0,0.245,
5506,0.025,0.25,
5507,0.045,0.205,
5508,0.05,0.175,
5509,0.055,0.14,
5510,0.05,0.14,
5511,0.06,0.145,
5512,0.105,0.14,
5513,0.115,0.135,
5514,0.095,0.105,
5515,0.08,0.09,
5516,0.075,0.095,
5517,0.07,0.1,
5518,0.065,0.11,
5519,0.05,0.09,
5520,0.03,0.08,
5521,0.0,0.07,
5522,-0.035,0.08,
5523,-0.035,0.09,
5524,-0.04,0.095,
5525,-0.07,0.075,
5526,-0.09,0.06,
5527,-0.125,0.055,
5528,-0.135,0.07,
5529,-0.145,0.08,
5530,-0.145,0.09,
5531,-0.165,0.075,
5532,-0.2,0.05,
5533,-0.22,0.04,
5534,-0.215,0.055,
5535,-0.22,0.075,
5536,-0.21,0.085,
5537,-0.21,0.07,
5538,-0.23,0.06,
5539,-0.235,0.05,
5540,-0.25,0.055,
5541,-0.24,0.07,
5542,-0.235,0.075,
5543,-0.24,0.085,
5544,-0.245,0.065,
5545,-0.255,0.065,
5546,-0.265,0.07,
5547,-0.265,0.08,
5548,-0.245,0.09,
5549,-0.235,0.075,
5550,-0.26,0.075,
5551,-0.26,0.045,
5552,-0.265,0.06,
5553,-0.28,0.075,
5554,-0.255,0.09,
5555,-0.245,0.08,
5556,-0.255,0.085,
5557,-0.26,0.06,
5558,-0.265,0.08,
5559,-0.26,0.09,
5560,-0.26,0.09,
5561,-0.255,0.085,
5562,-0.25,0.08,
5563,-0.27,0.075,
5564,-0.28,0.09,
5565,-0.26,0.1,
5566,-0.26,0.115,
5567,-0.245,0.095,
5568,-0.255,0.08,
5569,-0.27,0.085,
5570,-0.27,0.09,
5571,-0.265,0.11,
5572,-0.25,0.11,
5573,-0.24,0.105,
5574,-0.255,0.09,
5575,-0.265,0.085,
5576,-0.27,0.085,
5577,-0.27,0.095,
5578,-0.26,0.105,
5579,-0.255,0.09,
5580,-0.265,0.085,
5581,-0.265,0.08,
5582,-0.275,0.08,
5583,-0.26,0.11,
5584,-0.255,0.11,
5585,-0.255,0.1,
5586,-0.26,0.09,
5587,-0.29,0.08,
5588,-0.28,0.09,
5589,-0.265,0.095,
5590,-0.255,0.1,
5591,-0.27,0.1,
5592,-0.285,0.075,
5593,-0.285,0.065,
5594,-0.285,0.08,
5595,-0.285,0.075,
5596,-0.26,0.09,
5597,-0.265,0.08,
5598,-0.275,0.065,
5599,-0.295,0.06,
5600,-0.3,0.065,
5601,-0.29,0.075,
5602,-0.28,0.095,
5603,-0.28,0.075,
5604,-0.285,0.06,
5605,-0.3,0.06,
5606,-0.3,0.065,
5607,-0.285,0.08,
5608,-0.275,0.095,
5609,-0.275,0.08,
5610,-0.28,0.07,
5611,-0.29,0.06,
5612,-0.3,0.06,
5613,-0.285,0.075,
5614,-0.26,0.08,
5615,-0.265,0.085,
5616,-0.28,0.065,
5617,-0.3,0.075,
5618,-0.31,0.06,
5619,-0.305,0.08,
5620,-0.285,0.1,
5621,-0.265,0.1,
5622,-0.28,0.09,
5623,-0.305,0.085,
5624,-0.295,0.105,
5625,-0.295,0.115,
5626,-0.27,0.115,
5627,-0.255,0.11,
5628,-0.255,0.095,
5629,-0.265,0.1,
5630,-0.245,0.105,
5631,-0.245,0.12,
5632,-0.24,0.12,
5633,-0.235,0.105,
5634,-0.24,0.065,
5635,-0.235,0.05,
5636,-0.23,0.055,
5637,-0.21,0.05,
5638,-0.19,0.075,
5639,-0.19,0.065,
5640,-0.185,0.04,
5641,-0.19,0.035,
5642,-0.195,0.035,
5643,-0.185,0.045,
5644,-0.195,0.045,
5645,-0.2,0.025,
5646,-0.22,0.005,
5647,-0.23,-0.005,
5648,-0.24,0.0,
5649,-0.24,0.015,
5650,-0.23,0.015,
5651,-0.235,0.0,
5652,-0.245,-0.005,
5653,-0.255,-0.02,
5654,-0.27,-0.005,
5655,-0.27,0.015,
5656,-0.26,0.015,
5657,-0.25,0.005,
5658,-0.265,-0.005,
5659,-0.275,-0.01,
5660,-0.28,0.0,
5661,-0.285,0.025,
5662,-0.265,0.045,
5663,-0.265,0.06,
5664,-0.29,0.04,
5665,-0.31,0.025,
5666,-0.325,0.03,
5667,-0.315,0.035,
5668,-0.315,0.06,
5669,-0.295,0.055,
5670,-0.3,0.04,
5671,-0.3,0.03,
5672,-0.315,0.04,
5673,-0.31,0.05,
5674,-0.32,0.065,
5675,-0.325,0.045,
5676,-0.315,0.04,
5677,-0.32,0.045,
5678,-0.33,0.055,
5679,-0.33,0.065,
5680,-0.315,0.075,
5681,-0.31,0.06,
5682,-0.32,0.05,
5683,-0.33,0.035,
5684,-0.325,0.04,
5685,-0.32,0.05,
5686,-0.305,0.075,
5687,-0.305,0.06,
5688,-0.32,0.065,
5689,-0.34,0.045,
5690,-0.33,0.055,
5691,-0.325,0.05,
5692,-0.315,0.07,
5693,-0.31,0.055,
5694,-0.325,0.04,
5695,-0.325,0.03,
5696,-0.325,0.04,
5697,-0.325,0.045,
5698,-0.295,0.05,
5699,-0.285,0.05,
5700,-0.29,0.04,
5701,-0.305,0.01,
5702,-0.3,-0.055,
5703,-0.255,-0.14,
5704,-0.19,-0.27,
5705,-0.15,-0.43,
5706,-0.105,-0.585,
5707,-0.05,-0.735,
5708,0.015,-0.83,
5709,0.075,-0.885,
5710,0.125,-0.885,
5711,0.14,-0.9,
5712,0.105,-0.905,
5713,0.025,-0.93,
5714,-0.05,-0.935,
5715,-0.105,-0.9,
5716,-0.1,-0.85,
5717,-0.05,-0.81,
5718,0.025,-0.785,
5719,0.125,-0.76,
5720,0.255,-0.735,
5721,0.41,-0.695,
5722,0.515,-0.675,
5723,0.6,-0.66,
5724,0.645,-0.64,
5725,0.63,-0.61,L
5726,0.54,-0.57,
5727,0.455,-0.51,
5728,0.365,-0.425,
5729,0.255,-0.39,
5730,0.165,-0.36,
5731,0.04,-0.295,
5732,-0.08,-0.24,
5733,-0.17,-0.17,
5734,-0.275,-0.1,
5735,-0.37,-0.035,
5736,-0.47,0.01,
5737,-0.545,0.065,
5738,-0.585,0.11,
5739,-0.6,0.145,
5740,-0.575,0.185,
5741,-0.535,0.185,
5742,-0.505,0.19,
5743,-0.485,0.185,
5744,-0.455,0.205,
5745,-0.425,0.22,
5746,-0.385,0.235,
5747,-0.375,0.24,
5748,-0.38,0.245,
5749,-0.385,0.215,
5750,-0.385,0.225,
5751,-0.375,0.25,
5752,-0.355,0.265,
5753,-0.355,0.275,
5754,-0.36,0.255,
5755,-0.365,0.26,
5756,-0.37,0.265,
5757,-0.355,0.27,
5758,-0.34,0.285,
5759,-0.35,0.275,
5760,-0.355,0.275,
5761,-0.37,0.275,
5762,-0.365,0.28,
5763,-0.345,0.29,
5764,-0.33,0.295,
5765,-0.325,0.29,
5766,-0.335,0.3,
5767,-0.345,0.295,
5768,-0.355,0.29,
5769,-0.335,0.3,
5770,-0.32,0.33,
5771,-0.3,0.33,
5772,-0.315,0.315,
5773,-0.32,0.31,
5774,-0.315,0.335,
5775,-0.3,0.345,
5776,-0.285,0.355,
5777,-0.275,0.35,
5778,-0.29,0.35,
5779,-0.29,0.34,
5780,-0.295,0.36,
5781,-0.265,0.37,
5782,-0.24,0.385,
5783,-0.235,0.38,
5784,-0.235,0.375,
5785,-0.245,0.365,
5786,-0.24,0.385,
5787,-0.225,0.405,
5788,-0.22,0.41,
5789,-0.205,0.395,
5790,-0.205,0.405,
5791,-0.21,0.39,
5792,-0.2,0.395,
5793,-0.18,0.42,
5794,-0.155,0.43,
5795,-0.145,0.43,
5796,-0.145,0.41,
5797,-0.14,0.4,
5798,-0.14,0.415,
5799,-0.125,0.42,
5800,-0.09,0.42,
5801,-0.075,0.41,
5802,-0.07,0.38,
5803,-0.085,0.375,
5804,-0.075,0.36,
5805,-0.055,0.36,
5806,-0.02,0.365,
5807,-0.005,0.33,
5808,-0.005,0.295,
5809,-0.005,0.265,
5810,0.005,0.25,
5811,0.015,0.235,
5812,0.035,0.225,
5813,0.065,0.19,
5814,0.065,0.17,
5815,0.045,0.145,
5816,0.055,0.125,
5817,0.085,0.125,
5818,0.12,0.12,
5819,0.115,0.12,
5820,0.1,0.085,
5821,0.095,0.07,
5822,0.095,0.07,
5823,0.08,0.07,
5824,0.09,0.065,
5825,0.075,0.06,
5826,0.035,0.04,
5827,0.015,0.03,
5828,-0.01,0.04,
5829,-0.03,0.05,
5830,-0.05,0.065,
5831,-0.07,0.05,
5832,-0.1,0.04,
5833,-0.125,0.035,
5834,-0.14,0.025,
5835,-0.155,0.055,
5836,-0.155,0.065,
5837,-0.18,0.055,
5838,-0.2,0.04,
5839,-0.215,0.03,
5840,-0.215,0.035,
5841,-0.215,0.055,
5842,-0.21,0.065,
5843,-0.225,0.065,
5844,-0.235,0.045,
5845,-0.245,0.045,
5846,-0.245,0.045,
5847,-0.245,0.045,
5848,-0.225,0.055,
5849,-0.25,0.045,
5850,-0.255,0.03,
5851,-0.265,0.025,
5852,-0.275,0.035,
5853,-0.265,0.05,
5854,-0.255,0.05,
5855,-0.245,0.065,
5856,-0.255,0.05,
5857,-0.27,0.035,
5858,-0.26,0.05,
5859,-0.275,0.06,
5860,-0.245,0.065,
5861,-0.23,0.06,
5862,-0.245,0.04,
5863,-0.255,0.03,
5864,-0.27,0.045,
5865,-0.255,0.06,
5866,-0.245,0.06,
5867,-0.24,0.065,
5868,-0.245,0.055,
5869,-0.255,0.04,
5870,-0.265,0.055,
5871,-0.25,0.075,
5872,-0.245,0.085,
5873,-0.25,0.07,
5874,-0.245,0.055,
5875,-0.255,0.07,
5876,-0.26,0.07,
5877,-0.255,0.08,
5878,-0.25,0.09,
5879,-0.24,0.08,
5880,-0.25,0.07,
5881,-0.25,0.05,
5882,-0.265,0.06,
5883,-0.26,0.075,
5884,-0.245,0.085,
5885,-0.245,0.07,
5886,-0.255,0.055,
5887,-0.265,0.055,
5888,-0.265,0.055,
5889,-0.27,0.065,
5890,-0.26,0.07,
5891,-0.26,0.075,
5892,-0.255,0.065,
5893,-0.28,0.055,
5894,-0.275,0.06,
5895,-0.265,0.07,
5896,-0.25,0.08,
5897,-0.25,0.06,
5898,-0.26,0.055,
5899,-0.27,0.04,
5900,-0.275,0.055,
5901,-0.265,0.065,
5902,-0.255,0.06,
5903,-0.25,0.06,
5904,-0.255,0.045,
5905,-0.275,0.04,
5906,-0.28,0.055,
5907,-0.27,0.065,
5908,-0.265,0.06,
5909,-0.25,0.05,
5910,-0.265,0.045,
5911,-0.275,0.04,
5912,-0.285,0.04,
5913,-0.285,0.055,
5914,-0.265,0.065,
5915,-0.255,0.05,
5916,-0.27,0.025,
5917,-0.285,0.03,
5918,-0.29,0.035,
5919,-0.295,0.04,
5920,-0.27,0.055,
5921,-0.27,0.055,
5922,-0.27,0.035,
5923,-0.285,0.025,
5924,-0.29,0.035,
5925,-0.29,0.055,
5926,-0.26,0.065,
5927,-0.265,0.065,
5928,-0.27,0.06,
5929,-0.29,0.05,
5930,-0.28,0.065,
5931,-0.26,0.09,
5932,-0.255,0.105,
5933,-0.245,0.095,
5934,-0.255,0.075,
5935,-0.275,0.065,
5936,-0.25,0.06,
5937,-0.235,0.09,
5938,-0.215,0.105,
5939,-0.215,0.1,
5940,-0.225,0.09,
5941,-0.23,0.065,
5942,-0.24,0.08,
5943,-0.24,0.07,
5944,-0.21,0.07,
5945,-0.19,0.05,
5946,-0.195,0.02,
5947,-0.195,0.015,
5948,-0.2,0.02,
5949,-0.185,0.015,
5950,-0.17,0.035,
5951,-0.17,0.01,
5952,-0.17,-0.01,
5953,-0.2,-0.03,
5954,-0.205,-0.015,
5955,-0.195,-0.01,
5956,-0.19,0.0,
5957,-0.185,-0.03,
5958,-0.2,-0.03,
5959,-0.215,-0.04,
5960,-0.24,-0.03,
5961,-0.23,-0.025,
5962,-0.215,-0.005,
5963,-0.215,-0.005,
5964,-0.24,-0.02,
5965,-0.255,-0.04,
5966,-0.27,-0.035,
5967,-0.26,-0.03,
5968,-0.255,-0.02,
5969,-0.245,-0.01,
5970,-0.245,-0.02,
5971,-0.275,-0.02,
5972,-0.28,-0.01,
5973,-0.285,0.02,
5974,-0.265,0.025,
5975,-0.265,0.02,
5976,-0.28,0.02,
5977,-0.315,0.01,
5978,-0.31,0.015,
5979,-0.305,0.02,
5980,-0.285,0.04,
5981,-0.27,0.03,
5982,-0.29,0.02,
5983,-0.315,0.005,
5984,-0.33,0.01,
5985,-0.315,0.03,
5986,-0.315,0.03,
5987,-0.31,0.03,
5988,-0.305,0.025,
5989,-0.345,0.01,
5990,-0.335,0.015,
5991,-0.335,0.05,
5992,-0.305,0.035,
5993,-0.305,0.035,
5994,-0.32,0.025,
5995,-0.325,0.01,
5996,-0.335,0.025,
5997,-0.33,0.035,
5998,-0.31,0.04,
5999,-0.31,0.035,
6000,-0.32,0.015,
6001,-0.335,0.005,
6002,-0.335,0.015,
6003,-0.325,0.035,
6004,-0.33,0.05,
6005,-0.305,0.02,
6006,-0.315,0.01,
6007,-0.325,0.015,
6008,-0.32,0.01,
6009,-0.315,0.025,
6010,-0.31,0.045,
6011,-0.31,0.025,
6012,-0.32,0.015,
6013,-0.32,0.0,
6014,-0.34,0.015,
6015,-0.32,0.02,
6016,-0.305,0.035,
6017,-0.285,0.015,
6018,-0.285,-0.01,
6019,-0.285,-0.075,
6020,-0.28,-0.14,
6021,-0.235,-0.23,
6022,-0.205,-0.33,
6023,-0.16,-0.465,
6024,-0.115,-0.61,
6025,-0.065,-0.725,
6026,-0.01,-0.805,
6027,0.055,-0.88,
6028,0.095,-0.89,
6029,0.095,-0.915,
6030,0.08,-0.92,
6031,0.03,-0.95,
6032,-0.05,-0.965,
6033,-0.115,-0.955,
6034,-0.15,-0.91,
6035,-0.15,-0.89,
6036,-0.1,-0.85,
6037,-0.01,-0.835,
6038,0.105,-0.795,
6039,0.245,-0.76,
6040,0.38,-0.735,
6041,0.485,-0.705,
6042,0.555,-0.715,
6043,0.605,-0.695,
6044,0.605,-0.665,L
6045,0.55,-0.615,
6046,0.46,-0.545,
6047,0.365,-0.495,
6048,0.25,-0.455,
6049,0.13,-0.405,
6050,0.01,-0.335,
6051,-0.07,-0.27,
6052,-0.185,-0.195,
6053,-0.32,-0.14,
6054,-0.435,-0.08,
6055,-0.545,-0.03,
6056,-0.6,0.03,
6057,-0.625,0.095,
6058,-0.61,0.14,
6059,-0.6,0.155,
6060,-0.565,0.165,
6061,-0.525,0.165,
6062,-0.5,0.18,
6063,-0.46,0.19,
6064,-0.41,0.2,
6065,-0.38,0.2,
6066,-0.385,0.195,
6067,-0.395,0.19,
6068,-0.4,0.205,
6069,-0.4,0.23,
6070,-0.38,0.24,
6071,-0.37,0.245,
6072,-0.38,0.235,
6073,-0.385,0.225,
6074,-0.395,0.24,
6075,-0.385,0.245,
6076,-0.375,0.26,
6077,-0.355,0.245,
6078,-0.375,0.23,
6079,-0.38,0.24,
6080,-0.385,0.245,
6081,-0.37,0.265,
6082,-0.355,0.28,
6083,-0.35,0.27,
6084,-0.345,0.27,
6085,-0.355,0.27,
6086,-0.355,0.275,
6087,-0.345,0.285,
6088,-0.325,0.3,
6089,-0.32,0.3,
6090,-0.32,0.3,
6091,-0.325,0.29,
6092,-0.34,0.305,
6093,-0.32,0.315,
6094,-0.3,0.345,
6095,-0.29,0.335,
6096,-0.29,0.33,
6097,-0.305,0.33,
6098,-0.305,0.33,
6099,-0.28,0.355,
6100,-0.26,0.365,
6101,-0.255,0.37,
6102,-0.255,0.365,
6103,-0.25,0.355,
6104,-0.26,0.375,
6105,-0.24,0.39,
6106,-0.22,0.405,
6107,-0.195,0.405,
6108,-0.2,0.385,
6109,-0.2,0.375,
6110,-0.2,0.375,
6111,-0.18,0.385,
6112,-0.16,0.4,
6113,-0.145,0.4,
6114,-0.135,0.39,
6115,-0.135,0.38,
6116,-0.12,0.375,
6117,-0.105,0.37,
6118,-0.075,0.365,
6119,-0.06,0.345,
6120,-0.055,0.35,
6121,-0.055,0.315,
6122,-0.05,0.31,
6123,-0.02,0.3,
6124,0.0,0.285,
6125,0.025,0.26,
6126,0.025,0.225,
6127,0.025,0.18,
6128,0.035,0.165,
6129,0.04,0.17,
6130,0.08,0.15,
6131,0.095,0.125,
6132,0.085,0.11,
6133,0.085,0.08,
6134,0.08,0.07,
6135,0.085,0.07,
6136,0.1,0.085,
6137,0.09,0.07,
6138,0.075,0.045,
6139,0.045,0.025,
6140,0.02,0.025,
6141,0.005,0.04,
6142,-0.005,0.05,
6143,-0.03,0.04,
6144,-0.05,0.035,
6145,-0.085,0.03,
6146,-0.11,0.02,
6147,-0.11,0.05,
6148,-0.145,0.035,
6149,-0.155,0.035,
6150,-0.175,0.025,
6151,-0.205,0.01,
6152,-0.225,0.02,
6153,-0.225,0.035,
6154,-0.225,0.03,
6155,-0.225,0.04,
6156,-0.23,0.03,
6157,-0.26,0.025,
6158,-0.28,0.03,
6159,-0.26,0.03,
6160,-0.245,0.04,
6161,-0.25,0.03,
6162,-0.265,0.02,
6163,-0.275,0.025,
6164,-0.29,0.025,
6165,-0.295,0.035,
6166,-0.28,0.045,
6167,-0.27,0.04,
6168,-0.285,0.03,
6169,-0.285,0.02,
6170,-0.285,0.04,
6171,-0.28,0.05,
6172,-0.27,0.06,
6173,-0.265,0.06,
6174,-0.29,0.035,
6175,-0.29,0.015,
6176,-0.29,0.03,
6177,-0.295,0.05,
6178,-0.29,0.065,
6179,-0.28,0.06,
6180,-0.285,0.055,
6181,-0.3,0.045,
6182,-0.31,0.05,
6183,-0.29,0.065,
6184,-0.29,0.08,
6185,-0.28,0.06,
6186,-0.295,0.055,
6187,-0.3,0.045,
6188,-0.295,0.065,
6189,-0.29,0.075,
6190,-0.27,0.085,
6191,-0.275,0.06,
6192,-0.28,0.045,
6193,-0.3,0.035,
6194,-0.3,0.05,
6195,-0.29,0.075,
6196,-0.275,0.08,
6197,-0.265,0.07,
6198,-0.28,0.065,
6199,-0.295,0.045,
6200,-0.315,0.065,
6201,-0.29,0.075,
6202,-0.29,0.08,
6203,-0.275,0.075,
6204,-0.285,0.045,
6205,-0.3,0.045,
6206,-0.31,0.05,
6207,-0.305,0.065,
6208,-0.28,0.06,
6209,-0.285,0.065,
6210,-0.285,0.05,
6211,-0.3,0.025,
6212,-0.3,0.035,
6213,-0.295,0.055,
6214,-0.285,0.07,
6215,-0.285,0.065,
6216,-0.29,0.05,
6217,-0.32,0.04,
6218,-0.3,0.045,
6219,-0.3,0.05,
6220,-0.285,0.055,
6221,-0.295,0.07,
6222,-0.305,0.045,
6223,-0.32,0.035,
6224,-0.33,0.03,
6225,-0.32,0.04,
6226,-0.3,0.06,
6227,-0.3,0.05,
6228,-0.3,0.04,
6229,-0.32,0.015,
6230,-0.325,0.04,
6231,-0.32,0.05,
6232,-0.295,0.065,
6233,-0.29,0.07,
6234,-0.285,0.07,
6235,-0.315,0.07,
6236,-0.315,0.075,
6237,-0.33,0.1,
6238,-0.315,0.11,
6239,-0.285,0.1,
6240,-0.285,0.09,
6241,-0.285,0.07,
6242,-0.28,0.075,
6243,-0.28,0.09,
6244,-0.26,0.1,
6245,-0.26,0.09,
6246,-0.26,0.07,
6247,-0.265,0.045,
6248,-0.265,0.04,
6249,-0.25,0.05,
6250,-0.23,0.06,
6251,-0.21,0.04,
6252,-0.22,0.025,
6253,-0.215,0.0,
6254,-0.23,0.0,
6255,-0.235,0.01,
6256,-0.22,0.015,
6257,-0.225,0.0,
6258,-0.23,-0.015,
6259,-0.25,-0.03,
6260,-0.26,-0.02,
6261,-0.255,-0.01,
6262,-0.25,0.0,
6263,-0.25,-0.01,
6264,-0.265,-0.025,
6265,-0.275,-0.03,
6266,-0.285,-0.02,
6267,-0.3,-0.015,
6268,-0.295,-0.005,
6269,-0.305,-0.005,
6270,-0.295,-0.015,
6271,-0.315,-0.015,
6272,-0.325,0.01,
6273,-0.33,0.025,
6274,-0.335,0.055,
6275,-0.335,0.045,
6276,-0.33,0.03,
6277,-0.36,0.035,
6278,-0.35,0.03,
6279,-0.34,0.045,
6280,-0.325,0.055,
6281,-0.305,0.04,
6282,-0.315,0.03,
6283,-0.325,0.025,
6284,-0.34,0.025,
6285,-0.35,0.035,
6286,-0.335,0.065,
6287,-0.335,0.055,
6288,-0.34,0.04,
6289,-0.355,0.025,
6290,-0.36,0.04,
6291,-0.355,0.05,
6292,-0.35,0.055,
6293,-0.33,0.05,
6294,-0.34,0.035,
6295,-0.355,0.035,
6296,-0.36,0.04,
6297,-0.35,0.05,
6298,-0.33,0.055,
6299,-0.33,0.05,
6300,-0.34,0.04,
6301,-0.36,0.02,
6302,-0.355,0.03,
6303,-0.335,0.045,
6304,-0.315,0.065,
6305,-0.33,0.055,
6306,-0.34,0.03,
6307,-0.345,0.02,
6308,-0.34,0.035,
6309,-0.32,0.03,
6310,-0.31,0.045,
6311,-0.315,0.025,
6312,-0.32,0.015,
6313,-0.325,0.015,
6314,-0.33,0.025,
6315,-0.325,0.04,
6316,-0.315,0.05,
6317,-0.29,0.01,
6318,-0.26,-0.045,
6319,-0.255,-0.135,
6320,-0.23,-0.215,
6321,-0.17,-0.34,
6322,-0.11,-0.435,
6323,-0.04,-0.56,
6324,0.055,-0.695,
6325,0.12,-0.8,
6326,0.16,-0.885,
6327,0.195,-0.9,
6328,0.21,-0.865,
6329,0.165,-0.875,
6330,0.085,-0.925,
6331,-0.025,-0.935,
6332,-0.11,-0.915,
6333,-0.13,-0.87,
6334,-0.105,-0.805,
6335,-0.015,-0.78,
6336,0.085,-0.755,
6337,0.195,-0.745,
6338,0.345,-0.705,
6339,0.475,-0.665,
6340,0.58,-0.62,
6341,0.655,-0.59,
6342,0.64,-0.575,
6343,0.59,-0.545,L
6344,0.475,-0.485,
6345,0.375,-0.405,
6346,0.29,-0.34,
6347,0.195,-0.295,
6348,0.08,-0.24,
6349,-0.025,-0.2,
6350,-0.11,-0.125,
6351,-0.205,-0.045,
6352,-0.285,0.015,
6353,-0.375,0.06,
6354,-0.445,0.095,
6355,-0.5,0.115,
6356,-0.53,0.15,
6357,-0.515,0.165,
6358,-0.485,0.185,
6359,-0.445,0.18,
6360,-0.435,0.19,
6361,-0.425,0.195,
6362,-0.4,0.21,
6363,-0.405,0.23,
6364,-0.37,0.24,
6365,-0.375,0.24,
6366,-0.385,0.225,
6367,-0.4,0.21,
6368,-0.405,0.225,
6369,-0.385,0.26,
6370,-0.375,0.26,
6371,-0.365,0.25,
6372,-0.365,0.245,
6373,-0.38,0.24,
6374,-0.385,0.24,
6375,-0.375,0.27,
6376,-0.355,0.285,
6377,-0.35,0.28,
6378,-0.36,0.27,
6379,-0.37,0.255,
6380,-0.385,0.255,
6381,-0.38,0.275,
6382,-0.36,0.305,
6383,-0.34,0.285,
6384,-0.35,0.28,
6385,-0.355,0.275,
6386,-0.35,0.29,
6387,-0.34,0.3,
6388,-0.32,0.335,
6389,-0.325,0.325,
6390,-0.33,0.315,
6391,-0.33,0.32,
6392,-0.33,0.325,
6393,-0.305,0.345,
6394,-0.295,0.365,
6395,-0.275,0.355,
6396,-0.265,0.355,
6397,-0.28,0.35,
6398,-0.275,0.365,
6399,-0.255,0.375,
6400,-0.235,0.39,
6401,-0.22,0.395,
6402,-0.215,0.385,
6403,-0.22,0.375,
6404,-0.215,0.37,
6405,-0.205,0.385,
6406,-0.16,0.39,
6407,-0.145,0.395,
6408,-0.145,0.375,
6409,-0.14,0.36,
6410,-0.125,0.37,
6411,-0.11,0.37,
6412,-0.07,0.39,
6413,-0.055,0.385,
6414,-0.06,0.355,
6415,-0.045,0.34,
6416,-0.045,0.31,
6417,-0.025,0.315,
6418,0.0,0.305,
6419,0.02,0.285,
6420,0.015,0.25,
6421,0.025,0.215,
6422,0.03,0.205,
6423,0.055,0.175,
6424,0.07,0.18,
6425,0.105,0.15,
6426,0.11,0.11,
6427,0.105,0.1,
6428,0.105,0.08,
6429,0.11,0.09,
6430,0.125,0.09,
6431,0.13,0.08,
6432,0.105,0.055,
6433,0.08,0.045,
6434,0.065,0.03,
6435,0.06,0.05,
6436,0.045,0.065,
6437,0.03,0.05,
6438,-0.005,0.035,
6439,-0.045,0.025,
6440,-0.075,0.035,
6441,-0.095,0.045,
6442,-0.095,0.05,
6443,-0.1,0.05,
6444,-0.135,0.035,
6445,-0.15,0.025,
6446,-0.17,0.025,
6447,-0.175,0.035,
6448,-0.17,0.04,
6449,-0.18,0.05,
6450,-0.19,0.035,
6451,-0.215,0.02,
6452,-0.225,0.025,
6453,-0.22,0.035,
6454,-0.205,0.045,
6455,-0.2,0.04,
6456,-0.22,0.02,
6457,-0.23,0.025,
6458,-0.24,0.02,
6459,-0.23,0.045,
6460,-0.22,0.055,
6461,-0.215,0.04,
6462,-0.23,0.03,
6463,-0.245,0.02,
6464,-0.245,0.03,
6465,-0.235,0.05,
6466,-0.225,0.05,
6467,-0.21,0.045,
6468,-0.22,0.035,
6469,-0.235,0.02,
6470,-0.255,0.035,
6471,-0.23,0.045,
6472,-0.23,0.055,
6473,-0.215,0.045,
6474,-0.235,0.04,
6475,-0.245,0.03,
6476,-0.235,0.045,
6477,-0.24,0.05,
6478,-0.215,0.065,
6479,-0.205,0.065,
6480,-0.205,0.045,
6481,-0.22,0.04,
6482,-0.225,0.045,
6483,-0.215,0.06,
6484,-0.205,0.075,
6485,-0.2,0.065,
6486,-0.205,0.06,
6487,-0.215,0.025,
6488,-0.22,0.045,
6489,-0.21,0.07,
6490,-0.2,0.075,
6491,-0.19,0.06,
6492,-0.21,0.05,
6493,-0.22,0.04,
6494,-0.22,0.045,
6495,-0.215,0.065,
6496,-0.195,0.07,
6497,-0.195,0.06,
6498,-0.205,0.035,
6499,-0.225,0.05,
6500,-0.23,0.04,
6501,-0.21,0.055,
6502,-0.205,0.07,
6503,-0.195,0.065,
6504,-0.2,0.05,
6505,-0.23,0.05,
6506,-0.23,0.04,
6507,-0.215,0.05,
6508,-0.205,0.07,
6509,-0.2,0.06,
6510,-0.205,0.05,
6511,-0.225,0.04,
6512,-0.23,0.035,
6513,-0.22,0.055,
6514,-0.2,0.065,
6515,-0.21,0.055,
6516,-0.22,0.05,
6517,-0.235,0.03,
6518,-0.225,0.035,
6519,-0.235,0.04,
6520,-0.215,0.055,
6521,-0.215,0.05,
6522,-0.22,0.05,
6523,-0.225,0.03,
6524,-0.235,0.035,
6525,-0.24,0.04,
6526,-0.22,0.065,
6527,-0.225,0.05,
6528,-0.21,0.04,
6529,-0.22,0.05,
6530,-0.235,0.06,
6531,-0.235,0.065,
6532,-0.21,0.09,
6533,-0.21,0.09,
6534,-0.215,0.1,
6535,-0.22,0.075,
6536,-0.225,0.08,
6537,-0.22,0.095,
6538,-0.18,0.105,
6539,-0.165,0.115,
6540,-0.175,0.1,
6541,-0.18,0.095,
6542,-0.185,0.095,
6543,-0.19,0.105,
6544,-0.185,0.085,
6545,-0.155,0.065,
6546,-0.16,0.05,
6547,-0.165,0.03,
6548,-0.16,0.04,
6549,-0.15,0.05,
6550,-0.12,0.045,
6551,-0.12,0.025,
6552,-0.125,0.005,
6553,-0.165,-0.01,
6554,-0.165,-0.005,
6555,-0.155,0.005,
6556,-0.15,0.01,
6557,-0.15,0.005,
6558,-0.17,-0.015,
6559,-0.185,-0.015,
6560,-0.2,-0.01,
6561,-0.19,-0.01,
6562,-0.185,0.0,
6563,-0.185,-0.025,
6564,-0.195,-0.02,
6565,-0.215,-0.025,
6566,-0.235,-0.03,
6567,-0.22,-0.01,
6568,-0.21,0.01,
6569,-0.205,0.01,
6570,-0.225,0.015,
6571,-0.225,0.02,
6572,-0.25,0.03,
6573,-0.25,0.035,
6574,-0.235,0.05,
6575,-0.25,0.045,
6576,-0.24,0.015,
6577,-0.26,0.025,
6578,-0.27,0.02,
6579,-0.255,0.05,
6580,-0.245,0.055,
6581,-0.245,0.055,
6582,-0.26,0.04,
6583,-0.27,0.035,
6584,-0.275,0.03,
6585,-0.265,0.04,
6586,-0.245,0.05,
6587,-0.245,0.04,
6588,-0.255,0.04,
6589,-0.27,0.02,
6590,-0.275,0.035,
6591,-0.27,0.05,
6592,-0.25,0.06,
6593,-0.24,0.05,
6594,-0.255,0.035,
6595,-0.27,0.02,
6596,-0.285,0.02,
6597,-0.265,0.035,
6598,-0.245,0.045,
6599,-0.255,0.045,
6600,-0.25,0.02,
6601,-0.275,0.025,
6602,-0.27,0.02,
6603,-0.26,0.035,
6604,-0.25,0.05,
6605,-0.245,0.05,
6606,-0.245,0.02,
6607,-0.265,0.01,
6608,-0.27,0.015,
6609,-0.255,0.03,
6610,-0.23,0.035,
6611,-0.225,0.03,
6612,-0.23,0.015,
6613,-0.225,-0.035,
6614,-0.21,-0.095,
6615,-0.18,-0.195,
6616,-0.135,-0.32,
6617,-0.1,-0.465,
6618,-0.05,-0.61,
6619,0.005,-0.75,
6620,0.06,-0.83,
6621,0.145,-0.875,
6622,0.2,-0.88,
6623,0.23,-0.88,
6624,0.2,-0.87,
6625,0.14,-0.91,
6626,0.07,-0.925,
6627,0.005,-0.905,
6628,0.005,-0.85,
6629,0.025,-0.815,
6630,0.095,-0.795,
6631,0.185,-0.765,
6632,0.325,-0.73,
6633,0.47,-0.7,
6634,0.605,-0.67,
6635,0.72,-0.66,
6636,0.77,-0.65,
6637,0.765,-0.635,
6638,0.695,-0.6,L
6639,0.585,-0.515,
6640,0.495,-0.445,
6641,0.415,-0.39,
6642,0.32,-0.345,
6643,0.205,-0.295,
6644,0.075,-0.245,
6645,-0.035,-0.165,
6646,-0.15,-0.085,
6647,-0.265,-0.025,
6648,-0.36,0.04,
6649,-0.445,0.065,
6650,-0.495,0.115,
6651,-0.515,0.16,
6652,-0.48,0.185,
6653,-0.445,0.19,
6654,-0.41,0.175,
6655,-0.38,0.18,
6656,-0.355,0.2,
6657,-0.34,0.215,
6658,-0.31,0.24,
6659,-0.31,0.235,
6660,-0.31,0.225,
6661,-0.33,0.215,
6662,-0.325,0.225,
6663,-0.32,0.245,
6664,-0.31,0.25,
6665,-0.295,0.255,
6666,-0.305,0.25,
6667,-0.315,0.235,
6668,-0.315,0.25,
6669,-0.31,0.26,
6670,-0.305,0.27,
6671,-0.295,0.275,
6672,-0.285,0.27,
6673,-0.31,0.26,
6674,-0.305,0.27,
6675,-0.29,0.285,
6676,-0.295,0.305,
6677,-0.275,0.3,
6678,-0.275,0.29,
6679,-0.285,0.29,
6680,-0.295,0.315,
6681,-0.275,0.325,
6682,-0.28,0.345,
6683,-0.26,0.34,
6684,-0.275,0.335,
6685,-0.26,0.33,
6686,-0.26,0.34,
6687,-0.255,0.355,
6688,-0.225,0.375,
6689,-0.22,0.375,
6690,-0.22,0.36,
6691,-0.22,0.365,
6692,-0.22,0.385,
6693,-0.205,0.395,
6694,-0.19,0.415,
6695,-0.175,0.41,
6696,-0.17,0.395,
6697,-0.18,0.395,
6698,-0.185,0.395,
6699,-0.165,0.415,
6700,-0.135,0.435,
6701,-0.11,0.415,
6702,-0.11,0.41,
6703,-0.115,0.4,
6704,-0.1,0.405,
6705,-0.085,0.42,
6706,-0.075,0.415,
6707,-0.05,0.385,
6708,-0.04,0.355,
6709,-0.03,0.345,
6710,-0.025,0.325,
6711,-0.015,0.325,
6712,0.005,0.32,
6713,0.025,0.265,
6714,0.04,0.24,
6715,0.035,0.21,
6716,0.05,0.19,
6717,0.06,0.175,
6718,0.085,0.17,
6719,0.11,0.14,
6720,0.115,0.11,
6721,0.12,0.085,
6722,0.125,0.08,
6723,0.145,0.09,
6724,0.145,0.09,
6725,0.14,0.08,
6726,0.115,0.07,
6727,0.1,0.05,
6728,0.07,0.05,
6729,0.05,0.07,
6730,0.045,0.08,
6731,0.025,0.075,
6732,-0.005,0.045,
6733,-0.05,0.04,
6734,-0.085,0.04,
6735,-0.075,0.06,
6736,-0.075,0.06,
6737,-0.1,0.055,
6738,-0.105,0.04,
6739,-0.15,0.04,
6740,-0.155,0.04,
6741,-0.155,0.05,
6742,-0.145,0.055,
6743,-0.165,0.065,
6744,-0.175,0.045,
6745,-0.185,0.025,
6746,-0.205,0.035,
6747,-0.2,0.045,
6748,-0.2,0.065,
6749,-0.19,0.04,
6750,-0.2,0.025,
6751,-0.21,0.025,
6752,-0.22,0.04,
6753,-0.225,0.04,
6754,-0.2,0.065,
6755,-0.19,0.055,
6756,-0.205,0.045,
6757,-0.2,0.05,
6758,-0.22,0.055,
6759,-0.21,0.065,
6760,-0.205,0.07,
