,MLII,V1,symbol
0,-0.75,-0.62,
1,-0.75,-0.62,
2,-0.75,-0.62,
3,-0.75,-0.62,
4,-0.75,-0.62,
5,-0.75,-0.62,
6,-0.75,-0.62,
7,-0.76,-0.62,
8,-0.77,-0.63,
9,-0.775,-0.615,
10,-0.775,-0.62,
11,-0.785,-0.605,
12,-0.78,-0.595,
13,-0.76,-0.595,
14,-0.77,-0.59,
15,-0.77,-0.585,+
16,-0.77,-0.595,
17,-0.78,-0.615,
18,-0.78,-0.615,
19,-0.79,-0.62,
20,-0.79,-0.625,
21,-0.8,-0.635,
22,-0.795,-0.625,
23,-0.795,-0.615,
24,-0.785,-0.61,
25,-0.785,-0.61,
26,-0.765,-0.595,
27,-0.78,-0.62,
28,-0.795,-0.63,
29,-0.79,-0.625,
30,-0.8,-0.63,
31,-0.82,-0.64,
32,-0.81,-0.645,
33,-0.815,-0.635,
34,-0.805,-0.635,
35,-0.795,-0.63,
36,-0.8,-0.62,
37,-0.79,-0.61,
38,-0.785,-0.605,
39,-0.775,-0.6,
40,-0.77,-0.6,
41,-0.795,-0.615,
42,-0.805,-0.625,
43,-0.79,-0.64,
44,-0.8,-0.62,
45,-0.795,-0.64,
46,-0.785,-0.62,
47,-0.795,-0.605,
48,-0.78,-0.61,
49,-0.755,-0.6,
50,-0.75,-0.605,
51,-0.745,-0.61,
52,-0.74,-0.62,
53,-0.73,-0.62,
54,-0.715,-0.635,
55,-0.71,-0.625,
56,-0.71,-0.62,
57,-0.72,-0.615,
58,-0.715,-0.625,
59,-0.72,-0.61,
60,-0.69,-0.615,
61,-0.685,-0.6,
62,-0.68,-0.605,
63,-0.675,-0.61,
64,-0.68,-0.625,
65,-0.66,-0.625,
66,-0.67,-0.635,
67,-0.67,-0.635,
68,-0.675,-0.655,
69,-0.69,-0.645,
70,-0.71,-0.65,
71,-0.71,-0.635,
72,-0.72,-0.625,
73,-0.74,-0.64,
74,-0.735,-0.625,
75,-0.75,-0.635,
76,-0.75,-0.645,
77,-0.745,-0.67,
78,-0.75,-0.675,
79,-0.76,-0.67,
80,-0.78,-0.68,
81,-0.8,-0.685,
82,-0.82,-0.67,
83,-0.83,-0.65,
84,-0.825,-0.625,
85,-0.83,-0.605,
86,-0.83,-0.6,
87,-0.84,-0.59,
88,-0.845,-0.59,
89,-0.845,-0.605,
90,-0.865,-0.615,
91,-0.865,-0.63,
92,-0.86,-0.65,
93,-0.87,-0.635,
94,-0.865,-0.635,
95,-0.87,-0.62,
96,-0.85,-0.62,
97,-0.86,-0.61,
98,-0.855,-0.6,
99,-0.845,-0.615,
100,-0.845,-0.61,
101,-0.845,-0.61,
102,-0.86,-0.625,
103,-0.855,-0.64,
104,-0.865,-0.635,
105,-0.865,-0.635,
106,-0.86,-0.63,
107,-0.86,-0.625,
108,-0.86,-0.61,
109,-0.855,-0.59,
110,-0.845,-0.595,
111,-0.845,-0.59,
112,-0.83,-0.59,
113,-0.835,-0.6,
114,-0.835,-0.605,
115,-0.83,-0.61,
116,-0.8,-0.61,
117,-0.76,-0.62,
118,-0.69,-0.61,
119,-0.6,-0.605,
120,-0.475,-0.625,
121,-0.345,-0.645,
122,-0.22,-0.665,
123,-0.125,-0.69,
124,-0.045,-0.72,N
125,-0.045,-0.74,
126,-0.145,-0.77,
127,-0.29,-0.79,
128,-0.445,-0.81,
129,-0.64,-0.815,
130,-0.845,-0.8,
131,-1.03,-0.735,
132,-1.15,-0.65,
133,-1.19,-0.545,
134,-1.175,-0.425,
135,-1.155,-0.345,
136,-1.11,-0.315,
137,-1.085,-0.35,
138,-1.06,-0.42,
139,-1.04,-0.505,
140,-1.025,-0.585,
141,-1.025,-0.605,
142,-1.0,-0.62,
143,-0.975,-0.615,
144,-0.96,-0.62,
145,-0.955,-0.615,
146,-0.945,-0.6,
147,-0.94,-0.615,
148,-0.945,-0.615,
149,-0.96,-0.62,
150,-0.96,-0.63,
151,-0.965,-0.635,
152,-0.98,-0.64,
153,-0.98,-0.64,
154,-0.97,-0.625,
155,-0.97,-0.62,
156,-0.97,-0.62,
157,-0.955,-0.625,
158,-0.95,-0.615,
159,-0.955,-0.615,
160,-0.945,-0.62,
161,-0.955,-0.635,
162,-0.965,-0.645,
163,-0.965,-0.655,
164,-0.97,-0.655,
165,-0.975,-0.655,
166,-0.975,-0.635,
167,-0.98,-0.64,
168,-0.965,-0.63,
169,-0.965,-0.62,
170,-0.975,-0.625,
171,-0.98,-0.625,
172,-0.975,-0.635,
173,-0.975,-0.64,
174,-0.98,-0.65,
175,-0.99,-0.655,
176,-0.995,-0.65,
177,-1.0,-0.66,
178,-1.015,-0.66,
179,-1.01,-0.64,
180,-1.01,-0.645,
181,-1.01,-0.64,
182,-0.99,-0.63,
183,-0.99,-0.64,
184,-0.99,-0.64,
185,-1.01,-0.655,
186,-1.02,-0.665,
187,-1.03,-0.665,
188,-1.035,-0.67,
189,-1.045,-0.67,
190,-1.04,-0.67,
191,-1.04,-0.66,
192,-1.04,-0.665,
193,-1.035,-0.66,
194,-1.03,-0.655,
195,-1.025,-0.655,
196,-1.04,-0.66,
197,-1.04,-0.675,
198,-1.05,-0.685,
199,-1.06,-0.68,
200,-1.065,-0.685,
201,-1.08,-0.685,
202,-1.07,-0.685,
203,-1.07,-0.675,
204,-1.07,-0.665,
205,-1.055,-0.655,
206,-1.06,-0.655,
207,-1.06,-0.65,
208,-1.06,-0.65,
209,-1.06,-0.655,
210,-1.07,-0.67,
211,-1.07,-0.685,
212,-1.075,-0.685,
213,-1.065,-0.68,
214,-1.065,-0.68,
215,-1.065,-0.675,
216,-1.055,-0.675,
217,-1.055,-0.66,
218,-1.045,-0.665,
219,-1.04,-0.68,
220,-1.03,-0.68,
221,-1.015,-0.68,
222,-1.025,-0.68,
223,-1.01,-0.685,
224,-1.02,-0.705,
225,-1.005,-0.705,
226,-1.0,-0.705,
227,-0.965,-0.68,
228,-0.945,-0.685,
229,-0.915,-0.675,
230,-0.895,-0.685,
231,-0.875,-0.685,
232,-0.855,-0.69,
233,-0.84,-0.7,
234,-0.825,-0.705,
235,-0.805,-0.705,
236,-0.8,-0.715,
237,-0.785,-0.71,
238,-0.775,-0.7,
239,-0.755,-0.69,
240,-0.74,-0.675,
241,-0.72,-0.675,
242,-0.71,-0.675,
243,-0.7,-0.655,
244,-0.69,-0.665,
245,-0.695,-0.67,
246,-0.705,-0.685,
247,-0.71,-0.685,
248,-0.72,-0.685,
249,-0.705,-0.67,
250,-0.715,-0.66,
251,-0.71,-0.655,
252,-0.71,-0.63,
253,-0.715,-0.625,
254,-0.715,-0.625,
255,-0.71,-0.63,
256,-0.72,-0.625,
257,-0.715,-0.63,
258,-0.73,-0.635,
259,-0.74,-0.65,
260,-0.76,-0.665,
261,-0.745,-0.66,
262,-0.75,-0.66,
263,-0.765,-0.645,
264,-0.75,-0.635,
265,-0.745,-0.635,
266,-0.745,-0.63,
267,-0.745,-0.63,
268,-0.755,-0.64,
269,-0.765,-0.65,
270,-0.775,-0.64,
271,-0.77,-0.65,
272,-0.79,-0.655,
273,-0.79,-0.66,
274,-0.795,-0.635,
275,-0.785,-0.645,
276,-0.785,-0.63,
277,-0.79,-0.635,
278,-0.79,-0.62,
279,-0.79,-0.625,
280,-0.77,-0.635,
281,-0.79,-0.64,
282,-0.795,-0.645,
283,-0.8,-0.655,
284,-0.795,-0.66,
285,-0.8,-0.665,
286,-0.805,-0.665,
287,-0.795,-0.66,
288,-0.795,-0.65,
289,-0.79,-0.645,
290,-0.78,-0.645,
291,-0.79,-0.65,
292,-0.785,-0.655,
293,-0.795,-0.66,
294,-0.79,-0.675,
295,-0.805,-0.68,
296,-0.825,-0.685,
297,-0.82,-0.675,
298,-0.81,-0.67,
299,-0.805,-0.665,
300,-0.795,-0.66,
301,-0.785,-0.655,
302,-0.78,-0.635,
303,-0.78,-0.645,
304,-0.785,-0.645,
305,-0.79,-0.64,
306,-0.79,-0.66,
307,-0.805,-0.665,
308,-0.815,-0.675,
309,-0.81,-0.665,
310,-0.8,-0.655,
311,-0.79,-0.645,
312,-0.78,-0.645,
313,-0.76,-0.64,
314,-0.75,-0.63,
315,-0.745,-0.635,
316,-0.735,-0.625,
317,-0.72,-0.63,
318,-0.71,-0.635,
319,-0.71,-0.66,
320,-0.715,-0.65,
321,-0.705,-0.645,
322,-0.71,-0.645,
323,-0.71,-0.645,
324,-0.705,-0.635,
325,-0.695,-0.63,
326,-0.675,-0.625,
327,-0.67,-0.645,
328,-0.66,-0.635,
329,-0.655,-0.655,
330,-0.655,-0.655,
331,-0.67,-0.665,
332,-0.685,-0.68,
333,-0.71,-0.685,
334,-0.72,-0.68,
335,-0.75,-0.68,
336,-0.745,-0.67,
337,-0.745,-0.66,
338,-0.74,-0.67,
339,-0.745,-0.67,
340,-0.745,-0.68,
341,-0.755,-0.675,
342,-0.78,-0.7,
343,-0.8,-0.7,
344,-0.83,-0.705,
345,-0.845,-0.69,
346,-0.84,-0.67,
347,-0.85,-0.655,
348,-0.85,-0.625,
349,-0.85,-0.62,
350,-0.84,-0.615,
351,-0.84,-0.62,
352,-0.855,-0.635,
353,-0.85,-0.63,
354,-0.87,-0.645,
355,-0.865,-0.66,
356,-0.875,-0.67,
357,-0.875,-0.65,
358,-0.865,-0.65,
359,-0.875,-0.645,
360,-0.86,-0.645,
361,-0.86,-0.635,
362,-0.855,-0.64,
363,-0.855,-0.635,
364,-0.86,-0.625,
365,-0.855,-0.64,
366,-0.86,-0.65,
367,-0.86,-0.645,
368,-0.87,-0.655,
369,-0.865,-0.65,
370,-0.845,-0.645,
371,-0.855,-0.63,
372,-0.835,-0.62,
373,-0.8,-0.605,
374,-0.76,-0.6,
375,-0.705,-0.615,
376,-0.625,-0.62,
377,-0.53,-0.645,
378,-0.415,-0.66,
379,-0.295,-0.705,
380,-0.19,-0.73,
381,-0.105,-0.755,
382,-0.055,-0.76,N
383,-0.095,-0.765,
384,-0.185,-0.775,
385,-0.31,-0.795,
386,-0.43,-0.8,
387,-0.575,-0.805,
388,-0.725,-0.8,
389,-0.89,-0.79,
390,-1.05,-0.755,
391,-1.16,-0.685,
392,-1.21,-0.6,
393,-1.195,-0.495,
394,-1.16,-0.405,
395,-1.125,-0.345,
396,-1.095,-0.335,
397,-1.085,-0.395,
398,-1.055,-0.455,
399,-1.035,-0.525,
400,-1.02,-0.59,
401,-1.005,-0.615,
402,-0.99,-0.625,
403,-0.98,-0.64,
404,-0.975,-0.645,
405,-0.975,-0.65,
406,-0.965,-0.65,
407,-0.975,-0.65,
408,-0.965,-0.64,
409,-0.955,-0.63,
410,-0.96,-0.62,
411,-0.955,-0.63,
412,-0.955,-0.635,
413,-0.965,-0.645,
414,-0.98,-0.645,
415,-0.98,-0.665,
416,-0.985,-0.665,
417,-0.985,-0.66,
418,-0.99,-0.66,
419,-0.98,-0.645,
420,-0.985,-0.65,
421,-0.985,-0.66,
422,-0.98,-0.64,
423,-0.96,-0.65,
424,-0.975,-0.65,
425,-0.98,-0.655,
426,-0.985,-0.655,
427,-0.995,-0.665,
428,-1.0,-0.66,
429,-1.01,-0.66,
430,-1.005,-0.655,
431,-1.01,-0.645,
432,-1.0,-0.65,
433,-1.005,-0.63,
434,-1.005,-0.64,
435,-1.0,-0.645,
436,-1.005,-0.64,
437,-1.01,-0.64,
438,-1.025,-0.665,
439,-1.03,-0.675,
440,-1.035,-0.675,
441,-1.04,-0.675,
442,-1.045,-0.67,
443,-1.055,-0.65,
444,-1.045,-0.655,
445,-1.03,-0.64,
446,-1.03,-0.645,
447,-1.03,-0.655,
448,-1.04,-0.665,
449,-1.045,-0.665,
450,-1.055,-0.68,
451,-1.07,-0.69,
452,-1.09,-0.695,
453,-1.085,-0.695,
454,-1.095,-0.7,
455,-1.095,-0.685,
456,-1.085,-0.695,
457,-1.085,-0.67,
458,-1.075,-0.66,
459,-1.075,-0.67,
460,-1.075,-0.67,
461,-1.08,-0.685,
462,-1.1,-0.7,
463,-1.1,-0.69,
464,-1.095,-0.695,
465,-1.105,-0.69,
466,-1.105,-0.685,
467,-1.115,-0.69,
468,-1.1,-0.675,
469,-1.1,-0.67,
470,-1.09,-0.665,
471,-1.09,-0.67,
472,-1.075,-0.68,
473,-1.075,-0.685,
474,-1.08,-0.705,
475,-1.085,-0.7,
476,-1.08,-0.71,
477,-1.08,-0.7,
478,-1.08,-0.705,
479,-1.065,-0.7,
480,-1.06,-0.695,
481,-1.04,-0.685,
482,-1.045,-0.68,
483,-1.02,-0.68,
484,-1.01,-0.675,
485,-0.985,-0.695,
486,-0.985,-0.71,
487,-0.975,-0.735,
488,-0.965,-0.725,
489,-0.95,-0.73,
490,-0.925,-0.72,
491,-0.915,-0.705,
492,-0.875,-0.71,
493,-0.86,-0.705,
494,-0.83,-0.695,
495,-0.805,-0.695,
496,-0.785,-0.705,
497,-0.78,-0.71,
498,-0.765,-0.71,
499,-0.765,-0.71,
500,-0.77,-0.71,
501,-0.765,-0.71,
502,-0.75,-0.705,
503,-0.745,-0.695,
504,-0.735,-0.67,
505,-0.735,-0.665,
506,-0.73,-0.65,
507,-0.73,-0.655,
508,-0.73,-0.665,
509,-0.74,-0.66,
510,-0.755,-0.67,
511,-0.765,-0.685,
512,-0.775,-0.67,
513,-0.78,-0.685,
514,-0.77,-0.675,
515,-0.775,-0.67,
516,-0.775,-0.66,
517,-0.77,-0.66,
518,-0.77,-0.645,
519,-0.775,-0.66,
520,-0.79,-0.66,
521,-0.79,-0.655,
522,-0.805,-0.67,
523,-0.805,-0.665,
524,-0.81,-0.685,
525,-0.815,-0.675,
526,-0.815,-0.665,
527,-0.815,-0.66,
528,-0.81,-0.65,
529,-0.8,-0.655,
530,-0.795,-0.635,
531,-0.805,-0.645,
532,-0.8,-0.65,
533,-0.815,-0.665,
534,-0.825,-0.66,
535,-0.835,-0.66,
536,-0.83,-0.665,
537,-0.845,-0.68,
538,-0.845,-0.675,
539,-0.835,-0.665,
540,-0.835,-0.655,
541,-0.835,-0.64,
542,-0.83,-0.65,
543,-0.84,-0.645,
544,-0.825,-0.65,
545,-0.82,-0.66,
546,-0.825,-0.675,
547,-0.825,-0.675,
548,-0.84,-0.68,
549,-0.845,-0.685,
550,-0.855,-0.69,
551,-0.855,-0.68,
552,-0.835,-0.68,
553,-0.83,-0.665,
554,-0.84,-0.675,
555,-0.825,-0.675,
556,-0.83,-0.665,
557,-0.83,-0.67,
558,-0.835,-0.68,
559,-0.84,-0.675,
560,-0.84,-0.68,
561,-0.84,-0.685,
562,-0.845,-0.685,
563,-0.855,-0.67,
564,-0.84,-0.675,
565,-0.835,-0.67,
566,-0.825,-0.66,
567,-0.82,-0.66,
568,-0.82,-0.67,
569,-0.83,-0.665,
570,-0.815,-0.67,
571,-0.82,-0.69,
572,-0.825,-0.69,
573,-0.815,-0.685,
574,-0.81,-0.675,
575,-0.79,-0.675,
576,-0.785,-0.66,
577,-0.76,-0.64,
578,-0.745,-0.635,
579,-0.735,-0.63,
580,-0.73,-0.65,
581,-0.73,-0.65,
582,-0.75,-0.66,
583,-0.745,-0.675,
584,-0.75,-0.68,
585,-0.755,-0.675,
586,-0.74,-0.685,
587,-0.735,-0.665,
588,-0.72,-0.665,
589,-0.72,-0.665,
590,-0.7,-0.655,
591,-0.7,-0.66,
592,-0.72,-0.675,
593,-0.755,-0.69,
594,-0.77,-0.685,
595,-0.79,-0.695,
596,-0.81,-0.71,
597,-0.825,-0.71,
598,-0.825,-0.705,
599,-0.815,-0.695,
600,-0.8,-0.705,
601,-0.81,-0.695,
602,-0.815,-0.695,
603,-0.835,-0.705,
604,-0.845,-0.7,
605,-0.865,-0.685,
606,-0.87,-0.675,
607,-0.89,-0.665,
608,-0.895,-0.67,
609,-0.905,-0.65,
610,-0.905,-0.645,
611,-0.9,-0.65,
612,-0.905,-0.645,
613,-0.9,-0.645,
614,-0.905,-0.635,
615,-0.895,-0.645,
616,-0.895,-0.65,
617,-0.905,-0.66,
618,-0.92,-0.665,
619,-0.915,-0.67,
620,-0.915,-0.68,
621,-0.93,-0.68,
622,-0.93,-0.685,
623,-0.91,-0.66,
624,-0.93,-0.645,
625,-0.895,-0.65,
626,-0.91,-0.64,
627,-0.89,-0.635,
628,-0.88,-0.63,
629,-0.9,-0.64,
630,-0.905,-0.655,
631,-0.895,-0.65,
632,-0.895,-0.65,
633,-0.895,-0.64,
634,-0.895,-0.63,
635,-0.89,-0.625,
636,-0.87,-0.62,
637,-0.83,-0.615,
638,-0.765,-0.605,
639,-0.695,-0.625,
640,-0.605,-0.63,
641,-0.49,-0.675,
642,-0.365,-0.705,
643,-0.24,-0.735,
644,-0.145,-0.765,N
645,-0.105,-0.785,
646,-0.15,-0.8,
647,-0.265,-0.81,
648,-0.41,-0.825,
649,-0.565,-0.82,
650,-0.755,-0.815,
651,-0.945,-0.79,
652,-1.12,-0.745,
653,-1.245,-0.665,
654,-1.27,-0.575,
655,-1.255,-0.465,
656,-1.225,-0.39,
657,-1.195,-0.365,
658,-1.15,-0.39,
659,-1.135,-0.45,
660,-1.115,-0.51,
661,-1.09,-0.565,
662,-1.06,-0.595,
663,-1.045,-0.62,
664,-1.025,-0.63,
665,-1.02,-0.645,
666,-1.0,-0.655,
667,-1.005,-0.66,
668,-1.005,-0.655,
669,-1.01,-0.66,
670,-1.015,-0.66,
671,-1.02,-0.655,
672,-1.015,-0.655,
673,-1.015,-0.645,
674,-1.005,-0.64,
675,-0.995,-0.635,
676,-1.005,-0.65,
677,-1.005,-0.665,
678,-1.015,-0.675,
679,-1.025,-0.67,
680,-1.04,-0.675,
681,-1.04,-0.675,
682,-1.04,-0.68,
683,-1.04,-0.67,
684,-1.04,-0.655,
685,-1.035,-0.65,
686,-1.035,-0.635,
687,-1.015,-0.645,
688,-1.02,-0.66,
689,-1.025,-0.65,
690,-1.045,-0.665,
691,-1.055,-0.66,
692,-1.06,-0.675,
693,-1.07,-0.68,
694,-1.065,-0.67,
695,-1.055,-0.665,
696,-1.05,-0.665,
697,-1.04,-0.655,
698,-1.04,-0.645,
699,-1.045,-0.64,
700,-1.045,-0.655,
701,-1.05,-0.655,
702,-1.07,-0.66,
703,-1.075,-0.67,
704,-1.08,-0.685,
705,-1.09,-0.69,
706,-1.095,-0.68,
707,-1.095,-0.67,
708,-1.085,-0.655,
709,-1.08,-0.655,
710,-1.085,-0.645,
711,-1.065,-0.66,
712,-1.08,-0.68,
713,-1.085,-0.685,
714,-1.11,-0.68,
715,-1.11,-0.69,
716,-1.125,-0.705,
717,-1.135,-0.705,
718,-1.13,-0.705,
719,-1.14,-0.7,
720,-1.14,-0.685,
721,-1.13,-0.68,
722,-1.135,-0.67,
723,-1.12,-0.68,
724,-1.12,-0.685,
725,-1.125,-0.695,
726,-1.125,-0.705,
727,-1.135,-0.715,
728,-1.14,-0.725,
729,-1.14,-0.725,
730,-1.135,-0.71,
731,-1.13,-0.705,
732,-1.12,-0.695,
733,-1.115,-0.695,
734,-1.11,-0.69,
735,-1.09,-0.685,
736,-1.105,-0.685,
737,-1.095,-0.7,
738,-1.095,-0.72,
739,-1.08,-0.725,
740,-1.065,-0.73,
741,-1.065,-0.73,
742,-1.035,-0.735,
743,-1.015,-0.735,
744,-0.985,-0.725,
745,-0.965,-0.715,
746,-0.94,-0.705,
747,-0.92,-0.715,
748,-0.905,-0.725,
749,-0.88,-0.73,
750,-0.875,-0.735,
751,-0.86,-0.74,
752,-0.85,-0.74,
753,-0.84,-0.74,
754,-0.825,-0.73,
755,-0.81,-0.725,
756,-0.795,-0.705,
757,-0.785,-0.7,
758,-0.765,-0.685,
759,-0.775,-0.69,
760,-0.77,-0.685,
761,-0.78,-0.69,
762,-0.765,-0.695,
763,-0.78,-0.695,
764,-0.78,-0.7,
765,-0.79,-0.7,
766,-0.8,-0.685,
767,-0.785,-0.69,
768,-0.785,-0.675,
769,-0.795,-0.67,
770,-0.79,-0.66,
771,-0.785,-0.665,
772,-0.795,-0.665,
773,-0.795,-0.675,
774,-0.81,-0.68,
775,-0.815,-0.68,
776,-0.84,-0.69,
777,-0.845,-0.675,
778,-0.84,-0.68,
779,-0.845,-0.665,
780,-0.845,-0.67,
781,-0.835,-0.66,
782,-0.84,-0.645,
783,-0.83,-0.665,
784,-0.835,-0.66,
785,-0.845,-0.67,
786,-0.85,-0.655,
787,-0.855,-0.67,
788,-0.875,-0.685,
789,-0.875,-0.69,
790,-0.875,-0.685,
791,-0.86,-0.68,
792,-0.875,-0.67,
793,-0.85,-0.665,
794,-0.86,-0.65,
795,-0.86,-0.655,
796,-0.87,-0.67,
797,-0.875,-0.685,
798,-0.885,-0.69,
799,-0.89,-0.69,
800,-0.895,-0.695,
801,-0.905,-0.705,
802,-0.895,-0.695,
803,-0.89,-0.695,
804,-0.88,-0.685,
805,-0.865,-0.68,
806,-0.87,-0.675,
807,-0.865,-0.665,
808,-0.865,-0.69,
809,-0.865,-0.7,
810,-0.875,-0.71,
811,-0.88,-0.7,
812,-0.895,-0.695,
813,-0.895,-0.71,
814,-0.885,-0.7,
815,-0.89,-0.69,
816,-0.88,-0.685,
817,-0.87,-0.68,
818,-0.875,-0.67,
819,-0.87,-0.67,
820,-0.87,-0.665,
821,-0.855,-0.69,
822,-0.855,-0.7,
823,-0.855,-0.68,
824,-0.86,-0.695,
825,-0.85,-0.71,
826,-0.845,-0.69,
827,-0.83,-0.68,
828,-0.815,-0.665,
829,-0.8,-0.66,
830,-0.78,-0.645,
831,-0.77,-0.64,
832,-0.775,-0.655,
833,-0.765,-0.655,
834,-0.77,-0.66,
835,-0.78,-0.675,
836,-0.79,-0.695,
837,-0.79,-0.685,
838,-0.78,-0.695,
839,-0.77,-0.68,
840,-0.755,-0.695,
841,-0.75,-0.68,
842,-0.745,-0.68,
843,-0.735,-0.68,
844,-0.765,-0.685,
845,-0.79,-0.705,
846,-0.815,-0.705,
847,-0.83,-0.71,
848,-0.84,-0.715,
849,-0.845,-0.73,
850,-0.83,-0.725,
851,-0.84,-0.72,
852,-0.84,-0.72,
853,-0.845,-0.7,
854,-0.87,-0.69,
855,-0.885,-0.69,
856,-0.895,-0.68,
857,-0.905,-0.665,
858,-0.92,-0.67,
859,-0.925,-0.66,
860,-0.95,-0.67,
861,-0.96,-0.68,
862,-0.945,-0.675,
863,-0.955,-0.68,
864,-0.945,-0.68,
865,-0.935,-0.675,
866,-0.915,-0.655,
867,-0.915,-0.65,
868,-0.92,-0.665,
869,-0.925,-0.67,
870,-0.93,-0.67,
871,-0.935,-0.68,
872,-0.955,-0.695,
873,-0.95,-0.7,
874,-0.945,-0.685,
875,-0.935,-0.675,
876,-0.935,-0.665,
877,-0.915,-0.66,
878,-0.905,-0.645,
879,-0.9,-0.635,
880,-0.9,-0.65,
881,-0.91,-0.64,
882,-0.905,-0.65,
883,-0.9,-0.65,
884,-0.875,-0.655,
885,-0.84,-0.665,
886,-0.76,-0.655,
887,-0.67,-0.68,
888,-0.555,-0.68,
889,-0.415,-0.695,
890,-0.285,-0.71,
891,-0.18,-0.735,
892,-0.115,-0.77,N
893,-0.12,-0.78,
894,-0.2,-0.805,
895,-0.32,-0.825,
896,-0.475,-0.845,
897,-0.615,-0.855,
898,-0.765,-0.85,
899,-0.93,-0.82,
900,-1.09,-0.78,
901,-1.19,-0.705,
902,-1.225,-0.625,
903,-1.22,-0.505,
904,-1.205,-0.415,
905,-1.175,-0.36,
906,-1.165,-0.375,
907,-1.14,-0.415,
908,-1.145,-0.48,
909,-1.125,-0.555,
910,-1.115,-0.615,
911,-1.085,-0.635,
912,-1.065,-0.645,
913,-1.035,-0.64,
914,-1.015,-0.64,
915,-1.015,-0.655,
916,-1.01,-0.66,
917,-1.01,-0.66,
918,-1.015,-0.675,
919,-1.025,-0.68,
920,-1.04,-0.685,
921,-1.04,-0.685,
922,-1.05,-0.695,
923,-1.045,-0.68,
924,-1.02,-0.675,
925,-1.01,-0.67,
926,-1.015,-0.66,
927,-1.0,-0.67,
928,-1.005,-0.66,
929,-1.01,-0.68,
930,-1.02,-0.685,
931,-1.025,-0.7,
932,-1.03,-0.72,
933,-1.04,-0.71,
934,-1.04,-0.71,
935,-1.03,-0.715,
936,-1.03,-0.695,
937,-1.03,-0.68,
938,-1.03,-0.675,
939,-1.03,-0.675,
940,-1.035,-0.675,
941,-1.05,-0.685,
942,-1.045,-0.695,
943,-1.065,-0.695,
944,-1.065,-0.715,
945,-1.07,-0.715,
946,-1.065,-0.71,
947,-1.065,-0.705,
948,-1.06,-0.685,
949,-1.07,-0.68,
950,-1.065,-0.69,
951,-1.045,-0.69,
952,-1.055,-0.69,
953,-1.06,-0.695,
954,-1.075,-0.705,
955,-1.085,-0.715,
956,-1.09,-0.705,
957,-1.1,-0.715,
958,-1.095,-0.7,
959,-1.115,-0.71,
960,-1.105,-0.7,
961,-1.095,-0.685,
962,-1.095,-0.685,
963,-1.095,-0.69,
964,-1.1,-0.69,
965,-1.1,-0.705,
966,-1.11,-0.73,
967,-1.11,-0.73,
968,-1.12,-0.74,
969,-1.13,-0.735,
970,-1.135,-0.745,
971,-1.135,-0.715,
972,-1.145,-0.715,
973,-1.14,-0.72,
974,-1.135,-0.72,
975,-1.13,-0.715,
976,-1.125,-0.72,
977,-1.13,-0.72,
978,-1.145,-0.72,
979,-1.145,-0.725,
980,-1.15,-0.745,
981,-1.145,-0.75,
982,-1.15,-0.74,
983,-1.14,-0.735,
984,-1.12,-0.725,
985,-1.115,-0.715,
986,-1.11,-0.705,
987,-1.09,-0.715,
988,-1.085,-0.715,
989,-1.09,-0.72,
990,-1.08,-0.735,
991,-1.08,-0.73,
992,-1.08,-0.74,
993,-1.07,-0.745,
994,-1.075,-0.755,
995,-1.055,-0.75,
996,-1.03,-0.735,
997,-0.995,-0.74,
998,-0.985,-0.73,
999,-0.925,-0.745,
1000,-0.905,-0.75,
1001,-0.885,-0.755,
1002,-0.875,-0.755,
1003,-0.87,-0.76,
1004,-0.865,-0.75,
1005,-0.835,-0.755,
1006,-0.82,-0.745,
1007,-0.82,-0.73,
1008,-0.78,-0.73,
1009,-0.77,-0.715,
1010,-0.765,-0.705,
1011,-0.775,-0.72,
1012,-0.775,-0.715,
1013,-0.775,-0.72,
1014,-0.79,-0.73,
1015,-0.795,-0.73,
1016,-0.79,-0.735,
1017,-0.79,-0.725,
1018,-0.79,-0.71,
1019,-0.795,-0.705,
1020,-0.8,-0.69,
1021,-0.79,-0.68,
1022,-0.8,-0.69,
1023,-0.795,-0.69,
1024,-0.8,-0.695,
1025,-0.81,-0.715,
1026,-0.815,-0.7,
1027,-0.82,-0.715,
1028,-0.825,-0.72,
1029,-0.83,-0.715,
1030,-0.84,-0.705,
1031,-0.855,-0.705,
1032,-0.845,-0.705,
1033,-0.845,-0.7,
1034,-0.84,-0.715,
1035,-0.83,-0.705,
1036,-0.835,-0.7,
1037,-0.84,-0.705,
1038,-0.835,-0.715,
1039,-0.84,-0.715,
1040,-0.845,-0.72,
1041,-0.86,-0.705,
1042,-0.86,-0.69,
1043,-0.87,-0.69,
1044,-0.87,-0.675,
1045,-0.86,-0.675,
1046,-0.86,-0.665,
1047,-0.86,-0.675,
1048,-0.865,-0.685,
1049,-0.875,-0.69,
1050,-0.875,-0.71,
1051,-0.885,-0.705,
1052,-0.88,-0.72,
1053,-0.88,-0.715,
1054,-0.875,-0.7,
1055,-0.87,-0.695,
1056,-0.87,-0.69,
1057,-0.865,-0.675,
1058,-0.865,-0.69,
1059,-0.865,-0.7,
1060,-0.88,-0.705,
1061,-0.885,-0.715,
1062,-0.89,-0.705,
1063,-0.895,-0.71,
1064,-0.89,-0.73,
1065,-0.89,-0.715,
1066,-0.905,-0.71,
1067,-0.89,-0.705,
1068,-0.895,-0.69,
1069,-0.875,-0.69,
1070,-0.865,-0.685,
1071,-0.865,-0.68,
1072,-0.865,-0.68,
1073,-0.87,-0.68,
1074,-0.87,-0.69,
1075,-0.885,-0.71,
1076,-0.885,-0.71,
1077,-0.89,-0.705,
1078,-0.9,-0.7,
1079,-0.87,-0.69,
1080,-0.855,-0.675,
1081,-0.835,-0.67,
1082,-0.815,-0.655,
1083,-0.815,-0.665,
1084,-0.805,-0.665,
1085,-0.81,-0.67,
1086,-0.81,-0.67,
1087,-0.815,-0.68,
1088,-0.82,-0.695,
1089,-0.83,-0.69,
1090,-0.82,-0.69,
1091,-0.815,-0.695,
1092,-0.8,-0.68,
1093,-0.785,-0.685,
1094,-0.77,-0.685,
1095,-0.765,-0.7,
1096,-0.765,-0.71,
1097,-0.78,-0.71,
1098,-0.79,-0.725,
1099,-0.815,-0.73,
1100,-0.845,-0.735,
1101,-0.875,-0.735,
1102,-0.875,-0.72,
1103,-0.865,-0.705,
1104,-0.845,-0.715,
1105,-0.845,-0.705,
1106,-0.85,-0.715,
1107,-0.86,-0.72,
1108,-0.89,-0.73,
1109,-0.91,-0.73,
1110,-0.935,-0.73,
1111,-0.95,-0.725,
1112,-0.97,-0.71,
1113,-0.97,-0.69,
1114,-0.975,-0.66,
1115,-0.975,-0.65,
1116,-0.97,-0.65,
1117,-0.96,-0.64,
1118,-0.96,-0.66,
1119,-0.97,-0.655,
1120,-0.96,-0.66,
1121,-0.975,-0.68,
1122,-0.98,-0.675,
1123,-0.975,-0.675,
1124,-0.975,-0.7,
1125,-0.975,-0.69,
1126,-0.97,-0.68,
1127,-0.97,-0.69,
1128,-0.985,-0.67,
1129,-0.97,-0.665,
1130,-0.975,-0.67,
1131,-0.96,-0.67,
1132,-0.965,-0.675,
1133,-0.965,-0.67,
1134,-0.975,-0.69,
1135,-0.985,-0.69,
1136,-0.985,-0.69,
1137,-0.975,-0.68,
1138,-0.97,-0.68,
1139,-0.965,-0.655,
1140,-0.955,-0.64,
1141,-0.915,-0.625,
1142,-0.86,-0.635,
1143,-0.8,-0.645,
1144,-0.705,-0.66,
1145,-0.6,-0.685,
1146,-0.465,-0.72,
1147,-0.35,-0.755,
1148,-0.23,-0.775,
1149,-0.185,-0.8,N
1150,-0.205,-0.795,
1151,-0.3,-0.8,
1152,-0.44,-0.785,
1153,-0.585,-0.765,
1154,-0.765,-0.715,
1155,-0.985,-0.67,
1156,-1.155,-0.59,
1157,-1.25,-0.505,
1158,-1.28,-0.385,
1159,-1.255,-0.28,
1160,-1.245,-0.21,
1161,-1.23,-0.22,
1162,-1.225,-0.295,
1163,-1.205,-0.405,
1164,-1.185,-0.51,
1165,-1.155,-0.58,
1166,-1.125,-0.635,
1167,-1.095,-0.66,
1168,-1.085,-0.67,
1169,-1.075,-0.68,
1170,-1.085,-0.685,
1171,-1.095,-0.695,
1172,-1.09,-0.705,
1173,-1.105,-0.7,
1174,-1.11,-0.695,
1175,-1.105,-0.7,
1176,-1.095,-0.69,
1177,-1.1,-0.685,
1178,-1.085,-0.695,
1179,-1.09,-0.695,
1180,-1.085,-0.69,
1181,-1.095,-0.705,
1182,-1.105,-0.705,
1183,-1.105,-0.715,
1184,-1.1,-0.715,
1185,-1.125,-0.72,
1186,-1.13,-0.72,
1187,-1.12,-0.705,
1188,-1.12,-0.7,
1189,-1.115,-0.695,
1190,-1.11,-0.705,
1191,-1.125,-0.705,
1192,-1.125,-0.705,
1193,-1.125,-0.71,
1194,-1.135,-0.705,
1195,-1.145,-0.725,
1196,-1.14,-0.73,
1197,-1.155,-0.73,
1198,-1.15,-0.715,
1199,-1.135,-0.72,
1200,-1.12,-0.715,
1201,-1.115,-0.71,
1202,-1.115,-0.7,
1203,-1.125,-0.7,
1204,-1.115,-0.71,
1205,-1.135,-0.71,
1206,-1.16,-0.71,
1207,-1.165,-0.725,
1208,-1.17,-0.735,
1209,-1.165,-0.725,
1210,-1.175,-0.72,
1211,-1.175,-0.715,
1212,-1.165,-0.71,
1213,-1.165,-0.715,
1214,-1.16,-0.71,
1215,-1.15,-0.72,
1216,-1.15,-0.73,
1217,-1.17,-0.74,
1218,-1.18,-0.74,
1219,-1.195,-0.755,
1220,-1.195,-0.765,
1221,-1.22,-0.77,
1222,-1.215,-0.76,
1223,-1.22,-0.76,
1224,-1.215,-0.74,
1225,-1.215,-0.735,
1226,-1.205,-0.73,
1227,-1.22,-0.73,
1228,-1.225,-0.735,
1229,-1.23,-0.74,
1230,-1.23,-0.745,
1231,-1.235,-0.755,
1232,-1.225,-0.745,
1233,-1.225,-0.765,
1234,-1.225,-0.75,
1235,-1.21,-0.75,
1236,-1.2,-0.74,
1237,-1.21,-0.73,
1238,-1.195,-0.74,
1239,-1.19,-0.735,
1240,-1.185,-0.75,
1241,-1.2,-0.76,
1242,-1.17,-0.765,
1243,-1.175,-0.77,
1244,-1.18,-0.79,
1245,-1.165,-0.785,
1246,-1.145,-0.765,
1247,-1.125,-0.765,
1248,-1.11,-0.755,
1249,-1.07,-0.75,
1250,-1.045,-0.755,
1251,-1.035,-0.77,
1252,-1.02,-0.775,
1253,-1.0,-0.78,
1254,-0.995,-0.79,
1255,-0.98,-0.805,
1256,-0.97,-0.79,
1257,-0.96,-0.785,
1258,-0.935,-0.78,
1259,-0.915,-0.75,
1260,-0.91,-0.745,
1261,-0.89,-0.735,
1262,-0.885,-0.725,
1263,-0.87,-0.73,
1264,-0.87,-0.725,
1265,-0.875,-0.72,
1266,-0.885,-0.735,
1267,-0.89,-0.73,
1268,-0.9,-0.735,
1269,-0.91,-0.725,
1270,-0.915,-0.71,
1271,-0.92,-0.7,
1272,-0.905,-0.7,
1273,-0.885,-0.68,
1274,-0.88,-0.675,
1275,-0.89,-0.68,
1276,-0.885,-0.68,
1277,-0.9,-0.685,
1278,-0.905,-0.7,
1279,-0.915,-0.71,
1280,-0.93,-0.71,
1281,-0.945,-0.72,
1282,-0.935,-0.7,
1283,-0.935,-0.705,
1284,-0.925,-0.7,
1285,-0.915,-0.685,
1286,-0.915,-0.685,
1287,-0.93,-0.68,
1288,-0.93,-0.68,
1289,-0.94,-0.7,
1290,-0.95,-0.71,
1291,-0.96,-0.715,
1292,-0.955,-0.7,
1293,-0.96,-0.71,
1294,-0.95,-0.71,
1295,-0.95,-0.705,
1296,-0.945,-0.685,
1297,-0.94,-0.685,
1298,-0.935,-0.685,
1299,-0.95,-0.7,
1300,-0.96,-0.7,
1301,-0.95,-0.71,
1302,-0.965,-0.7,
1303,-0.965,-0.715,
1304,-0.96,-0.715,
1305,-0.97,-0.715,
1306,-0.96,-0.715,
1307,-0.95,-0.7,
1308,-0.955,-0.7,
1309,-0.945,-0.69,
1310,-0.94,-0.7,
1311,-0.945,-0.7,
1312,-0.945,-0.69,
1313,-0.96,-0.715,
1314,-0.955,-0.715,
1315,-0.955,-0.72,
1316,-0.955,-0.71,
1317,-0.95,-0.72,
1318,-0.955,-0.715,
1319,-0.93,-0.715,
1320,-0.92,-0.705,
1321,-0.92,-0.695,
1322,-0.91,-0.69,
1323,-0.905,-0.69,
1324,-0.91,-0.695,
1325,-0.9,-0.7,
1326,-0.895,-0.7,
1327,-0.885,-0.71,
1328,-0.88,-0.695,
1329,-0.885,-0.685,
1330,-0.865,-0.67,
1331,-0.865,-0.665,
1332,-0.865,-0.645,
1333,-0.865,-0.655,
1334,-0.855,-0.665,
1335,-0.85,-0.675,
1336,-0.84,-0.68,
1337,-0.825,-0.69,
1338,-0.825,-0.695,
1339,-0.81,-0.705,
1340,-0.81,-0.715,
1341,-0.825,-0.715,
1342,-0.835,-0.705,
1343,-0.83,-0.72,
1344,-0.83,-0.725,
1345,-0.835,-0.72,
1346,-0.83,-0.725,
1347,-0.835,-0.725,
1348,-0.845,-0.725,
1349,-0.86,-0.74,
1350,-0.885,-0.735,
1351,-0.885,-0.73,
1352,-0.895,-0.74,
1353,-0.91,-0.74,
1354,-0.91,-0.71,
1355,-0.92,-0.71,
1356,-0.935,-0.69,
1357,-0.93,-0.67,
1358,-0.92,-0.67,
1359,-0.935,-0.67,
1360,-0.945,-0.675,
1361,-0.955,-0.685,
1362,-0.955,-0.695,
1363,-0.98,-0.7,
1364,-0.985,-0.705,
1365,-0.985,-0.7,
1366,-0.98,-0.7,
1367,-0.965,-0.68,
1368,-0.97,-0.67,
1369,-0.955,-0.675,
1370,-0.945,-0.67,
1371,-0.95,-0.675,
1372,-0.96,-0.67,
1373,-0.965,-0.68,
1374,-0.965,-0.695,
1375,-0.975,-0.7,
1376,-0.97,-0.7,
1377,-0.97,-0.705,
1378,-0.965,-0.685,
1379,-0.95,-0.69,
1380,-0.945,-0.685,
1381,-0.945,-0.67,
1382,-0.915,-0.66,
1383,-0.915,-0.665,
1384,-0.895,-0.675,
1385,-0.84,-0.68,
1386,-0.775,-0.69,
1387,-0.7,-0.7,
1388,-0.595,-0.72,
1389,-0.475,-0.735,
1390,-0.345,-0.76,
1391,-0.22,-0.765,
1392,-0.13,-0.785,
1393,-0.095,-0.795,N
1394,-0.115,-0.795,
1395,-0.215,-0.815,
1396,-0.36,-0.83,
1397,-0.5,-0.845,
1398,-0.655,-0.825,
1399,-0.815,-0.805,
1400,-0.985,-0.765,
1401,-1.14,-0.695,
1402,-1.24,-0.625,
1403,-1.255,-0.495,
1404,-1.21,-0.365,
1405,-1.17,-0.255,
1406,-1.15,-0.21,
1407,-1.16,-0.26,
1408,-1.18,-0.355,
1409,-1.18,-0.46,
1410,-1.17,-0.575,
1411,-1.14,-0.63,
1412,-1.11,-0.675,
1413,-1.085,-0.695,
1414,-1.06,-0.685,
1415,-1.045,-0.68,
1416,-1.035,-0.68,
1417,-1.04,-0.67,
1418,-1.03,-0.675,
1419,-1.04,-0.665,
1420,-1.04,-0.675,
1421,-1.045,-0.68,
1422,-1.055,-0.685,
1423,-1.06,-0.685,
1424,-1.055,-0.7,
1425,-1.06,-0.69,
1426,-1.07,-0.68,
1427,-1.065,-0.675,
1428,-1.065,-0.675,
1429,-1.06,-0.67,
1430,-1.04,-0.675,
1431,-1.045,-0.685,
1432,-1.045,-0.68,
1433,-1.06,-0.695,
1434,-1.065,-0.7,
1435,-1.06,-0.715,
1436,-1.075,-0.7,
1437,-1.09,-0.705,
1438,-1.085,-0.705,
1439,-1.09,-0.705,
1440,-1.085,-0.7,
1441,-1.08,-0.685,
1442,-1.06,-0.68,
1443,-1.07,-0.69,
1444,-1.075,-0.695,
1445,-1.08,-0.71,
1446,-1.1,-0.725,
1447,-1.1,-0.72,
1448,-1.105,-0.725,
1449,-1.105,-0.715,
1450,-1.11,-0.725,
1451,-1.1,-0.695,
1452,-1.11,-0.695,
1453,-1.105,-0.68,
1454,-1.09,-0.695,
1455,-1.105,-0.7,
1456,-1.1,-0.7,
1457,-1.11,-0.715,
1458,-1.12,-0.715,
1459,-1.125,-0.725,
1460,-1.135,-0.725,
1461,-1.145,-0.73,
1462,-1.145,-0.725,
1463,-1.135,-0.705,
1464,-1.14,-0.71,
1465,-1.13,-0.71,
1466,-1.125,-0.705,
1467,-1.135,-0.71,
1468,-1.145,-0.72,
1469,-1.15,-0.735,
1470,-1.16,-0.725,
1471,-1.165,-0.75,
1472,-1.19,-0.765,
1473,-1.175,-0.755,
1474,-1.175,-0.745,
1475,-1.165,-0.745,
1476,-1.16,-0.735,
1477,-1.155,-0.74,
1478,-1.135,-0.73,
1479,-1.14,-0.74,
1480,-1.145,-0.74,
1481,-1.16,-0.755,
1482,-1.14,-0.76,
1483,-1.145,-0.765,
1484,-1.145,-0.77,
1485,-1.15,-0.755,
1486,-1.125,-0.755,
1487,-1.115,-0.755,
1488,-1.105,-0.75,
1489,-1.085,-0.745,
1490,-1.075,-0.74,
1491,-1.055,-0.73,
1492,-1.045,-0.75,
1493,-1.04,-0.75,
1494,-1.035,-0.76,
1495,-1.01,-0.76,
1496,-0.995,-0.765,
1497,-0.99,-0.755,
1498,-0.97,-0.77,
1499,-0.95,-0.76,
1500,-0.94,-0.75,
1501,-0.895,-0.74,
1502,-0.88,-0.735,
1503,-0.855,-0.74,
1504,-0.855,-0.735,
1505,-0.84,-0.745,
1506,-0.82,-0.745,
1507,-0.83,-0.745,
1508,-0.825,-0.745,
1509,-0.82,-0.73,
1510,-0.805,-0.72,
1511,-0.795,-0.705,
1512,-0.79,-0.69,
1513,-0.785,-0.685,
1514,-0.785,-0.67,
1515,-0.78,-0.67,
1516,-0.79,-0.665,
1517,-0.805,-0.66,
1518,-0.805,-0.675,
1519,-0.815,-0.68,
1520,-0.82,-0.675,
1521,-0.845,-0.67,
1522,-0.835,-0.68,
1523,-0.82,-0.66,
1524,-0.81,-0.645,
1525,-0.815,-0.635,
1526,-0.805,-0.64,
1527,-0.805,-0.645,
1528,-0.81,-0.65,
1529,-0.815,-0.65,
1530,-0.83,-0.68,
1531,-0.845,-0.685,
1532,-0.85,-0.675,
1533,-0.86,-0.675,
1534,-0.85,-0.66,
1535,-0.855,-0.66,
1536,-0.845,-0.655,
1537,-0.835,-0.65,
1538,-0.835,-0.65,
1539,-0.83,-0.66,
1540,-0.835,-0.655,
1541,-0.845,-0.675,
1542,-0.845,-0.675,
1543,-0.855,-0.675,
1544,-0.86,-0.695,
1545,-0.86,-0.685,
1546,-0.86,-0.68,
1547,-0.855,-0.665,
1548,-0.85,-0.655,
1549,-0.85,-0.655,
1550,-0.845,-0.635,
1551,-0.84,-0.655,
1552,-0.855,-0.65,
1553,-0.855,-0.65,
1554,-0.87,-0.67,
1555,-0.865,-0.665,
1556,-0.865,-0.68,
1557,-0.865,-0.685,
1558,-0.865,-0.68,
1559,-0.865,-0.66,
1560,-0.85,-0.655,
1561,-0.845,-0.645,
1562,-0.835,-0.635,
1563,-0.845,-0.65,
1564,-0.855,-0.645,
1565,-0.845,-0.665,
1566,-0.85,-0.67,
1567,-0.85,-0.68,
1568,-0.86,-0.68,
1569,-0.855,-0.67,
1570,-0.865,-0.675,
1571,-0.855,-0.66,
1572,-0.845,-0.66,
1573,-0.835,-0.63,
1574,-0.845,-0.66,
1575,-0.835,-0.665,
1576,-0.845,-0.65,
1577,-0.84,-0.655,
1578,-0.835,-0.67,
1579,-0.83,-0.66,
1580,-0.825,-0.665,
1581,-0.815,-0.655,
1582,-0.815,-0.635,
1583,-0.79,-0.63,
1584,-0.785,-0.615,
1585,-0.76,-0.615,
1586,-0.765,-0.605,
1587,-0.765,-0.615,
1588,-0.775,-0.62,
1589,-0.775,-0.64,
1590,-0.77,-0.645,
1591,-0.775,-0.655,
1592,-0.78,-0.675,
1593,-0.765,-0.67,
1594,-0.76,-0.67,
1595,-0.755,-0.655,
1596,-0.74,-0.655,
1597,-0.745,-0.645,
1598,-0.755,-0.65,
1599,-0.78,-0.655,
1600,-0.795,-0.655,
1601,-0.825,-0.685,
1602,-0.83,-0.69,
1603,-0.84,-0.695,
1604,-0.84,-0.705,
1605,-0.84,-0.7,
1606,-0.845,-0.71,
1607,-0.865,-0.695,
1608,-0.87,-0.685,
1609,-0.875,-0.655,
1610,-0.875,-0.66,
1611,-0.89,-0.635,
1612,-0.895,-0.64,
1613,-0.905,-0.64,
1614,-0.93,-0.63,
1615,-0.93,-0.655,
1616,-0.945,-0.655,
1617,-0.94,-0.655,
1618,-0.955,-0.645,
1619,-0.95,-0.64,
1620,-0.935,-0.63,
1621,-0.945,-0.615,
1622,-0.925,-0.62,
1623,-0.92,-0.625,
1624,-0.93,-0.625,
1625,-0.94,-0.65,
1626,-0.95,-0.655,
1627,-0.96,-0.65,
1628,-0.96,-0.665,
1629,-0.965,-0.66,
1630,-0.945,-0.655,
1631,-0.945,-0.655,
1632,-0.95,-0.64,
1633,-0.93,-0.62,
1634,-0.925,-0.615,
1635,-0.91,-0.63,
1636,-0.915,-0.62,
1637,-0.915,-0.62,
1638,-0.915,-0.645,
1639,-0.9,-0.64,
1640,-0.86,-0.64,
1641,-0.805,-0.645,
1642,-0.73,-0.64,
1643,-0.635,-0.645,
1644,-0.5,-0.645,
1645,-0.365,-0.665,
1646,-0.24,-0.675,
1647,-0.13,-0.695,
1648,-0.06,-0.71,N
1649,-0.07,-0.71,
1650,-0.165,-0.745,
1651,-0.315,-0.765,
1652,-0.475,-0.775,
1653,-0.655,-0.76,
1654,-0.845,-0.74,
1655,-1.01,-0.675,
1656,-1.125,-0.605,
1657,-1.175,-0.51,
1658,-1.175,-0.405,
1659,-1.14,-0.34,
1660,-1.1,-0.325,
1661,-1.07,-0.375,
1662,-1.045,-0.445,
1663,-1.035,-0.51,
1664,-1.035,-0.585,
1665,-1.045,-0.615,
1666,-1.055,-0.64,
1667,-1.065,-0.64,
1668,-1.055,-0.635,
1669,-1.055,-0.635,
1670,-1.035,-0.635,
1671,-1.03,-0.64,
1672,-1.04,-0.63,
1673,-1.035,-0.63,
1674,-1.045,-0.655,
1675,-1.045,-0.665,
1676,-1.07,-0.665,
1677,-1.06,-0.66,
1678,-1.065,-0.655,
1679,-1.075,-0.645,
1680,-1.055,-0.64,
1681,-1.045,-0.63,
1682,-1.06,-0.625,
1683,-1.065,-0.635,
1684,-1.05,-0.65,
1685,-1.055,-0.645,
1686,-1.07,-0.655,
1687,-1.09,-0.65,
1688,-1.085,-0.66,
1689,-1.085,-0.665,
1690,-1.08,-0.655,
1691,-1.085,-0.645,
1692,-1.07,-0.64,
1693,-1.065,-0.635,
1694,-1.055,-0.635,
1695,-1.07,-0.635,
1696,-1.08,-0.64,
1697,-1.085,-0.655,
1698,-1.09,-0.65,
1699,-1.1,-0.675,
1700,-1.11,-0.675,
1701,-1.105,-0.665,
1702,-1.115,-0.665,
1703,-1.115,-0.655,
1704,-1.105,-0.65,
1705,-1.1,-0.65,
1706,-1.105,-0.625,
1707,-1.11,-0.645,
1708,-1.12,-0.65,
1709,-1.13,-0.655,
1710,-1.135,-0.655,
1711,-1.145,-0.665,
1712,-1.16,-0.66,
1713,-1.155,-0.66,
1714,-1.15,-0.67,
1715,-1.14,-0.655,
1716,-1.14,-0.66,
1717,-1.145,-0.645,
1718,-1.14,-0.64,
1719,-1.145,-0.66,
1720,-1.15,-0.665,
1721,-1.165,-0.67,
1722,-1.185,-0.67,
1723,-1.19,-0.68,
1724,-1.2,-0.69,
1725,-1.2,-0.685,
1726,-1.205,-0.675,
1727,-1.205,-0.67,
1728,-1.19,-0.67,
1729,-1.185,-0.665,
1730,-1.175,-0.675,
1731,-1.18,-0.665,
1732,-1.185,-0.67,
1733,-1.19,-0.68,
1734,-1.19,-0.69,
1735,-1.185,-0.695,
1736,-1.19,-0.71,
1737,-1.19,-0.7,
1738,-1.185,-0.695,
1739,-1.17,-0.695,
1740,-1.165,-0.68,
1741,-1.15,-0.66,
1742,-1.135,-0.66,
1743,-1.13,-0.66,
1744,-1.12,-0.67,
1745,-1.11,-0.675,
1746,-1.105,-0.68,
1747,-1.1,-0.685,
1748,-1.095,-0.69,
1749,-1.08,-0.7,
1750,-1.06,-0.695,
1751,-1.03,-0.7,
1752,-1.01,-0.69,
1753,-0.985,-0.685,
1754,-0.96,-0.69,
1755,-0.945,-0.685,
1756,-0.92,-0.685,
1757,-0.9,-0.7,
1758,-0.885,-0.71,
1759,-0.88,-0.705,
1760,-0.875,-0.715,
1761,-0.865,-0.695,
1762,-0.85,-0.71,
1763,-0.835,-0.69,
1764,-0.825,-0.685,
1765,-0.795,-0.675,
1766,-0.8,-0.665,
1767,-0.795,-0.665,
1768,-0.8,-0.67,
1769,-0.805,-0.67,
1770,-0.8,-0.67,
1771,-0.81,-0.67,
1772,-0.84,-0.67,
1773,-0.825,-0.66,
1774,-0.835,-0.64,
1775,-0.83,-0.635,
1776,-0.83,-0.62,
1777,-0.825,-0.615,
1778,-0.825,-0.61,
1779,-0.835,-0.615,
1780,-0.835,-0.615,
1781,-0.835,-0.63,
1782,-0.84,-0.635,
1783,-0.855,-0.635,
1784,-0.865,-0.655,
1785,-0.865,-0.65,
1786,-0.865,-0.65,
1787,-0.865,-0.645,
1788,-0.855,-0.635,
1789,-0.855,-0.625,
1790,-0.85,-0.615,
1791,-0.855,-0.615,
1792,-0.87,-0.63,
1793,-0.87,-0.64,
1794,-0.87,-0.645,
1795,-0.875,-0.65,
1796,-0.895,-0.655,
1797,-0.895,-0.65,
1798,-0.905,-0.655,
1799,-0.905,-0.65,
1800,-0.905,-0.635,
1801,-0.895,-0.625,
1802,-0.89,-0.63,
1803,-0.885,-0.635,
1804,-0.885,-0.625,
1805,-0.89,-0.65,
1806,-0.905,-0.635,
1807,-0.915,-0.655,
1808,-0.92,-0.655,
1809,-0.915,-0.645,
1810,-0.9,-0.64,
1811,-0.895,-0.625,
1812,-0.89,-0.615,
1813,-0.885,-0.63,
1814,-0.885,-0.625,
1815,-0.88,-0.615,
1816,-0.89,-0.63,
1817,-0.885,-0.625,
1818,-0.895,-0.635,
1819,-0.89,-0.65,
1820,-0.895,-0.65,
1821,-0.89,-0.65,
1822,-0.875,-0.63,
1823,-0.865,-0.615,
1824,-0.855,-0.63,
1825,-0.845,-0.605,
1826,-0.84,-0.6,
1827,-0.83,-0.585,
1828,-0.825,-0.6,
1829,-0.84,-0.61,
1830,-0.84,-0.6,
1831,-0.85,-0.61,
1832,-0.845,-0.63,
1833,-0.835,-0.635,
1834,-0.815,-0.625,
1835,-0.805,-0.62,
1836,-0.79,-0.62,
1837,-0.775,-0.63,
1838,-0.77,-0.61,
1839,-0.765,-0.625,
1840,-0.78,-0.63,
1841,-0.795,-0.645,
1842,-0.815,-0.655,
1843,-0.835,-0.685,
1844,-0.845,-0.675,
1845,-0.85,-0.69,
1846,-0.865,-0.685,
1847,-0.865,-0.68,
1848,-0.87,-0.675,
1849,-0.875,-0.66,
1850,-0.895,-0.655,
1851,-0.905,-0.64,
1852,-0.905,-0.64,
1853,-0.91,-0.64,
1854,-0.935,-0.625,
1855,-0.955,-0.63,
1856,-0.97,-0.635,
1857,-0.975,-0.645,
1858,-0.98,-0.63,
1859,-0.97,-0.64,
1860,-0.97,-0.63,
1861,-0.96,-0.63,
1862,-0.965,-0.62,
1863,-0.965,-0.63,
1864,-0.96,-0.62,
1865,-0.965,-0.64,
1866,-0.97,-0.63,
1867,-0.985,-0.65,
1868,-0.99,-0.665,
1869,-0.99,-0.66,
1870,-1.0,-0.65,
1871,-0.99,-0.64,
1872,-0.995,-0.625,
1873,-0.985,-0.62,
1874,-0.965,-0.615,
1875,-0.955,-0.62,
1876,-0.965,-0.615,
1877,-0.96,-0.615,
1878,-0.975,-0.635,
1879,-0.98,-0.62,
1880,-0.98,-0.635,
1881,-0.98,-0.625,
1882,-0.95,-0.625,
1883,-0.915,-0.6,
1884,-0.85,-0.6,
1885,-0.775,-0.61,
1886,-0.67,-0.62,
1887,-0.54,-0.64,
1888,-0.39,-0.67,
1889,-0.26,-0.69,
1890,-0.16,-0.72,
1891,-0.12,-0.74,N
1892,-0.15,-0.73,
1893,-0.255,-0.75,
1894,-0.37,-0.755,
1895,-0.505,-0.76,
1896,-0.615,-0.755,
1897,-0.755,-0.74,
1898,-0.88,-0.715,
1899,-1.025,-0.67,
1900,-1.135,-0.625,
1901,-1.195,-0.55,
1902,-1.21,-0.455,
1903,-1.185,-0.39,
1904,-1.165,-0.345,
1905,-1.125,-0.36,
1906,-1.1,-0.395,
1907,-1.08,-0.465,
1908,-1.065,-0.515,
1909,-1.07,-0.545,
1910,-1.075,-0.57,
1911,-1.08,-0.595,
1912,-1.1,-0.61,
1913,-1.095,-0.615,
1914,-1.09,-0.645,
1915,-1.09,-0.64,
1916,-1.09,-0.645,
1917,-1.09,-0.66,
1918,-1.095,-0.655,
1919,-1.095,-0.645,
1920,-1.085,-0.625,
1921,-1.09,-0.625,
1922,-1.1,-0.62,
1923,-1.095,-0.635,
1924,-1.105,-0.64,
1925,-1.1,-0.655,
1926,-1.095,-0.67,
1927,-1.105,-0.675,
1928,-1.12,-0.68,
1929,-1.115,-0.68,
1930,-1.115,-0.67,
1931,-1.11,-0.675,
1932,-1.11,-0.66,
1933,-1.11,-0.645,
1934,-1.115,-0.655,
1935,-1.105,-0.645,
1936,-1.105,-0.645,
1937,-1.11,-0.655,
1938,-1.115,-0.665,
1939,-1.12,-0.665,
1940,-1.135,-0.67,
1941,-1.14,-0.655,
1942,-1.145,-0.66,
1943,-1.14,-0.66,
1944,-1.135,-0.64,
1945,-1.13,-0.645,
1946,-1.14,-0.625,
1947,-1.13,-0.635,
1948,-1.125,-0.635,
1949,-1.125,-0.65,
1950,-1.145,-0.655,
1951,-1.16,-0.665,
1952,-1.165,-0.665,
1953,-1.17,-0.685,
1954,-1.175,-0.665,
1955,-1.165,-0.655,
1956,-1.165,-0.65,
1957,-1.17,-0.645,
1958,-1.155,-0.64,
1959,-1.165,-0.655,
1960,-1.175,-0.66,
1961,-1.18,-0.67,
1962,-1.2,-0.675,
1963,-1.21,-0.685,
1964,-1.215,-0.695,
1965,-1.235,-0.695,
1966,-1.235,-0.685,
1967,-1.23,-0.68,
1968,-1.23,-0.67,
1969,-1.225,-0.665,
1970,-1.205,-0.66,
1971,-1.225,-0.655,
1972,-1.23,-0.665,
1973,-1.24,-0.68,
1974,-1.24,-0.67,
1975,-1.25,-0.68,
1976,-1.245,-0.68,
1977,-1.255,-0.675,
1978,-1.255,-0.68,
1979,-1.25,-0.67,
1980,-1.245,-0.675,
1981,-1.24,-0.665,
1982,-1.24,-0.645,
1983,-1.23,-0.65,
1984,-1.23,-0.665,
1985,-1.255,-0.68,
1986,-1.235,-0.685,
1987,-1.235,-0.69,
1988,-1.235,-0.69,
1989,-1.235,-0.69,
1990,-1.225,-0.685,
1991,-1.205,-0.68,
1992,-1.19,-0.68,
1993,-1.18,-0.68,
1994,-1.16,-0.67,
1995,-1.145,-0.68,
1996,-1.145,-0.69,
1997,-1.13,-0.675,
1998,-1.135,-0.69,
1999,-1.125,-0.705,
2000,-1.105,-0.695,
2001,-1.09,-0.705,
2002,-1.07,-0.705,
2003,-1.04,-0.685,
2004,-1.01,-0.685,
2005,-0.98,-0.675,
2006,-0.965,-0.66,
2007,-0.955,-0.665,
2008,-0.94,-0.67,
2009,-0.93,-0.675,
2010,-0.93,-0.69,
2011,-0.93,-0.675,
2012,-0.93,-0.69,
2013,-0.93,-0.68,
2014,-0.915,-0.665,
2015,-0.91,-0.645,
2016,-0.9,-0.655,
2017,-0.905,-0.645,
2018,-0.89,-0.625,
2019,-0.89,-0.63,
2020,-0.89,-0.635,
2021,-0.905,-0.64,
2022,-0.92,-0.64,
2023,-0.925,-0.655,
2024,-0.925,-0.655,
2025,-0.945,-0.655,
2026,-0.94,-0.655,
2027,-0.94,-0.65,
2028,-0.94,-0.63,
2029,-0.95,-0.63,
2030,-0.93,-0.625,
2031,-0.92,-0.625,
2032,-0.945,-0.635,
2033,-0.935,-0.625,
2034,-0.96,-0.64,
2035,-0.97,-0.645,
2036,-0.98,-0.655,
2037,-0.985,-0.65,
2038,-0.98,-0.64,
2039,-0.97,-0.63,
2040,-0.955,-0.625,
2041,-0.955,-0.625,
2042,-0.945,-0.605,
2043,-0.965,-0.61,
2044,-0.97,-0.625,
2045,-0.98,-0.64,
2046,-0.985,-0.645,
2047,-0.995,-0.645,
2048,-1.005,-0.655,
2049,-1.015,-0.65,
2050,-0.985,-0.645,
2051,-0.985,-0.65,
2052,-0.98,-0.64,
2053,-0.98,-0.635,
2054,-0.97,-0.625,
2055,-0.98,-0.645,
2056,-0.975,-0.645,
2057,-0.98,-0.65,
2058,-0.99,-0.655,
2059,-0.985,-0.65,
2060,-0.995,-0.66,
2061,-0.995,-0.67,
2062,-1.0,-0.66,
2063,-1.0,-0.64,
2064,-1.0,-0.64,
2065,-1.0,-0.64,
2066,-0.99,-0.635,
2067,-0.98,-0.635,
2068,-0.975,-0.64,
2069,-0.98,-0.635,
2070,-0.99,-0.65,
2071,-0.985,-0.64,
2072,-0.99,-0.65,
2073,-0.985,-0.66,
2074,-0.99,-0.645,
2075,-0.975,-0.635,
2076,-0.97,-0.625,
2077,-0.965,-0.625,
2078,-0.94,-0.615,
2079,-0.93,-0.62,
2080,-0.915,-0.615,
2081,-0.925,-0.61,
2082,-0.91,-0.62,
2083,-0.905,-0.615,
2084,-0.915,-0.625,
2085,-0.925,-0.615,
2086,-0.92,-0.61,
2087,-0.915,-0.615,
2088,-0.905,-0.6,
2089,-0.915,-0.595,
2090,-0.91,-0.6,
2091,-0.9,-0.615,
2092,-0.905,-0.625,
2093,-0.905,-0.635,
2094,-0.885,-0.66,
2095,-0.88,-0.655,
2096,-0.875,-0.66,
2097,-0.88,-0.67,
2098,-0.89,-0.67,
2099,-0.905,-0.655,
2100,-0.935,-0.66,
2101,-0.945,-0.65,
2102,-0.95,-0.65,
2103,-0.945,-0.65,
2104,-0.95,-0.68,
2105,-0.945,-0.67,
2106,-0.965,-0.675,
2107,-0.98,-0.675,
2108,-1.0,-0.67,
2109,-1.025,-0.67,
2110,-1.045,-0.64,
2111,-1.05,-0.635,
2112,-1.05,-0.61,
2113,-1.045,-0.605,
2114,-1.045,-0.605,
2115,-1.035,-0.605,
2116,-1.05,-0.625,
2117,-1.045,-0.625,
2118,-1.05,-0.635,
2119,-1.06,-0.635,
2120,-1.07,-0.64,
2121,-1.07,-0.645,
2122,-1.065,-0.655,
2123,-1.065,-0.635,
2124,-1.05,-0.64,
2125,-1.045,-0.63,
2126,-1.035,-0.625,
2127,-1.03,-0.62,
2128,-1.035,-0.63,
2129,-1.04,-0.635,
2130,-1.045,-0.63,
2131,-1.055,-0.64,
2132,-1.055,-0.635,
2133,-1.05,-0.64,
2134,-1.04,-0.625,
2135,-1.04,-0.61,
2136,-1.025,-0.59,
2137,-1.0,-0.585,
2138,-0.96,-0.58,
2139,-0.915,-0.585,
2140,-0.86,-0.6,
2141,-0.765,-0.625,
2142,-0.665,-0.645,
2143,-0.565,-0.665,
2144,-0.435,-0.69,
2145,-0.33,-0.71,
2146,-0.255,-0.71,
2147,-0.24,-0.715,N
2148,-0.295,-0.715,
2149,-0.395,-0.72,
2150,-0.51,-0.72,
2151,-0.625,-0.73,
2152,-0.77,-0.72,
2153,-0.91,-0.72,
2154,-1.07,-0.68,
2155,-1.195,-0.645,
2156,-1.275,-0.57,
2157,-1.285,-0.47,
2158,-1.27,-0.37,
2159,-1.23,-0.31,
2160,-1.22,-0.285,
2161,-1.2,-0.33,
2162,-1.17,-0.38,
2163,-1.165,-0.455,
2164,-1.165,-0.525,
2165,-1.165,-0.57,
2166,-1.17,-0.625,
2167,-1.16,-0.63,
2168,-1.165,-0.635,
2169,-1.16,-0.65,
2170,-1.165,-0.63,
2171,-1.16,-0.625,
2172,-1.155,-0.62,
2173,-1.16,-0.605,
2174,-1.155,-0.615,
2175,-1.145,-0.605,
2176,-1.15,-0.62,
2177,-1.165,-0.625,
2178,-1.17,-0.64,
2179,-1.17,-0.635,
2180,-1.17,-0.65,
2181,-1.185,-0.655,
2182,-1.18,-0.65,
2183,-1.185,-0.65,
2184,-1.185,-0.64,
2185,-1.185,-0.645,
2186,-1.185,-0.63,
2187,-1.18,-0.64,
2188,-1.175,-0.65,
2189,-1.175,-0.65,
2190,-1.185,-0.655,
2191,-1.19,-0.66,
2192,-1.205,-0.655,
2193,-1.21,-0.665,
2194,-1.205,-0.66,
2195,-1.2,-0.655,
2196,-1.205,-0.65,
2197,-1.2,-0.635,
2198,-1.2,-0.63,
2199,-1.195,-0.64,
2200,-1.2,-0.63,
2201,-1.2,-0.64,
2202,-1.21,-0.65,
2203,-1.225,-0.665,
2204,-1.23,-0.665,
2205,-1.225,-0.66,
2206,-1.24,-0.67,
2207,-1.23,-0.66,
2208,-1.23,-0.64,
2209,-1.225,-0.64,
2210,-1.22,-0.635,
2211,-1.21,-0.645,
2212,-1.23,-0.645,
2213,-1.24,-0.665,
2214,-1.235,-0.665,
2215,-1.265,-0.675,
2216,-1.265,-0.67,
2217,-1.265,-0.685,
2218,-1.265,-0.685,
2219,-1.26,-0.68,
2220,-1.255,-0.67,
2221,-1.26,-0.66,
2222,-1.25,-0.665,
2223,-1.25,-0.665,
2224,-1.26,-0.66,
2225,-1.26,-0.675,
2226,-1.265,-0.68,
2227,-1.265,-0.685,
2228,-1.28,-0.69,
2229,-1.27,-0.69,
2230,-1.28,-0.67,
2231,-1.265,-0.675,
2232,-1.27,-0.67,
2233,-1.27,-0.665,
2234,-1.265,-0.65,
2235,-1.25,-0.66,
2236,-1.255,-0.66,
2237,-1.24,-0.68,
2238,-1.235,-0.685,
2239,-1.245,-0.695,
2240,-1.235,-0.69,
2241,-1.235,-0.69,
2242,-1.235,-0.7,
2243,-1.215,-0.68,
2244,-1.2,-0.68,
2245,-1.18,-0.675,
2246,-1.155,-0.665,
2247,-1.135,-0.685,
2248,-1.13,-0.685,
2249,-1.105,-0.695,
2250,-1.095,-0.705,
2251,-1.08,-0.71,
2252,-1.065,-0.715,
2253,-1.04,-0.72,
2254,-1.03,-0.715,
2255,-1.0,-0.705,
2256,-0.975,-0.705,
2257,-0.95,-0.7,
2258,-0.93,-0.67,
2259,-0.915,-0.68,
2260,-0.905,-0.68,
2261,-0.915,-0.69,
2262,-0.91,-0.69,
2263,-0.91,-0.68,
2264,-0.905,-0.68,
2265,-0.925,-0.67,
2266,-0.92,-0.665,
2267,-0.91,-0.655,
2268,-0.905,-0.655,
2269,-0.9,-0.635,
2270,-0.895,-0.63,
2271,-0.905,-0.63,
2272,-0.905,-0.64,
2273,-0.915,-0.635,
2274,-0.925,-0.645,
2275,-0.925,-0.655,
2276,-0.935,-0.655,
2277,-0.945,-0.66,
2278,-0.94,-0.655,
2279,-0.95,-0.635,
2280,-0.95,-0.635,
2281,-0.94,-0.63,
2282,-0.93,-0.615,
2283,-0.93,-0.615,
2284,-0.93,-0.63,
2285,-0.945,-0.63,
2286,-0.95,-0.65,
2287,-0.95,-0.645,
2288,-0.96,-0.645,
2289,-0.97,-0.65,
2290,-0.97,-0.65,
2291,-0.965,-0.645,
2292,-0.955,-0.62,
2293,-0.955,-0.61,
2294,-0.965,-0.615,
2295,-0.96,-0.615,
2296,-0.965,-0.625,
2297,-0.955,-0.625,
2298,-0.965,-0.63,
2299,-0.97,-0.645,
2300,-0.975,-0.645,
2301,-0.985,-0.645,
2302,-0.985,-0.645,
2303,-0.98,-0.64,
2304,-0.975,-0.635,
2305,-0.97,-0.62,
2306,-0.965,-0.61,
2307,-0.955,-0.625,
2308,-0.965,-0.63,
2309,-0.965,-0.63,
2310,-0.97,-0.64,
2311,-0.99,-0.65,
2312,-0.99,-0.66,
2313,-0.985,-0.67,
2314,-0.99,-0.66,
2315,-0.99,-0.65,
2316,-0.98,-0.64,
2317,-0.975,-0.635,
2318,-0.97,-0.635,
2319,-0.965,-0.635,
2320,-0.96,-0.63,
2321,-0.96,-0.63,
2322,-0.97,-0.64,
2323,-0.96,-0.64,
2324,-0.95,-0.635,
2325,-0.96,-0.64,
2326,-0.925,-0.635,
2327,-0.905,-0.615,
2328,-0.895,-0.615,
2329,-0.875,-0.6,
2330,-0.865,-0.595,
2331,-0.85,-0.595,
2332,-0.85,-0.595,
2333,-0.875,-0.605,
2334,-0.88,-0.615,
2335,-0.885,-0.62,
2336,-0.9,-0.63,
2337,-0.89,-0.635,
2338,-0.88,-0.645,
2339,-0.865,-0.625,
2340,-0.84,-0.635,
2341,-0.835,-0.635,
2342,-0.825,-0.625,
2343,-0.83,-0.64,
2344,-0.86,-0.65,
2345,-0.875,-0.655,
2346,-0.905,-0.68,
2347,-0.915,-0.69,
2348,-0.92,-0.7,
2349,-0.93,-0.7,
2350,-0.925,-0.7,
2351,-0.93,-0.695,
2352,-0.93,-0.68,
2353,-0.93,-0.67,
2354,-0.935,-0.645,
2355,-0.94,-0.635,
2356,-0.965,-0.625,
2357,-0.975,-0.62,
2358,-0.995,-0.615,
2359,-1.0,-0.63,
2360,-1.005,-0.625,
2361,-1.015,-0.64,
2362,-1.015,-0.645,
2363,-1.015,-0.63,
2364,-1.01,-0.615,
2365,-1.005,-0.61,
2366,-0.99,-0.6,
2367,-0.98,-0.6,
2368,-0.985,-0.605,
2369,-0.98,-0.615,
2370,-0.98,-0.62,
2371,-0.995,-0.63,
2372,-0.985,-0.635,
2373,-0.99,-0.63,
2374,-0.985,-0.625,
2375,-0.985,-0.615,
2376,-0.985,-0.61,
2377,-0.985,-0.605,
2378,-0.975,-0.605,
2379,-0.975,-0.605,
2380,-0.97,-0.615,
2381,-0.97,-0.605,
2382,-0.97,-0.61,
2383,-0.98,-0.615,
2384,-0.955,-0.61,
2385,-0.92,-0.605,
2386,-0.85,-0.615,
2387,-0.75,-0.62,
2388,-0.625,-0.63,
2389,-0.48,-0.65,
2390,-0.34,-0.67,
2391,-0.22,-0.69,
2392,-0.195,-0.69,N
2393,-0.215,-0.725,
2394,-0.315,-0.735,
2395,-0.46,-0.76,
2396,-0.605,-0.765,
2397,-0.775,-0.755,
2398,-0.95,-0.725,
2399,-1.1,-0.67,
2400,-1.22,-0.6,
2401,-1.25,-0.49,
2402,-1.26,-0.385,
2403,-1.23,-0.31,
2404,-1.19,-0.29,
2405,-1.145,-0.325,
2406,-1.125,-0.395,
2407,-1.11,-0.48,
2408,-1.12,-0.54,
2409,-1.135,-0.59,
2410,-1.115,-0.605,
2411,-1.1,-0.61,
2412,-1.085,-0.6,
2413,-1.065,-0.605,
2414,-1.05,-0.6,
2415,-1.05,-0.6,
2416,-1.05,-0.6,
2417,-1.055,-0.61,
2418,-1.06,-0.605,
2419,-1.075,-0.615,
2420,-1.075,-0.63,
2421,-1.09,-0.625,
2422,-1.085,-0.62,
2423,-1.08,-0.61,
2424,-1.06,-0.61,
2425,-1.06,-0.605,
2426,-1.05,-0.595,
2427,-1.055,-0.59,
2428,-1.05,-0.595,
2429,-1.055,-0.595,
2430,-1.055,-0.61,
2431,-1.07,-0.605,
2432,-1.085,-0.625,
2433,-1.08,-0.62,
2434,-1.085,-0.625,
2435,-1.07,-0.615,
2436,-1.07,-0.61,
2437,-1.055,-0.605,
2438,-1.055,-0.59,
2439,-1.05,-0.605,
2440,-1.06,-0.61,
2441,-1.06,-0.615,
2442,-1.065,-0.63,
2443,-1.085,-0.625,
2444,-1.09,-0.63,
2445,-1.09,-0.635,
2446,-1.085,-0.63,
2447,-1.085,-0.62,
2448,-1.08,-0.62,
2449,-1.09,-0.625,
2450,-1.08,-0.605,
2451,-1.07,-0.605,
2452,-1.09,-0.595,
2453,-1.095,-0.62,
2454,-1.105,-0.61,
2455,-1.115,-0.62,
2456,-1.125,-0.615,
2457,-1.125,-0.625,
2458,-1.13,-0.64,
2459,-1.12,-0.62,
2460,-1.125,-0.615,
2461,-1.115,-0.615,
2462,-1.115,-0.605,
2463,-1.115,-0.605,
2464,-1.12,-0.62,
2465,-1.12,-0.62,
2466,-1.13,-0.625,
2467,-1.13,-0.635,
2468,-1.14,-0.64,
2469,-1.15,-0.655,
2470,-1.15,-0.65,
2471,-1.145,-0.65,
2472,-1.135,-0.64,
2473,-1.14,-0.625,
2474,-1.14,-0.635,
2475,-1.13,-0.635,
2476,-1.12,-0.64,
2477,-1.13,-0.645,
2478,-1.125,-0.66,
2479,-1.13,-0.65,
2480,-1.13,-0.67,
2481,-1.135,-0.67,
2482,-1.14,-0.66,
2483,-1.13,-0.66,
2484,-1.115,-0.64,
2485,-1.115,-0.645,
2486,-1.08,-0.645,
2487,-1.075,-0.64,
2488,-1.08,-0.645,
2489,-1.07,-0.64,
2490,-1.07,-0.655,
2491,-1.045,-0.66,
2492,-1.045,-0.655,
2493,-1.035,-0.68,
2494,-1.02,-0.66,
2495,-0.995,-0.655,
2496,-0.97,-0.65,
2497,-0.95,-0.66,
2498,-0.92,-0.66,
2499,-0.895,-0.65,
2500,-0.875,-0.66,
2501,-0.865,-0.665,
2502,-0.84,-0.675,
2503,-0.855,-0.69,
2504,-0.845,-0.685,
2505,-0.835,-0.675,
2506,-0.82,-0.675,
2507,-0.81,-0.66,
2508,-0.79,-0.645,
2509,-0.78,-0.635,
2510,-0.77,-0.635,
2511,-0.77,-0.62,
2512,-0.775,-0.635,
2513,-0.79,-0.63,
2514,-0.79,-0.625,
2515,-0.805,-0.625,
2516,-0.81,-0.63,
2517,-0.805,-0.62,
2518,-0.81,-0.61,
2519,-0.81,-0.61,
2520,-0.8,-0.585,
2521,-0.805,-0.58,
2522,-0.79,-0.585,
2523,-0.785,-0.585,
2524,-0.805,-0.58,
2525,-0.815,-0.595,
2526,-0.825,-0.6,
2527,-0.83,-0.615,
2528,-0.83,-0.625,
2529,-0.84,-0.635,
2530,-0.85,-0.63,
2531,-0.84,-0.605,
2532,-0.845,-0.61,
2533,-0.845,-0.595,
2534,-0.845,-0.575,
2535,-0.835,-0.58,
2536,-0.845,-0.585,
2537,-0.845,-0.595,
2538,-0.85,-0.615,
2539,-0.86,-0.62,
2540,-0.87,-0.615,
2541,-0.87,-0.62,
2542,-0.88,-0.62,
2543,-0.87,-0.625,
2544,-0.86,-0.62,
2545,-0.865,-0.615,
2546,-0.855,-0.605,
2547,-0.855,-0.6,
2548,-0.855,-0.61,
2549,-0.865,-0.605,
2550,-0.87,-0.61,
2551,-0.88,-0.615,
2552,-0.875,-0.635,
2553,-0.885,-0.625,
2554,-0.885,-0.63,
2555,-0.87,-0.62,
2556,-0.87,-0.615,
2557,-0.865,-0.61,
2558,-0.85,-0.61,
2559,-0.835,-0.595,
2560,-0.845,-0.61,
2561,-0.845,-0.615,
2562,-0.84,-0.62,
2563,-0.835,-0.625,
2564,-0.84,-0.625,
2565,-0.83,-0.635,
2566,-0.82,-0.625,
2567,-0.82,-0.605,
2568,-0.81,-0.6,
2569,-0.8,-0.595,
2570,-0.785,-0.57,
2571,-0.785,-0.58,
2572,-0.795,-0.59,
2573,-0.79,-0.6,
2574,-0.785,-0.605,
2575,-0.785,-0.62,
2576,-0.775,-0.63,
2577,-0.765,-0.625,
2578,-0.745,-0.635,
2579,-0.74,-0.625,
2580,-0.735,-0.615,
2581,-0.75,-0.62,
2582,-0.75,-0.62,
2583,-0.765,-0.63,
2584,-0.775,-0.63,
2585,-0.785,-0.65,
2586,-0.79,-0.65,
2587,-0.81,-0.67,
2588,-0.81,-0.66,
2589,-0.82,-0.67,
2590,-0.84,-0.66,
2591,-0.85,-0.635,
2592,-0.855,-0.625,
2593,-0.865,-0.615,
2594,-0.875,-0.605,
2595,-0.88,-0.59,
2596,-0.88,-0.6,
2597,-0.9,-0.595,
2598,-0.9,-0.625,
2599,-0.915,-0.62,
2600,-0.93,-0.63,
2601,-0.925,-0.645,
2602,-0.935,-0.625,
2603,-0.93,-0.625,
2604,-0.925,-0.625,
2605,-0.925,-0.62,
2606,-0.915,-0.605,
2607,-0.915,-0.61,
2608,-0.92,-0.61,
2609,-0.91,-0.615,
2610,-0.915,-0.62,
2611,-0.93,-0.62,
2612,-0.935,-0.625,
2613,-0.945,-0.635,
2614,-0.93,-0.63,
2615,-0.93,-0.615,
2616,-0.915,-0.61,
2617,-0.895,-0.6,
2618,-0.895,-0.585,
2619,-0.87,-0.575,
2620,-0.86,-0.59,
2621,-0.85,-0.585,
2622,-0.785,-0.605,
2623,-0.73,-0.625,
2624,-0.66,-0.645,
2625,-0.555,-0.665,
2626,-0.435,-0.67,
2627,-0.325,-0.685,
2628,-0.215,-0.69,
2629,-0.15,-0.695,
2630,-0.135,-0.7,N
2631,-0.165,-0.705,
2632,-0.265,-0.72,
2633,-0.39,-0.72,
2634,-0.52,-0.73,
2635,-0.63,-0.715,
2636,-0.775,-0.725,
2637,-0.93,-0.685,
2638,-1.075,-0.62,
2639,-1.165,-0.535,
2640,-1.185,-0.42,
2641,-1.155,-0.295,
2642,-1.13,-0.195,
2643,-1.105,-0.145,
2644,-1.115,-0.185,
2645,-1.125,-0.28,
2646,-1.125,-0.39,
2647,-1.115,-0.48,
2648,-1.1,-0.55,
2649,-1.07,-0.6,
2650,-1.05,-0.625,
2651,-1.025,-0.61,
2652,-1.0,-0.615,
2653,-0.985,-0.6,
2654,-0.99,-0.595,
2655,-0.99,-0.61,
2656,-0.995,-0.615,
2657,-1.0,-0.62,
2658,-1.01,-0.62,
2659,-1.025,-0.635,
2660,-1.035,-0.635,
2661,-1.03,-0.65,
2662,-1.03,-0.64,
2663,-1.04,-0.635,
2664,-1.03,-0.625,
2665,-1.02,-0.635,
2666,-1.015,-0.62,
2667,-1.015,-0.62,
2668,-1.005,-0.64,
2669,-1.01,-0.64,
2670,-1.025,-0.65,
2671,-1.03,-0.655,
2672,-1.035,-0.66,
2673,-1.025,-0.66,
2674,-1.02,-0.64,
2675,-1.025,-0.64,
2676,-1.03,-0.635,
2677,-1.035,-0.625,
2678,-1.025,-0.61,
2679,-1.015,-0.625,
2680,-1.035,-0.625,
2681,-1.035,-0.645,
2682,-1.045,-0.65,
2683,-1.05,-0.65,
2684,-1.065,-0.66,
2685,-1.07,-0.66,
2686,-1.07,-0.65,
2687,-1.065,-0.65,
2688,-1.065,-0.65,
2689,-1.06,-0.645,
2690,-1.05,-0.635,
2691,-1.045,-0.645,
2692,-1.045,-0.645,
2693,-1.055,-0.655,
2694,-1.06,-0.665,
2695,-1.055,-0.675,
2696,-1.075,-0.67,
2697,-1.085,-0.67,
2698,-1.075,-0.67,
2699,-1.06,-0.67,
2700,-1.06,-0.67,
2701,-1.065,-0.665,
2702,-1.06,-0.665,
2703,-1.05,-0.66,
2704,-1.075,-0.675,
2705,-1.07,-0.67,
2706,-1.08,-0.67,
2707,-1.085,-0.665,
2708,-1.095,-0.67,
2709,-1.095,-0.675,
2710,-1.11,-0.685,
2711,-1.115,-0.685,
2712,-1.11,-0.68,
2713,-1.11,-0.665,
2714,-1.1,-0.665,
2715,-1.075,-0.67,
2716,-1.075,-0.665,
2717,-1.08,-0.675,
2718,-1.065,-0.685,
2719,-1.08,-0.705,
2720,-1.075,-0.715,
2721,-1.07,-0.71,
2722,-1.07,-0.71,
2723,-1.065,-0.7,
2724,-1.05,-0.69,
2725,-1.045,-0.685,
2726,-1.03,-0.67,
2727,-1.015,-0.675,
2728,-1.01,-0.67,
2729,-1.03,-0.685,
2730,-1.025,-0.69,
2731,-1.015,-0.7,
2732,-0.995,-0.715,
2733,-0.985,-0.7,
2734,-0.98,-0.705,
2735,-0.95,-0.705,
2736,-0.93,-0.7,
2737,-0.905,-0.705,
2738,-0.88,-0.69,
2739,-0.84,-0.695,
2740,-0.835,-0.69,
2741,-0.83,-0.69,
2742,-0.83,-0.7,
2743,-0.83,-0.7,
2744,-0.825,-0.705,
2745,-0.815,-0.695,
2746,-0.8,-0.685,
2747,-0.78,-0.68,
2748,-0.77,-0.67,
2749,-0.755,-0.65,
2750,-0.74,-0.66,
2751,-0.73,-0.65,
2752,-0.725,-0.645,
2753,-0.73,-0.64,
2754,-0.74,-0.64,
2755,-0.755,-0.645,
2756,-0.76,-0.645,
2757,-0.775,-0.65,
2758,-0.775,-0.64,
2759,-0.78,-0.63,
2760,-0.775,-0.62,
2761,-0.775,-0.615,
2762,-0.79,-0.61,
2763,-0.785,-0.605,
2764,-0.785,-0.61,
2765,-0.795,-0.62,
2766,-0.81,-0.615,
2767,-0.805,-0.625,
2768,-0.81,-0.64,
2769,-0.81,-0.64,
2770,-0.815,-0.635,
2771,-0.825,-0.63,
2772,-0.825,-0.62,
2773,-0.825,-0.61,
2774,-0.82,-0.6,
2775,-0.82,-0.6,
2776,-0.83,-0.6,
2777,-0.82,-0.61,
2778,-0.815,-0.625,
2779,-0.81,-0.625,
2780,-0.82,-0.64,
2781,-0.83,-0.645,
2782,-0.835,-0.64,
2783,-0.84,-0.62,
2784,-0.84,-0.62,
2785,-0.835,-0.625,
2786,-0.82,-0.61,
2787,-0.82,-0.61,
2788,-0.83,-0.605,
2789,-0.83,-0.61,
2790,-0.835,-0.625,
2791,-0.845,-0.63,
2792,-0.845,-0.64,
2793,-0.85,-0.64,
2794,-0.85,-0.64,
2795,-0.855,-0.635,
2796,-0.85,-0.635,
2797,-0.84,-0.62,
2798,-0.835,-0.62,
2799,-0.825,-0.62,
2800,-0.83,-0.625,
2801,-0.84,-0.625,
2802,-0.85,-0.63,
2803,-0.865,-0.635,
2804,-0.885,-0.635,
2805,-0.865,-0.645,
2806,-0.855,-0.64,
2807,-0.855,-0.64,
2808,-0.85,-0.62,
2809,-0.84,-0.61,
2810,-0.84,-0.61,
2811,-0.825,-0.6,
2812,-0.815,-0.595,
2813,-0.805,-0.61,
2814,-0.805,-0.61,
2815,-0.795,-0.615,
2816,-0.805,-0.615,
2817,-0.805,-0.61,
2818,-0.81,-0.595,
2819,-0.825,-0.59,
2820,-0.825,-0.585,
2821,-0.82,-0.58,
2822,-0.82,-0.59,
2823,-0.785,-0.57,
2824,-0.775,-0.59,
2825,-0.765,-0.59,
2826,-0.745,-0.595,
2827,-0.755,-0.615,
2828,-0.75,-0.63,
2829,-0.77,-0.64,
2830,-0.78,-0.645,
2831,-0.78,-0.645,
2832,-0.785,-0.645,
2833,-0.78,-0.635,
2834,-0.795,-0.63,
2835,-0.795,-0.64,
2836,-0.805,-0.65,
2837,-0.82,-0.645,
2838,-0.83,-0.655,
2839,-0.84,-0.655,
2840,-0.86,-0.63,
2841,-0.88,-0.635,
2842,-0.895,-0.63,
2843,-0.905,-0.61,
2844,-0.915,-0.62,
2845,-0.905,-0.605,
2846,-0.91,-0.605,
2847,-0.915,-0.61,
2848,-0.915,-0.62,
2849,-0.93,-0.615,
2850,-0.935,-0.62,
2851,-0.925,-0.63,
2852,-0.945,-0.63,
2853,-0.945,-0.635,
2854,-0.94,-0.62,
2855,-0.945,-0.61,
2856,-0.925,-0.605,
2857,-0.92,-0.615,
2858,-0.92,-0.6,
2859,-0.905,-0.605,
2860,-0.91,-0.61,
2861,-0.915,-0.63,
2862,-0.92,-0.625,
2863,-0.915,-0.63,
2864,-0.92,-0.64,
2865,-0.915,-0.63,
2866,-0.91,-0.625,
2867,-0.905,-0.62,
2868,-0.895,-0.605,
2869,-0.89,-0.59,
2870,-0.88,-0.595,
2871,-0.845,-0.585,
2872,-0.815,-0.585,
2873,-0.765,-0.595,
2874,-0.68,-0.605,
2875,-0.575,-0.63,
2876,-0.45,-0.65,
2877,-0.31,-0.68,
2878,-0.18,-0.69,
2879,-0.085,-0.705,
2880,-0.045,-0.72,N
2881,-0.065,-0.72,
2882,-0.16,-0.735,
2883,-0.285,-0.73,
2884,-0.435,-0.735,
2885,-0.585,-0.72,
2886,-0.745,-0.705,
2887,-0.925,-0.675,
2888,-1.105,-0.63,
2889,-1.235,-0.575,
2890,-1.295,-0.46,
2891,-1.27,-0.345,
2892,-1.215,-0.24,
2893,-1.16,-0.18,
2894,-1.155,-0.185,
2895,-1.15,-0.23,
2896,-1.17,-0.34,
2897,-1.15,-0.43,
2898,-1.125,-0.52,
2899,-1.1,-0.57,
2900,-1.07,-0.605,
2901,-1.04,-0.625,
2902,-1.025,-0.635,
2903,-1.025,-0.625,
2904,-1.015,-0.62,
2905,-1.015,-0.625,
2906,-1.01,-0.6,
2907,-1.005,-0.6,
2908,-1.015,-0.59,
2909,-1.015,-0.6,
2910,-1.005,-0.63,
2911,-1.015,-0.635,
2912,-1.025,-0.635,
2913,-1.025,-0.65,
2914,-1.03,-0.64,
2915,-1.035,-0.64,
2916,-1.02,-0.62,
2917,-1.01,-0.615,
2918,-1.015,-0.615,
2919,-1.01,-0.61,
2920,-1.015,-0.62,
2921,-1.005,-0.63,
2922,-1.015,-0.635,
2923,-1.025,-0.645,
2924,-1.03,-0.66,
2925,-1.03,-0.67,
2926,-1.025,-0.66,
2927,-1.035,-0.655,
2928,-1.03,-0.645,
2929,-1.025,-0.64,
2930,-1.035,-0.63,
2931,-1.025,-0.64,
2932,-1.025,-0.64,
2933,-1.03,-0.64,
2934,-1.05,-0.645,
2935,-1.045,-0.645,
2936,-1.06,-0.665,
2937,-1.07,-0.655,
2938,-1.06,-0.655,
2939,-1.065,-0.645,
2940,-1.055,-0.635,
2941,-1.06,-0.645,
2942,-1.045,-0.635,
2943,-1.025,-0.635,
2944,-1.035,-0.64,
2945,-1.035,-0.635,
2946,-1.045,-0.645,
2947,-1.05,-0.66,
2948,-1.065,-0.66,
2949,-1.075,-0.67,
2950,-1.09,-0.665,
2951,-1.095,-0.665,
2952,-1.095,-0.655,
2953,-1.085,-0.655,
2954,-1.085,-0.65,
2955,-1.065,-0.65,
2956,-1.075,-0.655,
2957,-1.08,-0.665,
2958,-1.09,-0.665,
2959,-1.09,-0.68,
2960,-1.095,-0.695,
2961,-1.095,-0.695,
2962,-1.1,-0.69,
2963,-1.09,-0.69,
2964,-1.1,-0.69,
2965,-1.07,-0.675,
2966,-1.07,-0.675,
2967,-1.07,-0.68,
2968,-1.065,-0.665,
2969,-1.065,-0.68,
2970,-1.07,-0.675,
2971,-1.075,-0.685,
2972,-1.075,-0.695,
2973,-1.07,-0.695,
2974,-1.06,-0.695,
2975,-1.05,-0.685,
2976,-1.035,-0.685,
2977,-1.015,-0.675,
2978,-1.01,-0.67,
2979,-0.985,-0.68,
2980,-0.985,-0.675,
2981,-0.965,-0.675,
2982,-0.95,-0.705,
2983,-0.95,-0.71,
2984,-0.93,-0.71,
2985,-0.9,-0.71,
2986,-0.895,-0.7,
2987,-0.865,-0.705,
2988,-0.84,-0.685,
2989,-0.815,-0.68,
2990,-0.785,-0.675,
2991,-0.76,-0.68,
2992,-0.745,-0.66,
2993,-0.755,-0.665,
2994,-0.745,-0.67,
2995,-0.735,-0.675,
2996,-0.73,-0.675,
2997,-0.72,-0.675,
2998,-0.715,-0.665,
2999,-0.71,-0.645,
3000,-0.705,-0.625,
3001,-0.695,-0.62,
3002,-0.705,-0.6,
3003,-0.7,-0.595,
3004,-0.715,-0.615,
3005,-0.705,-0.595,
3006,-0.71,-0.61,
3007,-0.715,-0.61,
3008,-0.725,-0.62,
3009,-0.72,-0.63,
3010,-0.73,-0.62,
3011,-0.74,-0.605,
3012,-0.725,-0.585,
3013,-0.725,-0.59,
3014,-0.73,-0.585,
3015,-0.71,-0.57,
3016,-0.72,-0.595,
3017,-0.72,-0.595,
3018,-0.72,-0.595,
3019,-0.73,-0.595,
3020,-0.735,-0.605,
3021,-0.745,-0.625,
3022,-0.755,-0.62,
3023,-0.75,-0.63,
3024,-0.74,-0.61,
3025,-0.74,-0.605,
3026,-0.74,-0.595,
3027,-0.74,-0.585,
3028,-0.75,-0.6,
3029,-0.735,-0.605,
3030,-0.73,-0.615,
3031,-0.75,-0.615,
3032,-0.765,-0.63,
3033,-0.76,-0.63,
3034,-0.76,-0.625,
3035,-0.76,-0.62,
3036,-0.75,-0.62,
3037,-0.75,-0.61,
3038,-0.745,-0.61,
3039,-0.735,-0.59,
3040,-0.74,-0.61,
3041,-0.73,-0.605,
3042,-0.745,-0.625,
3043,-0.74,-0.62,
3044,-0.75,-0.635,
3045,-0.745,-0.625,
3046,-0.75,-0.62,
3047,-0.755,-0.62,
3048,-0.75,-0.6,
3049,-0.735,-0.605,
3050,-0.725,-0.605,
3051,-0.72,-0.59,
3052,-0.705,-0.59,
3053,-0.72,-0.59,
3054,-0.725,-0.61,
3055,-0.735,-0.61,
3056,-0.735,-0.625,
3057,-0.74,-0.635,
3058,-0.735,-0.62,
3059,-0.715,-0.61,
3060,-0.7,-0.615,
3061,-0.68,-0.605,
3062,-0.68,-0.585,
3063,-0.67,-0.57,
3064,-0.67,-0.57,
3065,-0.665,-0.555,
3066,-0.68,-0.575,
3067,-0.69,-0.58,
3068,-0.68,-0.59,
3069,-0.685,-0.6,
3070,-0.675,-0.6,
3071,-0.655,-0.6,
3072,-0.635,-0.6,
3073,-0.615,-0.59,
3074,-0.605,-0.59,
3075,-0.595,-0.595,
3076,-0.6,-0.605,
3077,-0.605,-0.6,
3078,-0.62,-0.605,
3079,-0.635,-0.625,
3080,-0.655,-0.655,
3081,-0.675,-0.64,
3082,-0.675,-0.64,
3083,-0.695,-0.645,
3084,-0.685,-0.635,
3085,-0.68,-0.63,
3086,-0.685,-0.615,
3087,-0.685,-0.61,
3088,-0.7,-0.61,
3089,-0.72,-0.62,
3090,-0.74,-0.61,
3091,-0.755,-0.615,
3092,-0.76,-0.62,
3093,-0.775,-0.62,
3094,-0.795,-0.61,
3095,-0.79,-0.61,
3096,-0.785,-0.61,
3097,-0.775,-0.61,
3098,-0.78,-0.605,
3099,-0.77,-0.585,
3100,-0.775,-0.59,
3101,-0.775,-0.6,
3102,-0.78,-0.59,
3103,-0.79,-0.605,
3104,-0.79,-0.61,
3105,-0.795,-0.615,
3106,-0.805,-0.62,
3107,-0.8,-0.61,
3108,-0.795,-0.585,
3109,-0.775,-0.59,
3110,-0.775,-0.58,
3111,-0.76,-0.575,
3112,-0.77,-0.59,
3113,-0.77,-0.575,
3114,-0.77,-0.58,
3115,-0.775,-0.585,
3116,-0.775,-0.6,
3117,-0.79,-0.595,
3118,-0.78,-0.595,
3119,-0.775,-0.59,
3120,-0.745,-0.57,
3121,-0.675,-0.565,
3122,-0.605,-0.57,
3123,-0.505,-0.585,
3124,-0.37,-0.605,
3125,-0.225,-0.635,
3126,-0.075,-0.66,
3127,0.045,-0.685,
3128,0.095,-0.71,N
3129,0.05,-0.725,
3130,-0.07,-0.73,
3131,-0.22,-0.715,
3132,-0.395,-0.7,
3133,-0.6,-0.675,
3134,-0.8,-0.62,
3135,-0.965,-0.55,
3136,-1.06,-0.47,
3137,-1.08,-0.37,
3138,-1.06,-0.26,
3139,-1.045,-0.205,
3140,-1.025,-0.225,
3141,-1.01,-0.295,
3142,-1.0,-0.385,
3143,-0.97,-0.465,
3144,-0.94,-0.525,
3145,-0.915,-0.54,
3146,-0.9,-0.56,
3147,-0.875,-0.565,
3148,-0.86,-0.565,
3149,-0.87,-0.585,
3150,-0.87,-0.59,
3151,-0.865,-0.59,
3152,-0.86,-0.595,
3153,-0.88,-0.61,
3154,-0.875,-0.61,
3155,-0.885,-0.595,
3156,-0.885,-0.59,
3157,-0.875,-0.585,
3158,-0.86,-0.58,
3159,-0.84,-0.595,
3160,-0.85,-0.6,
3161,-0.855,-0.595,
3162,-0.855,-0.6,
3163,-0.865,-0.605,
3164,-0.885,-0.605,
3165,-0.875,-0.61,
3166,-0.885,-0.615,
3167,-0.875,-0.605,
3168,-0.87,-0.6,
3169,-0.865,-0.59,
3170,-0.86,-0.585,
3171,-0.865,-0.585,
3172,-0.87,-0.585,
3173,-0.87,-0.585,
3174,-0.87,-0.595,
3175,-0.88,-0.605,
3176,-0.885,-0.615,
3177,-0.89,-0.605,
3178,-0.885,-0.62,
3179,-0.885,-0.615,
3180,-0.895,-0.6,
3181,-0.89,-0.6,
3182,-0.89,-0.59,
3183,-0.885,-0.585,
3184,-0.88,-0.6,
3185,-0.885,-0.605,
3186,-0.89,-0.625,
3187,-0.9,-0.63,
3188,-0.905,-0.635,
3189,-0.91,-0.64,
3190,-0.92,-0.63,
3191,-0.92,-0.63,
3192,-0.92,-0.615,
3193,-0.93,-0.61,
3194,-0.915,-0.615,
3195,-0.905,-0.605,
3196,-0.905,-0.62,
3197,-0.91,-0.615,
3198,-0.905,-0.625,
3199,-0.925,-0.625,
3200,-0.94,-0.635,
3201,-0.94,-0.635,
3202,-0.95,-0.64,
3203,-0.95,-0.635,
3204,-0.945,-0.625,
3205,-0.94,-0.625,
3206,-0.94,-0.62,
3207,-0.95,-0.62,
3208,-0.94,-0.615,
3209,-0.96,-0.615,
3210,-0.96,-0.625,
3211,-0.965,-0.64,
3212,-0.975,-0.65,
3213,-0.965,-0.66,
3214,-0.975,-0.665,
3215,-0.97,-0.645,
3216,-0.965,-0.635,
3217,-0.945,-0.645,
3218,-0.935,-0.635,
3219,-0.935,-0.64,
3220,-0.925,-0.635,
3221,-0.925,-0.645,
3222,-0.925,-0.665,
3223,-0.935,-0.66,
3224,-0.935,-0.67,
3225,-0.945,-0.675,
3226,-0.94,-0.665,
3227,-0.925,-0.655,
3228,-0.91,-0.66,
3229,-0.865,-0.655,
3230,-0.85,-0.64,
3231,-0.83,-0.62,
3232,-0.815,-0.625,
3233,-0.795,-0.63,
3234,-0.775,-0.65,
3235,-0.765,-0.655,
3236,-0.74,-0.665,
3237,-0.73,-0.67,
3238,-0.705,-0.675,
3239,-0.69,-0.66,
3240,-0.66,-0.64,
3241,-0.64,-0.645,
3242,-0.61,-0.625,
3243,-0.6,-0.615,
3244,-0.59,-0.63,
3245,-0.585,-0.615,
3246,-0.575,-0.625,
3247,-0.58,-0.63,
3248,-0.57,-0.625,
3249,-0.58,-0.64,
3250,-0.585,-0.62,
3251,-0.58,-0.625,
3252,-0.575,-0.61,
3253,-0.565,-0.585,
3254,-0.56,-0.585,
3255,-0.555,-0.57,
3256,-0.56,-0.58,
3257,-0.575,-0.57,
3258,-0.585,-0.58,
3259,-0.59,-0.585,
3260,-0.59,-0.585,
3261,-0.6,-0.585,
3262,-0.62,-0.575,
3263,-0.605,-0.57,
3264,-0.6,-0.545,
3265,-0.605,-0.555,
3266,-0.595,-0.54,
3267,-0.595,-0.54,
3268,-0.595,-0.545,
3269,-0.6,-0.54,
3270,-0.6,-0.56,
3271,-0.605,-0.565,
3272,-0.615,-0.57,
3273,-0.625,-0.57,
3274,-0.62,-0.575,
3275,-0.615,-0.565,
3276,-0.61,-0.56,
3277,-0.61,-0.56,
3278,-0.62,-0.565,
3279,-0.6,-0.55,
3280,-0.605,-0.565,
3281,-0.62,-0.56,
3282,-0.625,-0.57,
3283,-0.63,-0.585,
3284,-0.65,-0.585,
3285,-0.645,-0.59,
3286,-0.66,-0.595,
3287,-0.645,-0.585,
3288,-0.645,-0.585,
3289,-0.63,-0.58,
3290,-0.63,-0.57,
3291,-0.61,-0.575,
3292,-0.62,-0.57,
3293,-0.635,-0.565,
3294,-0.635,-0.57,
3295,-0.65,-0.58,
3296,-0.645,-0.585,
3297,-0.66,-0.595,
3298,-0.65,-0.595,
3299,-0.635,-0.59,
3300,-0.64,-0.59,
3301,-0.64,-0.585,
3302,-0.63,-0.57,
3303,-0.64,-0.565,
3304,-0.625,-0.58,
3305,-0.635,-0.57,
3306,-0.635,-0.575,
3307,-0.63,-0.585,
3308,-0.64,-0.585,
3309,-0.62,-0.595,
3310,-0.63,-0.595,
3311,-0.615,-0.58,
3312,-0.6,-0.57,
3313,-0.58,-0.555,
3314,-0.56,-0.545,
3315,-0.55,-0.54,
3316,-0.54,-0.545,
3317,-0.53,-0.535,
3318,-0.54,-0.535,
3319,-0.55,-0.55,
3320,-0.55,-0.565,
3321,-0.555,-0.57,
3322,-0.555,-0.56,
3323,-0.55,-0.565,
3324,-0.54,-0.57,
3325,-0.525,-0.575,
3326,-0.52,-0.555,
3327,-0.5,-0.555,
3328,-0.495,-0.565,
3329,-0.5,-0.56,
3330,-0.51,-0.57,
3331,-0.535,-0.59,
3332,-0.555,-0.605,
3333,-0.58,-0.615,
3334,-0.59,-0.615,
3335,-0.6,-0.615,
3336,-0.595,-0.61,
3337,-0.595,-0.6,
3338,-0.595,-0.59,
3339,-0.585,-0.595,
3340,-0.615,-0.595,
3341,-0.62,-0.59,
3342,-0.625,-0.58,
3343,-0.645,-0.58,
3344,-0.665,-0.575,
3345,-0.675,-0.575,
3346,-0.7,-0.585,
3347,-0.7,-0.57,
3348,-0.695,-0.575,
3349,-0.695,-0.57,
3350,-0.69,-0.57,
3351,-0.7,-0.565,
3352,-0.695,-0.575,
3353,-0.685,-0.555,
3354,-0.695,-0.575,
3355,-0.705,-0.575,
3356,-0.71,-0.59,
3357,-0.72,-0.6,
3358,-0.72,-0.59,
3359,-0.71,-0.58,
3360,-0.705,-0.565,
3361,-0.7,-0.56,
3362,-0.69,-0.55,
3363,-0.69,-0.535,
3364,-0.685,-0.535,
3365,-0.685,-0.545,
3366,-0.695,-0.53,
3367,-0.69,-0.54,
3368,-0.675,-0.54,
3369,-0.65,-0.55,
3370,-0.6,-0.545,
3371,-0.53,-0.565,
3372,-0.425,-0.555,
3373,-0.3,-0.57,
3374,-0.175,-0.58,
3375,-0.025,-0.585,
3376,0.09,-0.615,
3377,0.17,-0.62,N
3378,0.195,-0.63,
3379,0.14,-0.65,
3380,0.03,-0.66,
3381,-0.12,-0.67,
3382,-0.27,-0.675,
3383,-0.415,-0.665,
3384,-0.58,-0.635,
3385,-0.73,-0.595,
3386,-0.855,-0.535,
3387,-0.905,-0.44,
3388,-0.915,-0.345,
3389,-0.91,-0.285,
3390,-0.865,-0.26,
3391,-0.84,-0.28,
3392,-0.81,-0.335,
3393,-0.79,-0.4,
3394,-0.785,-0.47,
3395,-0.79,-0.505,
3396,-0.79,-0.525,
3397,-0.795,-0.535,
3398,-0.805,-0.54,
3399,-0.795,-0.54,
3400,-0.795,-0.545,
3401,-0.79,-0.555,
3402,-0.79,-0.565,
3403,-0.79,-0.575,
3404,-0.795,-0.58,
3405,-0.81,-0.575,
3406,-0.82,-0.585,
3407,-0.84,-0.575,
3408,-0.84,-0.565,
3409,-0.82,-0.565,
3410,-0.8,-0.565,
3411,-0.8,-0.56,
3412,-0.795,-0.56,
3413,-0.805,-0.575,
3414,-0.81,-0.575,
3415,-0.82,-0.59,
3416,-0.82,-0.59,
3417,-0.83,-0.6,
3418,-0.84,-0.6,
3419,-0.84,-0.59,
3420,-0.835,-0.59,
3421,-0.825,-0.575,
3422,-0.825,-0.575,
3423,-0.82,-0.575,
3424,-0.825,-0.565,
3425,-0.835,-0.575,
3426,-0.84,-0.58,
3427,-0.85,-0.575,
3428,-0.855,-0.595,
3429,-0.865,-0.595,
3430,-0.885,-0.59,
3431,-0.865,-0.595,
3432,-0.875,-0.59,
3433,-0.875,-0.585,
3434,-0.875,-0.57,
3435,-0.88,-0.565,
3436,-0.885,-0.585,
3437,-0.895,-0.585,
3438,-0.905,-0.595,
3439,-0.905,-0.6,
3440,-0.92,-0.61,
3441,-0.92,-0.605,
3442,-0.92,-0.605,
3443,-0.93,-0.605,
3444,-0.925,-0.595,
3445,-0.93,-0.595,
3446,-0.93,-0.585,
3447,-0.92,-0.58,
3448,-0.925,-0.59,
3449,-0.92,-0.595,
3450,-0.94,-0.595,
3451,-0.955,-0.6,
3452,-0.95,-0.605,
3453,-0.965,-0.61,
3454,-0.96,-0.595,
3455,-0.955,-0.605,
3456,-0.95,-0.605,
3457,-0.96,-0.585,
3458,-0.95,-0.585,
3459,-0.95,-0.58,
3460,-0.945,-0.58,
3461,-0.955,-0.585,
3462,-0.955,-0.6,
3463,-0.965,-0.61,
3464,-0.96,-0.605,
3465,-0.965,-0.62,
3466,-0.965,-0.62,
3467,-0.95,-0.605,
3468,-0.94,-0.595,
3469,-0.925,-0.59,
3470,-0.92,-0.585,
3471,-0.91,-0.575,
3472,-0.89,-0.59,
3473,-0.885,-0.595,
3474,-0.88,-0.61,
3475,-0.87,-0.605,
3476,-0.865,-0.615,
3477,-0.86,-0.625,
3478,-0.835,-0.64,
3479,-0.81,-0.63,
3480,-0.795,-0.62,
3481,-0.77,-0.615,
3482,-0.73,-0.61,
3483,-0.695,-0.605,
3484,-0.665,-0.61,
3485,-0.645,-0.61,
3486,-0.625,-0.61,
3487,-0.61,-0.61,
3488,-0.62,-0.615,
3489,-0.61,-0.61,
3490,-0.605,-0.61,
3491,-0.595,-0.605,
3492,-0.585,-0.59,
3493,-0.565,-0.575,
3494,-0.57,-0.57,
3495,-0.55,-0.555,
3496,-0.555,-0.555,
3497,-0.56,-0.56,
3498,-0.565,-0.56,
3499,-0.57,-0.57,
3500,-0.585,-0.575,
3501,-0.59,-0.575,
3502,-0.595,-0.585,
3503,-0.6,-0.57,
3504,-0.595,-0.56,
3505,-0.59,-0.565,
3506,-0.59,-0.57,
3507,-0.58,-0.55,
3508,-0.58,-0.55,
3509,-0.59,-0.56,
3510,-0.62,-0.56,
3511,-0.61,-0.57,
3512,-0.61,-0.565,
3513,-0.625,-0.575,
3514,-0.62,-0.57,
3515,-0.62,-0.555,
3516,-0.615,-0.555,
3517,-0.62,-0.54,
3518,-0.625,-0.545,
3519,-0.625,-0.525,
3520,-0.62,-0.535,
3521,-0.615,-0.55,
3522,-0.615,-0.555,
3523,-0.625,-0.56,
3524,-0.63,-0.57,
3525,-0.64,-0.565,
3526,-0.64,-0.565,
3527,-0.655,-0.565,
3528,-0.65,-0.555,
3529,-0.64,-0.545,
3530,-0.64,-0.55,
3531,-0.64,-0.545,
3532,-0.63,-0.545,
3533,-0.635,-0.545,
3534,-0.66,-0.545,
3535,-0.66,-0.565,
3536,-0.65,-0.565,
3537,-0.655,-0.58,
3538,-0.65,-0.58,
3539,-0.65,-0.565,
3540,-0.65,-0.575,
3541,-0.635,-0.555,
3542,-0.64,-0.55,
3543,-0.64,-0.555,
3544,-0.63,-0.545,
3545,-0.62,-0.565,
3546,-0.62,-0.58,
3547,-0.635,-0.575,
3548,-0.635,-0.575,
3549,-0.655,-0.565,
3550,-0.655,-0.58,
3551,-0.645,-0.565,
3552,-0.63,-0.56,
3553,-0.615,-0.55,
3554,-0.6,-0.54,
3555,-0.585,-0.53,
3556,-0.565,-0.525,
3557,-0.57,-0.525,
3558,-0.575,-0.515,
3559,-0.555,-0.53,
3560,-0.55,-0.53,
3561,-0.56,-0.54,
3562,-0.55,-0.53,
3563,-0.555,-0.52,
3564,-0.545,-0.525,
3565,-0.545,-0.515,
3566,-0.55,-0.52,
3567,-0.535,-0.52,
3568,-0.525,-0.53,
3569,-0.51,-0.56,
3570,-0.515,-0.57,
3571,-0.53,-0.585,
3572,-0.54,-0.6,
3573,-0.55,-0.6,
3574,-0.565,-0.605,
3575,-0.59,-0.605,
3576,-0.595,-0.605,
3577,-0.615,-0.605,
3578,-0.62,-0.58,
3579,-0.61,-0.575,
3580,-0.615,-0.585,
3581,-0.635,-0.585,
3582,-0.635,-0.595,
3583,-0.645,-0.58,
3584,-0.66,-0.58,
3585,-0.675,-0.56,
3586,-0.685,-0.56,
3587,-0.69,-0.555,
3588,-0.69,-0.54,
3589,-0.695,-0.545,
3590,-0.695,-0.525,
3591,-0.685,-0.525,
3592,-0.68,-0.535,
3593,-0.7,-0.54,
3594,-0.71,-0.54,
3595,-0.72,-0.545,
3596,-0.71,-0.56,
3597,-0.725,-0.57,
3598,-0.725,-0.56,
3599,-0.72,-0.56,
3600,-0.71,-0.55,
3601,-0.7,-0.545,
3602,-0.705,-0.545,
3603,-0.69,-0.53,
3604,-0.69,-0.53,
3605,-0.685,-0.54,
3606,-0.69,-0.54,
3607,-0.71,-0.55,
3608,-0.695,-0.535,
3609,-0.71,-0.54,
3610,-0.71,-0.55,
3611,-0.7,-0.535,
3612,-0.68,-0.52,
3613,-0.655,-0.51,
3614,-0.605,-0.505,
3615,-0.55,-0.495,
3616,-0.475,-0.515,
3617,-0.4,-0.525,
3618,-0.29,-0.55,
3619,-0.165,-0.575,
3620,-0.045,-0.59,
3621,0.055,-0.605,
3622,0.12,-0.62,N
3623,0.145,-0.62,
3624,0.09,-0.61,
3625,-0.01,-0.61,
3626,-0.145,-0.62,
3627,-0.27,-0.63,
3628,-0.41,-0.615,
3629,-0.57,-0.615,
3630,-0.73,-0.57,
3631,-0.87,-0.505,
3632,-0.93,-0.425,
3633,-0.94,-0.335,
3634,-0.915,-0.275,
3635,-0.875,-0.265,
3636,-0.82,-0.3,
3637,-0.775,-0.355,
3638,-0.77,-0.415,
3639,-0.765,-0.44,
3640,-0.79,-0.49,
3641,-0.815,-0.51,
3642,-0.83,-0.53,
3643,-0.83,-0.545,
3644,-0.835,-0.56,
3645,-0.84,-0.555,
3646,-0.84,-0.565,
3647,-0.82,-0.545,
3648,-0.81,-0.54,
3649,-0.815,-0.525,
3650,-0.82,-0.525,
3651,-0.815,-0.51,
3652,-0.815,-0.515,
3653,-0.815,-0.53,
3654,-0.82,-0.54,
3655,-0.825,-0.545,
3656,-0.83,-0.555,
3657,-0.835,-0.555,
3658,-0.85,-0.555,
3659,-0.845,-0.55,
3660,-0.85,-0.55,
3661,-0.84,-0.54,
3662,-0.835,-0.53,
3663,-0.83,-0.52,
3664,-0.835,-0.52,
3665,-0.845,-0.52,
3666,-0.85,-0.54,
3667,-0.85,-0.55,
3668,-0.86,-0.56,
3669,-0.87,-0.555,
3670,-0.875,-0.565,
3671,-0.88,-0.55,
3672,-0.875,-0.55,
3673,-0.87,-0.55,
3674,-0.87,-0.535,
3675,-0.86,-0.52,
3676,-0.86,-0.53,
3677,-0.875,-0.535,
3678,-0.88,-0.535,
3679,-0.88,-0.55,
3680,-0.89,-0.56,
3681,-0.9,-0.555,
3682,-0.9,-0.56,
3683,-0.9,-0.555,
3684,-0.9,-0.535,
3685,-0.895,-0.535,
3686,-0.895,-0.535,
3687,-0.9,-0.53,
3688,-0.895,-0.525,
3689,-0.905,-0.545,
3690,-0.91,-0.55,
3691,-0.92,-0.565,
3692,-0.93,-0.565,
3693,-0.935,-0.57,
3694,-0.935,-0.57,
3695,-0.935,-0.565,
3696,-0.94,-0.565,
3697,-0.94,-0.55,
3698,-0.945,-0.545,
3699,-0.945,-0.535,
3700,-0.95,-0.545,
3701,-0.96,-0.545,
3702,-0.97,-0.56,
3703,-0.98,-0.58,
3704,-0.98,-0.58,
3705,-0.985,-0.59,
3706,-0.99,-0.595,
3707,-0.99,-0.575,
3708,-0.985,-0.575,
3709,-0.965,-0.56,
3710,-0.97,-0.55,
3711,-0.97,-0.545,
3712,-0.955,-0.56,
3713,-0.955,-0.56,
3714,-0.955,-0.565,
3715,-0.955,-0.57,
3716,-0.955,-0.585,
3717,-0.95,-0.585,
3718,-0.95,-0.575,
3719,-0.94,-0.575,
3720,-0.93,-0.57,
3721,-0.915,-0.57,
3722,-0.895,-0.56,
3723,-0.88,-0.555,
3724,-0.87,-0.56,
3725,-0.845,-0.555,
3726,-0.825,-0.575,
3727,-0.81,-0.58,
3728,-0.795,-0.59,
3729,-0.79,-0.6,
3730,-0.775,-0.605,
3731,-0.745,-0.6,
3732,-0.72,-0.595,
3733,-0.695,-0.59,
3734,-0.66,-0.58,
3735,-0.645,-0.565,
3736,-0.63,-0.57,
3737,-0.61,-0.57,
3738,-0.605,-0.58,
3739,-0.605,-0.58,
3740,-0.605,-0.59,
3741,-0.605,-0.595,
3742,-0.61,-0.58,
3743,-0.605,-0.575,
3744,-0.595,-0.555,
3745,-0.59,-0.54,
3746,-0.585,-0.54,
3747,-0.58,-0.54,
3748,-0.58,-0.525,
3749,-0.58,-0.53,
3750,-0.59,-0.54,
3751,-0.6,-0.54,
3752,-0.595,-0.55,
3753,-0.62,-0.545,
3754,-0.62,-0.555,
3755,-0.62,-0.545,
3756,-0.62,-0.545,
3757,-0.615,-0.54,
3758,-0.615,-0.54,
3759,-0.61,-0.53,
3760,-0.61,-0.53,
3761,-0.61,-0.545,
3762,-0.605,-0.54,
3763,-0.625,-0.55,
3764,-0.63,-0.555,
3765,-0.635,-0.575,
3766,-0.645,-0.565,
3767,-0.65,-0.565,
3768,-0.645,-0.555,
3769,-0.65,-0.555,
3770,-0.645,-0.535,
3771,-0.645,-0.53,
3772,-0.63,-0.535,
3773,-0.64,-0.54,
3774,-0.655,-0.54,
3775,-0.65,-0.55,
3776,-0.655,-0.56,
3777,-0.665,-0.55,
3778,-0.665,-0.555,
3779,-0.665,-0.555,
3780,-0.68,-0.55,
3781,-0.68,-0.545,
3782,-0.67,-0.535,
3783,-0.66,-0.525,
3784,-0.655,-0.525,
3785,-0.67,-0.535,
3786,-0.655,-0.535,
3787,-0.66,-0.555,
3788,-0.68,-0.56,
3789,-0.685,-0.57,
3790,-0.69,-0.58,
3791,-0.685,-0.56,
3792,-0.69,-0.56,
3793,-0.68,-0.545,
3794,-0.68,-0.535,
3795,-0.675,-0.54,
3796,-0.665,-0.535,
3797,-0.665,-0.54,
3798,-0.67,-0.55,
3799,-0.68,-0.55,
3800,-0.675,-0.57,
3801,-0.68,-0.56,
3802,-0.665,-0.57,
3803,-0.665,-0.565,
3804,-0.64,-0.55,
3805,-0.625,-0.54,
3806,-0.605,-0.52,
3807,-0.595,-0.505,
3808,-0.58,-0.5,
3809,-0.585,-0.505,
3810,-0.58,-0.505,
3811,-0.57,-0.52,
3812,-0.585,-0.52,
3813,-0.59,-0.53,
3814,-0.6,-0.53,
3815,-0.605,-0.54,
3816,-0.59,-0.535,
3817,-0.575,-0.545,
3818,-0.56,-0.54,
3819,-0.555,-0.53,
3820,-0.54,-0.54,
3821,-0.545,-0.555,
3822,-0.55,-0.57,
3823,-0.575,-0.59,
3824,-0.59,-0.585,
3825,-0.62,-0.6,
3826,-0.64,-0.6,
3827,-0.655,-0.595,
3828,-0.655,-0.595,
3829,-0.645,-0.595,
3830,-0.65,-0.58,
3831,-0.65,-0.575,
3832,-0.655,-0.575,
3833,-0.655,-0.58,
3834,-0.67,-0.57,
3835,-0.705,-0.575,
3836,-0.72,-0.565,
3837,-0.73,-0.54,
3838,-0.745,-0.555,
3839,-0.75,-0.545,
3840,-0.755,-0.545,
3841,-0.75,-0.535,
3842,-0.755,-0.52,
3843,-0.735,-0.515,
3844,-0.745,-0.525,
3845,-0.75,-0.525,
3846,-0.755,-0.54,
3847,-0.755,-0.545,
3848,-0.765,-0.56,
3849,-0.755,-0.56,
3850,-0.76,-0.55,
3851,-0.765,-0.555,
3852,-0.76,-0.55,
3853,-0.745,-0.54,
3854,-0.745,-0.515,
3855,-0.735,-0.515,
3856,-0.735,-0.525,
3857,-0.735,-0.535,
3858,-0.725,-0.535,
3859,-0.74,-0.535,
3860,-0.735,-0.535,
3861,-0.74,-0.53,
3862,-0.73,-0.53,
3863,-0.665,-0.53,
3864,-0.61,-0.525,
3865,-0.52,-0.535,
3866,-0.4,-0.55,
3867,-0.265,-0.56,
3868,-0.145,-0.58,
3869,-0.02,-0.605,
3870,0.055,-0.63,
3871,0.06,-0.63,N
3872,-0.01,-0.64,
3873,-0.125,-0.655,
3874,-0.26,-0.665,
3875,-0.385,-0.675,
3876,-0.525,-0.675,
3877,-0.675,-0.645,
3878,-0.81,-0.59,
3879,-0.91,-0.52,
3880,-0.94,-0.43,
3881,-0.95,-0.345,
3882,-0.925,-0.275,
3883,-0.9,-0.245,
3884,-0.875,-0.285,
3885,-0.855,-0.36,
3886,-0.85,-0.42,
3887,-0.85,-0.485,
3888,-0.875,-0.505,
3889,-0.87,-0.535,
3890,-0.87,-0.55,
3891,-0.865,-0.555,
3892,-0.855,-0.56,
3893,-0.85,-0.56,
3894,-0.86,-0.565,
3895,-0.865,-0.565,
3896,-0.86,-0.585,
3897,-0.865,-0.58,
3898,-0.865,-0.595,
3899,-0.88,-0.575,
3900,-0.87,-0.585,
3901,-0.86,-0.57,
3902,-0.86,-0.56,
3903,-0.865,-0.55,
3904,-0.845,-0.555,
3905,-0.845,-0.555,
3906,-0.855,-0.56,
3907,-0.865,-0.575,
3908,-0.875,-0.575,
3909,-0.885,-0.595,
3910,-0.905,-0.58,
3911,-0.895,-0.575,
3912,-0.89,-0.565,
3913,-0.88,-0.56,
3914,-0.87,-0.56,
3915,-0.88,-0.55,
3916,-0.88,-0.555,
3917,-0.88,-0.555,
3918,-0.89,-0.56,
3919,-0.915,-0.58,
3920,-0.915,-0.58,
3921,-0.93,-0.575,
3922,-0.925,-0.595,
3923,-0.93,-0.595,
3924,-0.915,-0.605,
3925,-0.91,-0.58,
3926,-0.91,-0.57,
3927,-0.915,-0.57,
3928,-0.905,-0.57,
3929,-0.92,-0.575,
3930,-0.915,-0.57,
3931,-0.94,-0.585,
3932,-0.96,-0.59,
3933,-0.945,-0.585,
3934,-0.96,-0.585,
3935,-0.96,-0.58,
3936,-0.965,-0.575,
3937,-0.965,-0.575,
3938,-0.955,-0.57,
3939,-0.955,-0.56,
3940,-0.96,-0.56,
3941,-0.955,-0.575,
3942,-0.965,-0.57,
3943,-0.985,-0.585,
3944,-0.99,-0.595,
3945,-1.005,-0.59,
3946,-0.995,-0.605,
3947,-1.0,-0.6,
3948,-1.0,-0.585,
3949,-1.0,-0.58,
3950,-1.0,-0.58,
3951,-0.985,-0.58,
3952,-0.995,-0.58,
3953,-0.99,-0.59,
3954,-0.99,-0.59,
3955,-1.01,-0.6,
3956,-1.01,-0.61,
3957,-1.015,-0.62,
3958,-1.015,-0.615,
3959,-1.005,-0.615,
3960,-0.995,-0.605,
3961,-0.995,-0.61,
3962,-0.98,-0.6,
3963,-0.975,-0.59,
3964,-0.955,-0.585,
3965,-0.95,-0.59,
3966,-0.96,-0.59,
3967,-0.97,-0.595,
3968,-0.955,-0.6,
3969,-0.96,-0.61,
3970,-0.955,-0.61,
3971,-0.94,-0.605,
3972,-0.92,-0.59,
3973,-0.9,-0.59,
3974,-0.875,-0.595,
3975,-0.865,-0.59,
3976,-0.835,-0.59,
3977,-0.81,-0.595,
3978,-0.785,-0.6,
3979,-0.765,-0.61,
3980,-0.765,-0.615,
3981,-0.745,-0.62,
3982,-0.725,-0.625,
3983,-0.72,-0.61,
3984,-0.705,-0.615,
3985,-0.7,-0.61,
3986,-0.675,-0.6,
3987,-0.66,-0.59,
3988,-0.645,-0.59,
3989,-0.635,-0.59,
3990,-0.625,-0.585,
3991,-0.63,-0.59,
3992,-0.645,-0.6,
3993,-0.63,-0.605,
3994,-0.65,-0.605,
3995,-0.63,-0.6,
3996,-0.635,-0.585,
3997,-0.635,-0.57,
3998,-0.625,-0.57,
3999,-0.625,-0.565,
4000,-0.615,-0.555,
4001,-0.635,-0.55,
4002,-0.63,-0.56,
4003,-0.65,-0.555,
4004,-0.66,-0.57,
4005,-0.675,-0.575,
4006,-0.67,-0.575,
4007,-0.685,-0.57,
4008,-0.68,-0.555,
4009,-0.685,-0.55,
4010,-0.685,-0.55,
4011,-0.675,-0.535,
4012,-0.67,-0.54,
4013,-0.67,-0.545,
4014,-0.67,-0.555,
4015,-0.675,-0.565,
4016,-0.685,-0.58,
4017,-0.7,-0.575,
4018,-0.705,-0.575,
4019,-0.705,-0.575,
4020,-0.7,-0.575,
4021,-0.695,-0.57,
4022,-0.69,-0.565,
4023,-0.695,-0.565,
4024,-0.685,-0.555,
4025,-0.69,-0.575,
4026,-0.685,-0.57,
4027,-0.705,-0.58,
4028,-0.715,-0.575,
4029,-0.72,-0.595,
4030,-0.72,-0.595,
4031,-0.715,-0.585,
4032,-0.72,-0.575,
4033,-0.72,-0.56,
4034,-0.71,-0.555,
4035,-0.71,-0.55,
4036,-0.7,-0.545,
4037,-0.71,-0.555,
4038,-0.715,-0.57,
4039,-0.71,-0.56,
4040,-0.72,-0.57,
4041,-0.725,-0.57,
4042,-0.73,-0.585,
4043,-0.735,-0.58,
4044,-0.73,-0.57,
4045,-0.72,-0.565,
4046,-0.71,-0.555,
4047,-0.7,-0.56,
4048,-0.695,-0.56,
4049,-0.7,-0.565,
4050,-0.7,-0.57,
4051,-0.68,-0.565,
4052,-0.685,-0.57,
4053,-0.675,-0.585,
4054,-0.67,-0.58,
4055,-0.665,-0.57,
4056,-0.645,-0.55,
4057,-0.63,-0.545,
4058,-0.62,-0.54,
4059,-0.615,-0.53,
4060,-0.6,-0.535,
4061,-0.625,-0.535,
4062,-0.625,-0.535,
4063,-0.63,-0.54,
4064,-0.635,-0.555,
4065,-0.645,-0.565,
4066,-0.635,-0.575,
4067,-0.635,-0.58,
4068,-0.62,-0.585,
4069,-0.6,-0.59,
4070,-0.6,-0.59,
4071,-0.605,-0.58,
4072,-0.615,-0.57,
4073,-0.645,-0.575,
4074,-0.68,-0.585,
4075,-0.71,-0.59,
4076,-0.7,-0.595,
4077,-0.705,-0.615,
4078,-0.71,-0.625,
4079,-0.715,-0.615,
4080,-0.725,-0.595,
4081,-0.73,-0.59,
4082,-0.73,-0.575,
4083,-0.76,-0.555,
4084,-0.75,-0.535,
4085,-0.775,-0.53,
4086,-0.765,-0.545,
4087,-0.775,-0.555,
4088,-0.795,-0.57,
4089,-0.795,-0.58,
4090,-0.815,-0.57,
4091,-0.805,-0.575,
4092,-0.805,-0.565,
4093,-0.8,-0.57,
4094,-0.795,-0.56,
4095,-0.79,-0.545,
4096,-0.785,-0.555,
4097,-0.795,-0.55,
4098,-0.785,-0.545,
4099,-0.805,-0.565,
4100,-0.805,-0.545,
4101,-0.795,-0.57,
4102,-0.79,-0.57,
4103,-0.8,-0.565,
4104,-0.795,-0.565,
4105,-0.79,-0.555,
4106,-0.785,-0.535,
4107,-0.79,-0.525,
4108,-0.77,-0.515,
4109,-0.775,-0.515,
4110,-0.75,-0.515,
4111,-0.72,-0.53,
4112,-0.675,-0.545,
4113,-0.605,-0.565,
4114,-0.5,-0.575,
4115,-0.39,-0.595,
4116,-0.255,-0.61,
4117,-0.135,-0.635,
4118,-0.025,-0.64,
4119,0.015,-0.645,N
4120,0.0,-0.65,
4121,-0.095,-0.655,
4122,-0.225,-0.675,
4123,-0.36,-0.69,
4124,-0.475,-0.705,
4125,-0.59,-0.7,
4126,-0.73,-0.685,
4127,-0.86,-0.645,
4128,-0.965,-0.59,
4129,-1.025,-0.495,
4130,-1.035,-0.41,
4131,-1.01,-0.3,
4132,-0.97,-0.24,
4133,-0.945,-0.22,
4134,-0.94,-0.265,
4135,-0.94,-0.325,
4136,-0.935,-0.42,
4137,-0.94,-0.475,
4138,-0.945,-0.515,
4139,-0.94,-0.54,
4140,-0.925,-0.545,
4141,-0.91,-0.555,
4142,-0.905,-0.54,
4143,-0.895,-0.545,
4144,-0.885,-0.545,
4145,-0.89,-0.555,
4146,-0.905,-0.545,
4147,-0.9,-0.555,
4148,-0.915,-0.565,
4149,-0.93,-0.585,
4150,-0.915,-0.585,
4151,-0.92,-0.58,
4152,-0.92,-0.58,
4153,-0.925,-0.56,
4154,-0.91,-0.56,
4155,-0.91,-0.55,
4156,-0.9,-0.55,
4157,-0.9,-0.555,
4158,-0.91,-0.55,
4159,-0.925,-0.565,
4160,-0.925,-0.575,
4161,-0.94,-0.585,
4162,-0.94,-0.58,
4163,-0.925,-0.575,
4164,-0.94,-0.575,
4165,-0.94,-0.565,
4166,-0.95,-0.555,
4167,-0.935,-0.54,
4168,-0.93,-0.54,
4169,-0.935,-0.55,
4170,-0.935,-0.55,
4171,-0.945,-0.555,
4172,-0.955,-0.58,
4173,-0.96,-0.59,
4174,-0.96,-0.59,
4175,-0.97,-0.58,
4176,-0.975,-0.585,
4177,-0.965,-0.575,
4178,-0.96,-0.575,
4179,-0.96,-0.575,
4180,-0.95,-0.57,
4181,-0.97,-0.575,
4182,-0.965,-0.58,
4183,-0.97,-0.595,
4184,-0.98,-0.595,
4185,-0.99,-0.615,
4186,-0.99,-0.62,
4187,-1.0,-0.605,
4188,-1.005,-0.59,
4189,-1.0,-0.595,
4190,-0.995,-0.58,
4191,-1.0,-0.58,
4192,-0.995,-0.58,
4193,-0.995,-0.59,
4194,-1.005,-0.59,
4195,-1.015,-0.605,
4196,-1.03,-0.605,
4197,-1.035,-0.605,
4198,-1.04,-0.61,
4199,-1.045,-0.615,
4200,-1.035,-0.6,
4201,-1.025,-0.59,
4202,-1.015,-0.59,
4203,-1.015,-0.58,
4204,-1.005,-0.57,
4205,-1.005,-0.575,
4206,-1.0,-0.585,
4207,-1.005,-0.595,
4208,-1.005,-0.59,
4209,-1.01,-0.6,
4210,-1.01,-0.6,
4211,-1.01,-0.61,
4212,-0.99,-0.605,
4213,-0.98,-0.59,
4214,-0.965,-0.595,
4215,-0.95,-0.595,
4216,-0.935,-0.58,
4217,-0.92,-0.59,
4218,-0.915,-0.59,
4219,-0.905,-0.61,
4220,-0.9,-0.615,
4221,-0.895,-0.62,
4222,-0.87,-0.63,
4223,-0.86,-0.625,
4224,-0.83,-0.605,
4225,-0.805,-0.61,
4226,-0.775,-0.595,
4227,-0.755,-0.585,
4228,-0.72,-0.6,
4229,-0.695,-0.61,
4230,-0.7,-0.605,
4231,-0.685,-0.62,
4232,-0.69,-0.615,
4233,-0.675,-0.62,
4234,-0.675,-0.62,
4235,-0.655,-0.615,
4236,-0.655,-0.6,
4237,-0.645,-0.575,
4238,-0.635,-0.58,
4239,-0.635,-0.565,
4240,-0.625,-0.56,
4241,-0.64,-0.56,
4242,-0.645,-0.575,
4243,-0.65,-0.575,
4244,-0.66,-0.59,
4245,-0.67,-0.595,
4246,-0.67,-0.59,
4247,-0.675,-0.59,
4248,-0.685,-0.58,
4249,-0.695,-0.565,
4250,-0.68,-0.555,
4251,-0.685,-0.56,
4252,-0.685,-0.55,
4253,-0.7,-0.57,
4254,-0.69,-0.56,
4255,-0.705,-0.575,
4256,-0.71,-0.575,
4257,-0.715,-0.58,
4258,-0.72,-0.585,
4259,-0.735,-0.57,
4260,-0.73,-0.575,
4261,-0.725,-0.555,
4262,-0.72,-0.545,
4263,-0.72,-0.53,
4264,-0.715,-0.545,
4265,-0.72,-0.535,
4266,-0.73,-0.55,
4267,-0.725,-0.565,
4268,-0.73,-0.555,
4269,-0.735,-0.57,
4270,-0.745,-0.575,
4271,-0.745,-0.575,
4272,-0.75,-0.565,
4273,-0.755,-0.565,
4274,-0.75,-0.565,
4275,-0.745,-0.545,
4276,-0.745,-0.54,
4277,-0.74,-0.555,
4278,-0.745,-0.565,
4279,-0.745,-0.58,
4280,-0.765,-0.585,
4281,-0.775,-0.59,
4282,-0.765,-0.58,
4283,-0.77,-0.58,
4284,-0.76,-0.57,
4285,-0.74,-0.57,
4286,-0.74,-0.555,
4287,-0.735,-0.55,
4288,-0.735,-0.555,
4289,-0.745,-0.555,
4290,-0.755,-0.555,
4291,-0.755,-0.565,
4292,-0.75,-0.565,
4293,-0.75,-0.58,
4294,-0.755,-0.575,
4295,-0.755,-0.585,
4296,-0.755,-0.57,
4297,-0.74,-0.565,
4298,-0.725,-0.555,
4299,-0.71,-0.55,
4300,-0.685,-0.54,
4301,-0.685,-0.545,
4302,-0.675,-0.545,
4303,-0.67,-0.545,
4304,-0.655,-0.55,
4305,-0.655,-0.555,
4306,-0.665,-0.545,
4307,-0.66,-0.55,
4308,-0.665,-0.55,
4309,-0.66,-0.545,
4310,-0.66,-0.55,
4311,-0.655,-0.545,
4312,-0.64,-0.55,
4313,-0.64,-0.555,
4314,-0.645,-0.565,
4315,-0.63,-0.58,
4316,-0.625,-0.595,
4317,-0.63,-0.6,
4318,-0.635,-0.6,
4319,-0.65,-0.615,
4320,-0.675,-0.595,
4321,-0.685,-0.585,
4322,-0.69,-0.585,
4323,-0.695,-0.585,
4324,-0.695,-0.565,
4325,-0.69,-0.59,
4326,-0.715,-0.59,
4327,-0.71,-0.605,
4328,-0.73,-0.615,
4329,-0.735,-0.615,
4330,-0.755,-0.61,
4331,-0.775,-0.585,
4332,-0.79,-0.57,
4333,-0.795,-0.56,
4334,-0.785,-0.54,
4335,-0.79,-0.53,
4336,-0.785,-0.53,
4337,-0.795,-0.525,
4338,-0.805,-0.55,
4339,-0.81,-0.56,
4340,-0.82,-0.57,
4341,-0.82,-0.575,
4342,-0.82,-0.57,
4343,-0.82,-0.575,
4344,-0.815,-0.565,
4345,-0.825,-0.555,
4346,-0.805,-0.555,
4347,-0.795,-0.555,
4348,-0.79,-0.55,
4349,-0.795,-0.555,
4350,-0.8,-0.555,
4351,-0.81,-0.555,
4352,-0.81,-0.565,
4353,-0.815,-0.565,
4354,-0.81,-0.565,
4355,-0.81,-0.55,
4356,-0.82,-0.555,
4357,-0.8,-0.55,
4358,-0.795,-0.52,
4359,-0.78,-0.515,
4360,-0.75,-0.515,
4361,-0.71,-0.53,
4362,-0.665,-0.515,
4363,-0.59,-0.545,
4364,-0.485,-0.565,
4365,-0.365,-0.59,
4366,-0.23,-0.62,
4367,-0.125,-0.64,
4368,-0.06,-0.655,N
4369,-0.055,-0.66,
4370,-0.11,-0.655,
4371,-0.22,-0.665,
4372,-0.36,-0.675,
4373,-0.495,-0.685,
4374,-0.64,-0.68,
4375,-0.8,-0.67,
4376,-0.965,-0.64,
4377,-1.08,-0.58,
4378,-1.115,-0.5,
4379,-1.11,-0.38,
4380,-1.09,-0.295,
4381,-1.05,-0.25,
4382,-1.025,-0.27,
4383,-0.99,-0.295,
4384,-0.975,-0.375,
4385,-0.97,-0.44,
4386,-0.965,-0.48,
4387,-0.955,-0.51,
4388,-0.95,-0.545,
4389,-0.94,-0.555,
4390,-0.93,-0.56,
4391,-0.93,-0.565,
4392,-0.93,-0.57,
4393,-0.915,-0.545,
4394,-0.915,-0.54,
4395,-0.91,-0.535,
4396,-0.9,-0.53,
4397,-0.9,-0.54,
4398,-0.915,-0.545,
4399,-0.91,-0.565,
4400,-0.915,-0.57,
4401,-0.94,-0.57,
4402,-0.94,-0.585,
4403,-0.945,-0.57,
4404,-0.94,-0.57,
4405,-0.925,-0.565,
4406,-0.92,-0.56,
4407,-0.92,-0.56,
4408,-0.915,-0.555,
4409,-0.915,-0.56,
4410,-0.925,-0.565,
4411,-0.93,-0.575,
4412,-0.94,-0.585,
4413,-0.935,-0.595,
4414,-0.935,-0.59,
4415,-0.945,-0.585,
4416,-0.955,-0.585,
4417,-0.955,-0.58,
4418,-0.945,-0.56,
4419,-0.945,-0.555,
4420,-0.93,-0.55,
4421,-0.94,-0.555,
4422,-0.945,-0.565,
4423,-0.945,-0.57,
4424,-0.955,-0.58,
4425,-0.965,-0.59,
4426,-0.97,-0.595,
4427,-0.98,-0.58,
4428,-0.985,-0.575,
4429,-0.97,-0.57,
4430,-0.965,-0.565,
4431,-0.97,-0.565,
4432,-0.96,-0.55,
4433,-0.975,-0.565,
4434,-0.97,-0.565,
4435,-0.98,-0.58,
4436,-0.99,-0.59,
4437,-0.99,-0.6,
4438,-1.0,-0.605,
4439,-1.025,-0.605,
4440,-1.02,-0.605,
4441,-1.015,-0.6,
4442,-1.0,-0.58,
4443,-1.015,-0.585,
4444,-1.0,-0.585,
4445,-1.0,-0.58,
4446,-1.005,-0.595,
4447,-1.025,-0.61,
4448,-1.03,-0.615,
4449,-1.04,-0.615,
4450,-1.04,-0.62,
4451,-1.045,-0.615,
4452,-1.04,-0.6,
4453,-1.03,-0.61,
4454,-1.015,-0.59,
4455,-1.015,-0.585,
4456,-1.0,-0.58,
4457,-1.005,-0.6,
4458,-1.0,-0.6,
4459,-1.01,-0.61,
4460,-1.015,-0.61,
4461,-1.02,-0.62,
4462,-1.02,-0.615,
4463,-1.025,-0.615,
4464,-1.015,-0.615,
4465,-0.985,-0.605,
4466,-0.965,-0.605,
4467,-0.95,-0.595,
4468,-0.93,-0.595,
4469,-0.91,-0.605,
4470,-0.92,-0.61,
4471,-0.9,-0.62,
4472,-0.88,-0.635,
4473,-0.87,-0.64,
4474,-0.855,-0.64,
4475,-0.845,-0.65,
4476,-0.805,-0.65,
4477,-0.785,-0.635,
4478,-0.765,-0.63,
4479,-0.75,-0.625,
4480,-0.725,-0.625,
4481,-0.715,-0.62,
4482,-0.705,-0.615,
4483,-0.695,-0.62,
4484,-0.7,-0.62,
4485,-0.68,-0.625,
4486,-0.68,-0.62,
4487,-0.68,-0.63,
4488,-0.675,-0.605,
4489,-0.665,-0.61,
4490,-0.66,-0.605,
4491,-0.655,-0.585,
4492,-0.65,-0.58,
4493,-0.645,-0.575,
4494,-0.665,-0.585,
4495,-0.68,-0.6,
4496,-0.685,-0.585,
4497,-0.69,-0.6,
4498,-0.685,-0.59,
4499,-0.7,-0.59,
4500,-0.7,-0.58,
4501,-0.705,-0.575,
4502,-0.695,-0.57,
4503,-0.69,-0.57,
4504,-0.69,-0.555,
4505,-0.705,-0.565,
4506,-0.72,-0.575,
4507,-0.72,-0.59,
4508,-0.72,-0.575,
4509,-0.73,-0.585,
4510,-0.745,-0.6,
4511,-0.75,-0.59,
4512,-0.75,-0.59,
4513,-0.74,-0.575,
4514,-0.74,-0.575,
4515,-0.745,-0.58,
4516,-0.735,-0.56,
4517,-0.735,-0.57,
4518,-0.74,-0.565,
4519,-0.745,-0.575,
4520,-0.755,-0.585,
4521,-0.765,-0.59,
4522,-0.77,-0.59,
4523,-0.785,-0.605,
4524,-0.785,-0.59,
4525,-0.785,-0.59,
4526,-0.77,-0.58,
4527,-0.76,-0.56,
4528,-0.755,-0.565,
4529,-0.755,-0.57,
4530,-0.76,-0.575,
4531,-0.785,-0.59,
4532,-0.775,-0.6,
4533,-0.795,-0.605,
4534,-0.795,-0.605,
4535,-0.795,-0.6,
4536,-0.805,-0.605,
4537,-0.775,-0.585,
4538,-0.775,-0.595,
4539,-0.77,-0.58,
4540,-0.76,-0.58,
4541,-0.76,-0.595,
4542,-0.765,-0.58,
4543,-0.76,-0.59,
4544,-0.775,-0.605,
4545,-0.785,-0.61,
4546,-0.79,-0.605,
4547,-0.79,-0.61,
4548,-0.79,-0.605,
4549,-0.785,-0.595,
4550,-0.775,-0.59,
4551,-0.765,-0.565,
4552,-0.765,-0.575,
4553,-0.76,-0.57,
4554,-0.755,-0.565,
4555,-0.74,-0.575,
4556,-0.745,-0.575,
4557,-0.74,-0.59,
4558,-0.725,-0.59,
4559,-0.72,-0.59,
4560,-0.705,-0.58,
4561,-0.695,-0.56,
4562,-0.69,-0.56,
4563,-0.685,-0.555,
4564,-0.68,-0.55,
4565,-0.685,-0.565,
4566,-0.685,-0.575,
4567,-0.69,-0.585,
4568,-0.7,-0.61,
4569,-0.695,-0.62,
4570,-0.69,-0.63,
4571,-0.685,-0.625,
4572,-0.675,-0.63,
4573,-0.665,-0.62,
4574,-0.675,-0.62,
4575,-0.69,-0.62,
4576,-0.71,-0.62,
4577,-0.725,-0.615,
4578,-0.735,-0.62,
4579,-0.74,-0.625,
4580,-0.755,-0.635,
4581,-0.76,-0.64,
4582,-0.765,-0.635,
4583,-0.765,-0.64,
4584,-0.77,-0.64,
4585,-0.785,-0.62,
4586,-0.79,-0.615,
4587,-0.8,-0.595,
4588,-0.805,-0.565,
4589,-0.805,-0.55,
4590,-0.825,-0.555,
4591,-0.835,-0.565,
4592,-0.835,-0.565,
4593,-0.855,-0.58,
4594,-0.855,-0.59,
4595,-0.855,-0.585,
4596,-0.855,-0.58,
4597,-0.85,-0.565,
4598,-0.845,-0.565,
4599,-0.845,-0.565,
4600,-0.835,-0.555,
4601,-0.835,-0.56,
4602,-0.84,-0.58,
4603,-0.84,-0.57,
4604,-0.855,-0.58,
4605,-0.85,-0.58,
4606,-0.865,-0.59,
4607,-0.855,-0.59,
4608,-0.855,-0.585,
4609,-0.85,-0.585,
4610,-0.84,-0.565,
4611,-0.835,-0.56,
4612,-0.825,-0.555,
4613,-0.825,-0.56,
4614,-0.82,-0.535,
4615,-0.795,-0.54,
4616,-0.775,-0.545,
4617,-0.725,-0.555,
4618,-0.66,-0.58,
4619,-0.58,-0.58,
4620,-0.47,-0.61,
4621,-0.33,-0.605,
4622,-0.235,-0.62,
4623,-0.135,-0.62,
4624,-0.08,-0.625,N
4625,-0.1,-0.645,
4626,-0.175,-0.655,
4627,-0.28,-0.69,
4628,-0.405,-0.69,
4629,-0.53,-0.695,
4630,-0.655,-0.695,
4631,-0.81,-0.675,
4632,-0.955,-0.64,
4633,-1.075,-0.565,
4634,-1.125,-0.48,
4635,-1.13,-0.37,
4636,-1.11,-0.275,
4637,-1.09,-0.23,
4638,-1.08,-0.225,
4639,-1.07,-0.29,
4640,-1.075,-0.365,
4641,-1.055,-0.455,
4642,-1.055,-0.535,
4643,-1.03,-0.565,
4644,-0.99,-0.58,
4645,-0.975,-0.57,
4646,-0.955,-0.57,
4647,-0.96,-0.55,
4648,-0.955,-0.555,
4649,-0.95,-0.57,
4650,-0.955,-0.575,
4651,-0.965,-0.58,
4652,-0.97,-0.58,
4653,-0.975,-0.59,
4654,-0.985,-0.59,
4655,-1.0,-0.59,
4656,-0.98,-0.59,
4657,-0.98,-0.585,
4658,-0.99,-0.575,
4659,-0.97,-0.57,
4660,-0.955,-0.565,
4661,-0.96,-0.565,
4662,-0.965,-0.575,
4663,-0.96,-0.585,
4664,-0.98,-0.59,
4665,-0.98,-0.6,
4666,-0.985,-0.605,
4667,-0.99,-0.605,
4668,-0.99,-0.595,
4669,-0.985,-0.6,
4670,-0.98,-0.585,
4671,-0.98,-0.59,
4672,-0.97,-0.585,
4673,-0.975,-0.585,
4674,-0.97,-0.59,
4675,-0.985,-0.595,
4676,-0.99,-0.605,
4677,-0.99,-0.61,
4678,-1.0,-0.62,
4679,-1.01,-0.625,
4680,-1.015,-0.61,
4681,-1.015,-0.6,
4682,-1.01,-0.585,
4683,-1.01,-0.595,
4684,-1.005,-0.605,
4685,-1.005,-0.6,
4686,-1.025,-0.6,
4687,-1.02,-0.615,
4688,-1.035,-0.625,
4689,-1.035,-0.63,
4690,-1.04,-0.63,
4691,-1.04,-0.635,
4692,-1.045,-0.62,
4693,-1.045,-0.625,
4694,-1.055,-0.615,
4695,-1.035,-0.605,
4696,-1.02,-0.605,
4697,-1.025,-0.605,
4698,-1.025,-0.615,
4699,-1.03,-0.615,
4700,-1.035,-0.64,
4701,-1.05,-0.64,
4702,-1.055,-0.65,
4703,-1.065,-0.655,
4704,-1.06,-0.64,
4705,-1.06,-0.65,
4706,-1.05,-0.64,
4707,-1.05,-0.63,
4708,-1.055,-0.615,
4709,-1.045,-0.63,
4710,-1.045,-0.62,
4711,-1.04,-0.63,
4712,-1.04,-0.63,
4713,-1.05,-0.635,
4714,-1.04,-0.645,
4715,-1.05,-0.64,
4716,-1.05,-0.63,
4717,-1.035,-0.625,
4718,-1.025,-0.615,
4719,-1.01,-0.615,
4720,-0.99,-0.605,
4721,-0.98,-0.615,
4722,-0.975,-0.62,
4723,-0.97,-0.63,
4724,-0.955,-0.635,
4725,-0.96,-0.65,
4726,-0.945,-0.645,
4727,-0.94,-0.65,
4728,-0.92,-0.65,
4729,-0.885,-0.64,
4730,-0.865,-0.64,
4731,-0.845,-0.63,
4732,-0.815,-0.635,
4733,-0.805,-0.645,
4734,-0.79,-0.64,
4735,-0.775,-0.655,
4736,-0.765,-0.675,
4737,-0.74,-0.675,
4738,-0.74,-0.665,
4739,-0.715,-0.665,
4740,-0.705,-0.665,
4741,-0.695,-0.645,
4742,-0.69,-0.63,
4743,-0.695,-0.615,
4744,-0.675,-0.62,
4745,-0.675,-0.61,
4746,-0.68,-0.61,
4747,-0.685,-0.63,
4748,-0.69,-0.63,
4749,-0.705,-0.625,
4750,-0.72,-0.625,
4751,-0.715,-0.61,
4752,-0.725,-0.59,
4753,-0.725,-0.585,
4754,-0.72,-0.58,
4755,-0.74,-0.575,
4756,-0.725,-0.575,
4757,-0.735,-0.565,
4758,-0.745,-0.575,
4759,-0.76,-0.585,
4760,-0.755,-0.59,
4761,-0.765,-0.605,
4762,-0.775,-0.605,
4763,-0.79,-0.615,
4764,-0.79,-0.6,
4765,-0.78,-0.59,
4766,-0.765,-0.585,
4767,-0.77,-0.58,
4768,-0.765,-0.575,
4769,-0.765,-0.58,
4770,-0.77,-0.59,
4771,-0.78,-0.59,
4772,-0.785,-0.6,
4773,-0.795,-0.6,
4774,-0.8,-0.61,
4775,-0.81,-0.605,
4776,-0.815,-0.6,
4777,-0.815,-0.59,
4778,-0.795,-0.585,
4779,-0.795,-0.585,
4780,-0.8,-0.595,
4781,-0.795,-0.595,
4782,-0.805,-0.585,
4783,-0.81,-0.61,
4784,-0.8,-0.615,
4785,-0.8,-0.63,
4786,-0.81,-0.635,
4787,-0.815,-0.63,
4788,-0.815,-0.63,
4789,-0.81,-0.61,
4790,-0.795,-0.595,
4791,-0.805,-0.58,
4792,-0.78,-0.57,
4793,-0.78,-0.575,
4794,-0.775,-0.59,
4795,-0.79,-0.59,
4796,-0.795,-0.59,
4797,-0.805,-0.615,
4798,-0.82,-0.625,
4799,-0.815,-0.61,
4800,-0.82,-0.61,
4801,-0.81,-0.6,
4802,-0.795,-0.595,
4803,-0.77,-0.58,
4804,-0.765,-0.575,
4805,-0.76,-0.58,
4806,-0.74,-0.575,
4807,-0.735,-0.575,
4808,-0.745,-0.58,
4809,-0.75,-0.565,
4810,-0.745,-0.575,
4811,-0.755,-0.58,
4812,-0.75,-0.585,
4813,-0.745,-0.58,
4814,-0.725,-0.575,
4815,-0.715,-0.58,
4816,-0.685,-0.59,
4817,-0.68,-0.595,
4818,-0.685,-0.6,
4819,-0.69,-0.63,
4820,-0.695,-0.64,
4821,-0.715,-0.635,
4822,-0.73,-0.66,
4823,-0.745,-0.655,
4824,-0.765,-0.655,
4825,-0.78,-0.63,
4826,-0.78,-0.64,
4827,-0.78,-0.62,
4828,-0.785,-0.63,
4829,-0.79,-0.63,
4830,-0.79,-0.63,
4831,-0.81,-0.625,
4832,-0.835,-0.625,
4833,-0.855,-0.625,
4834,-0.86,-0.61,
4835,-0.865,-0.61,
4836,-0.88,-0.615,
4837,-0.885,-0.59,
4838,-0.88,-0.585,
4839,-0.86,-0.58,
4840,-0.86,-0.57,
4841,-0.855,-0.575,
4842,-0.865,-0.575,
4843,-0.875,-0.59,
4844,-0.89,-0.595,
4845,-0.9,-0.605,
4846,-0.9,-0.605,
4847,-0.895,-0.605,
4848,-0.885,-0.605,
4849,-0.9,-0.575,
4850,-0.895,-0.585,
4851,-0.885,-0.58,
4852,-0.865,-0.57,
4853,-0.86,-0.585,
4854,-0.86,-0.58,
4855,-0.86,-0.585,
4856,-0.87,-0.59,
4857,-0.87,-0.6,
4858,-0.87,-0.595,
4859,-0.865,-0.595,
4860,-0.855,-0.595,
4861,-0.84,-0.58,
4862,-0.81,-0.575,
4863,-0.77,-0.565,
4864,-0.71,-0.56,
4865,-0.635,-0.57,
4866,-0.54,-0.58,
4867,-0.435,-0.61,
4868,-0.32,-0.64,
4869,-0.23,-0.665,
4870,-0.15,-0.69,
4871,-0.095,-0.715,N
4872,-0.1,-0.72,
4873,-0.155,-0.705,
4874,-0.26,-0.705,
4875,-0.365,-0.705,
4876,-0.495,-0.69,
4877,-0.625,-0.68,
4878,-0.78,-0.655,
4879,-0.965,-0.61,
4880,-1.08,-0.54,
4881,-1.145,-0.435,
4882,-1.145,-0.315,
4883,-1.125,-0.205,
4884,-1.11,-0.16,
4885,-1.095,-0.195,
4886,-1.085,-0.3,
4887,-1.075,-0.4,
4888,-1.04,-0.48,
4889,-1.015,-0.56,
4890,-0.985,-0.58,
4891,-0.975,-0.61,
4892,-0.975,-0.605,
4893,-0.975,-0.61,
4894,-1.0,-0.61,
4895,-1.02,-0.605,
4896,-1.02,-0.605,
4897,-1.02,-0.61,
4898,-0.995,-0.6,
4899,-0.985,-0.585,
4900,-0.97,-0.59,
4901,-0.98,-0.59,
4902,-0.965,-0.595,
4903,-0.97,-0.59,
4904,-1.005,-0.61,
4905,-1.01,-0.615,
4906,-1.01,-0.615,
4907,-1.005,-0.62,
4908,-1.005,-0.615,
4909,-0.995,-0.59,
4910,-0.99,-0.605,
4911,-1.005,-0.6,
4912,-0.995,-0.585,
4913,-0.995,-0.585,
4914,-1.0,-0.595,
4915,-1.0,-0.605,
4916,-1.01,-0.6,
4917,-1.025,-0.625,
4918,-1.02,-0.62,
4919,-1.025,-0.625,
4920,-1.015,-0.62,
4921,-1.01,-0.61,
4922,-1.015,-0.62,
4923,-1.005,-0.605,
4924,-1.01,-0.595,
4925,-1.01,-0.605,
4926,-1.02,-0.615,
4927,-1.035,-0.62,
4928,-1.035,-0.625,
4929,-1.04,-0.63,
4930,-1.04,-0.635,
4931,-1.05,-0.635,
4932,-1.045,-0.64,
4933,-1.04,-0.635,
4934,-1.035,-0.62,
4935,-1.04,-0.615,
4936,-1.025,-0.605,
4937,-1.045,-0.61,
4938,-1.05,-0.615,
4939,-1.045,-0.615,
4940,-1.06,-0.62,
4941,-1.055,-0.64,
4942,-1.06,-0.64,
4943,-1.08,-0.635,
4944,-1.07,-0.64,
4945,-1.07,-0.625,
4946,-1.075,-0.625,
4947,-1.075,-0.615,
4948,-1.06,-0.62,
4949,-1.06,-0.615,
4950,-1.06,-0.63,
4951,-1.07,-0.64,
4952,-1.075,-0.645,
4953,-1.08,-0.665,
4954,-1.08,-0.665,
4955,-1.08,-0.66,
4956,-1.065,-0.66,
4957,-1.07,-0.665,
4958,-1.06,-0.66,
4959,-1.05,-0.65,
4960,-1.035,-0.635,
4961,-1.04,-0.64,
4962,-1.05,-0.655,
4963,-1.035,-0.645,
4964,-1.025,-0.655,
4965,-1.025,-0.665,
4966,-1.02,-0.67,
4967,-1.005,-0.685,
4968,-0.985,-0.67,
4969,-0.965,-0.675,
4970,-0.945,-0.67,
4971,-0.93,-0.665,
4972,-0.92,-0.645,
4973,-0.895,-0.655,
4974,-0.895,-0.665,
4975,-0.885,-0.665,
4976,-0.86,-0.675,
4977,-0.845,-0.68,
4978,-0.835,-0.685,
4979,-0.84,-0.685,
4980,-0.815,-0.665,
4981,-0.785,-0.66,
4982,-0.76,-0.65,
4983,-0.745,-0.64,
4984,-0.74,-0.63,
4985,-0.72,-0.625,
4986,-0.72,-0.625,
4987,-0.715,-0.625,
4988,-0.73,-0.635,
4989,-0.73,-0.64,
4990,-0.74,-0.63,
4991,-0.73,-0.635,
4992,-0.74,-0.635,
4993,-0.745,-0.615,
4994,-0.745,-0.61,
4995,-0.745,-0.595,
4996,-0.75,-0.585,
4997,-0.74,-0.58,
4998,-0.74,-0.575,
4999,-0.755,-0.595,
5000,-0.765,-0.595,
5001,-0.775,-0.6,
5002,-0.8,-0.605,
5003,-0.805,-0.595,
5004,-0.805,-0.6,
5005,-0.8,-0.585,
5006,-0.79,-0.575,
5007,-0.79,-0.575,
5008,-0.79,-0.57,
5009,-0.79,-0.565,
5010,-0.785,-0.575,
5011,-0.8,-0.58,
5012,-0.8,-0.59,
5013,-0.805,-0.61,
5014,-0.82,-0.595,
5015,-0.82,-0.595,
5016,-0.815,-0.595,
5017,-0.82,-0.58,
5018,-0.82,-0.585,
5019,-0.81,-0.575,
5020,-0.805,-0.57,
5021,-0.805,-0.585,
5022,-0.81,-0.585,
5023,-0.82,-0.605,
5024,-0.825,-0.615,
5025,-0.82,-0.625,
5026,-0.825,-0.625,
5027,-0.835,-0.615,
5028,-0.84,-0.61,
5029,-0.835,-0.605,
5030,-0.845,-0.59,
5031,-0.825,-0.58,
5032,-0.815,-0.575,
5033,-0.815,-0.58,
5034,-0.825,-0.575,
5035,-0.84,-0.615,
5036,-0.84,-0.595,
5037,-0.845,-0.605,
5038,-0.84,-0.61,
5039,-0.845,-0.62,
5040,-0.845,-0.615,
5041,-0.835,-0.615,
5042,-0.84,-0.615,
5043,-0.83,-0.595,
5044,-0.825,-0.59,
5045,-0.82,-0.585,
5046,-0.825,-0.595,
5047,-0.825,-0.59,
5048,-0.83,-0.595,
5049,-0.83,-0.605,
5050,-0.825,-0.61,
5051,-0.815,-0.62,
5052,-0.815,-0.6,
5053,-0.805,-0.59,
5054,-0.785,-0.575,
5055,-0.775,-0.56,
5056,-0.76,-0.565,
5057,-0.76,-0.57,
5058,-0.76,-0.58,
5059,-0.765,-0.58,
5060,-0.77,-0.585,
5061,-0.78,-0.585,
5062,-0.78,-0.585,
5063,-0.775,-0.59,
5064,-0.775,-0.595,
5065,-0.775,-0.585,
5066,-0.735,-0.585,
5067,-0.73,-0.575,
5068,-0.72,-0.58,
5069,-0.705,-0.585,
5070,-0.715,-0.595,
5071,-0.745,-0.6,
5072,-0.785,-0.61,
5073,-0.785,-0.62,
5074,-0.8,-0.635,
5075,-0.81,-0.635,
5076,-0.815,-0.62,
5077,-0.805,-0.615,
5078,-0.795,-0.6,
5079,-0.8,-0.6,
5080,-0.8,-0.6,
5081,-0.805,-0.6,
5082,-0.815,-0.605,
5083,-0.85,-0.62,
5084,-0.85,-0.61,
5085,-0.87,-0.605,
5086,-0.885,-0.605,
5087,-0.9,-0.59,
5088,-0.9,-0.605,
5089,-0.9,-0.585,
5090,-0.885,-0.585,
5091,-0.89,-0.565,
5092,-0.89,-0.56,
5093,-0.885,-0.57,
5094,-0.895,-0.565,
5095,-0.89,-0.585,
5096,-0.895,-0.58,
5097,-0.895,-0.59,
5098,-0.915,-0.6,
5099,-0.92,-0.59,
5100,-0.92,-0.58,
5101,-0.905,-0.575,
5102,-0.905,-0.575,
5103,-0.895,-0.57,
5104,-0.89,-0.56,
5105,-0.88,-0.57,
5106,-0.885,-0.575,
5107,-0.88,-0.57,
5108,-0.885,-0.57,
5109,-0.875,-0.575,
5110,-0.875,-0.57,
5111,-0.85,-0.585,
5112,-0.805,-0.57,
5113,-0.73,-0.585,
5114,-0.64,-0.585,
5115,-0.51,-0.585,
5116,-0.38,-0.6,
5117,-0.25,-0.635,
5118,-0.145,-0.665,
5119,-0.09,-0.68,N
5120,-0.08,-0.72,
5121,-0.145,-0.735,
5122,-0.265,-0.74,
5123,-0.415,-0.74,
5124,-0.545,-0.735,
5125,-0.69,-0.7,
5126,-0.855,-0.655,
5127,-1.02,-0.58,
5128,-1.14,-0.505,
5129,-1.185,-0.415,
5130,-1.17,-0.31,
5131,-1.135,-0.21,
5132,-1.115,-0.15,
5133,-1.12,-0.175,
5134,-1.14,-0.25,
5135,-1.135,-0.34,
5136,-1.13,-0.43,
5137,-1.1,-0.505,
5138,-1.055,-0.545,
5139,-1.035,-0.565,
5140,-0.995,-0.56,
5141,-0.985,-0.56,
5142,-0.975,-0.57,
5143,-0.97,-0.585,
5144,-0.985,-0.585,
5145,-1.005,-0.6,
5146,-1.01,-0.615,
5147,-1.005,-0.615,
5148,-1.0,-0.615,
5149,-1.0,-0.595,
5150,-0.995,-0.6,
5151,-0.985,-0.59,
5152,-0.99,-0.575,
5153,-0.99,-0.59,
5154,-0.995,-0.595,
5155,-1.0,-0.59,
5156,-1.015,-0.595,
5157,-1.02,-0.6,
5158,-1.02,-0.615,
5159,-1.035,-0.605,
5160,-1.03,-0.61,
5161,-1.025,-0.6,
5162,-1.015,-0.6,
5163,-1.025,-0.6,
5164,-1.015,-0.585,
5165,-1.005,-0.58,
5166,-1.01,-0.585,
5167,-1.015,-0.605,
5168,-1.02,-0.595,
5169,-1.025,-0.605,
5170,-1.035,-0.615,
5171,-1.05,-0.63,
5172,-1.045,-0.625,
5173,-1.05,-0.605,
5174,-1.055,-0.61,
5175,-1.045,-0.595,
5176,-1.04,-0.59,
5177,-1.035,-0.605,
5178,-1.04,-0.61,
5179,-1.055,-0.61,
5180,-1.065,-0.62,
5181,-1.085,-0.63,
5182,-1.075,-0.625,
5183,-1.08,-0.635,
5184,-1.08,-0.63,
5185,-1.075,-0.63,
5186,-1.07,-0.625,
5187,-1.065,-0.615,
5188,-1.06,-0.605,
5189,-1.06,-0.625,
5190,-1.065,-0.615,
5191,-1.075,-0.62,
5192,-1.075,-0.63,
5193,-1.095,-0.635,
5194,-1.11,-0.635,
5195,-1.115,-0.645,
5196,-1.1,-0.64,
5197,-1.11,-0.645,
5198,-1.095,-0.635,
5199,-1.08,-0.635,
5200,-1.08,-0.62,
5201,-1.07,-0.635,
5202,-1.07,-0.635,
5203,-1.08,-0.655,
5204,-1.095,-0.655,
5205,-1.1,-0.67,
5206,-1.085,-0.675,
5207,-1.08,-0.67,
5208,-1.08,-0.67,
5209,-1.075,-0.665,
5210,-1.065,-0.665,
5211,-1.05,-0.655,
5212,-1.04,-0.655,
5213,-1.02,-0.645,
5214,-1.005,-0.665,
5215,-0.995,-0.66,
5216,-0.99,-0.67,
5217,-0.975,-0.665,
5218,-0.96,-0.675,
5219,-0.955,-0.675,
5220,-0.945,-0.68,
5221,-0.915,-0.655,
5222,-0.9,-0.655,
5223,-0.86,-0.66,
5224,-0.84,-0.65,
5225,-0.805,-0.655,
5226,-0.81,-0.65,
5227,-0.79,-0.655,
5228,-0.8,-0.65,
5229,-0.79,-0.65,
5230,-0.79,-0.655,
5231,-0.795,-0.66,
5232,-0.77,-0.64,
5233,-0.755,-0.635,
5234,-0.745,-0.62,
5235,-0.73,-0.61,
5236,-0.725,-0.59,
5237,-0.725,-0.585,
5238,-0.735,-0.575,
5239,-0.735,-0.6,
5240,-0.745,-0.615,
5241,-0.755,-0.625,
5242,-0.77,-0.615,
5243,-0.775,-0.605,
5244,-0.77,-0.6,
5245,-0.77,-0.58,
5246,-0.765,-0.58,
5247,-0.76,-0.575,
5248,-0.755,-0.56,
5249,-0.76,-0.56,
5250,-0.765,-0.565,
5251,-0.77,-0.56,
5252,-0.77,-0.575,
5253,-0.795,-0.565,
5254,-0.81,-0.585,
5255,-0.81,-0.585,
5256,-0.805,-0.58,
5257,-0.805,-0.575,
5258,-0.795,-0.57,
5259,-0.8,-0.55,
5260,-0.785,-0.555,
5261,-0.78,-0.555,
5262,-0.775,-0.57,
5263,-0.79,-0.575,
5264,-0.795,-0.58,
5265,-0.81,-0.585,
5266,-0.81,-0.6,
5267,-0.81,-0.595,
5268,-0.815,-0.585,
5269,-0.82,-0.575,
5270,-0.8,-0.57,
5271,-0.8,-0.57,
5272,-0.8,-0.555,
5273,-0.795,-0.575,
5274,-0.8,-0.58,
5275,-0.795,-0.58,
5276,-0.805,-0.59,
5277,-0.825,-0.605,
5278,-0.835,-0.6,
5279,-0.835,-0.6,
5280,-0.82,-0.6,
5281,-0.81,-0.605,
5282,-0.8,-0.58,
5283,-0.795,-0.58,
5284,-0.785,-0.575,
5285,-0.78,-0.565,
5286,-0.785,-0.565,
5287,-0.795,-0.575,
5288,-0.8,-0.58,
5289,-0.8,-0.565,
5290,-0.805,-0.585,
5291,-0.81,-0.58,
5292,-0.79,-0.575,
5293,-0.775,-0.58,
5294,-0.775,-0.555,
5295,-0.75,-0.545,
5296,-0.755,-0.53,
5297,-0.745,-0.535,
5298,-0.745,-0.53,
5299,-0.735,-0.525,
5300,-0.75,-0.545,
5301,-0.76,-0.555,
5302,-0.77,-0.56,
5303,-0.75,-0.56,
5304,-0.745,-0.575,
5305,-0.735,-0.555,
5306,-0.71,-0.56,
5307,-0.685,-0.55,
5308,-0.67,-0.56,
5309,-0.67,-0.565,
5310,-0.685,-0.57,
5311,-0.68,-0.585,
5312,-0.705,-0.6,
5313,-0.725,-0.61,
5314,-0.74,-0.625,
5315,-0.755,-0.63,
5316,-0.75,-0.625,
5317,-0.75,-0.61,
5318,-0.75,-0.615,
5319,-0.765,-0.595,
5320,-0.76,-0.58,
5321,-0.775,-0.56,
5322,-0.795,-0.555,
5323,-0.81,-0.57,
5324,-0.825,-0.57,
5325,-0.845,-0.57,
5326,-0.855,-0.575,
5327,-0.87,-0.58,
5328,-0.87,-0.575,
5329,-0.865,-0.57,
5330,-0.865,-0.565,
5331,-0.865,-0.555,
5332,-0.855,-0.545,
5333,-0.845,-0.55,
5334,-0.86,-0.55,
5335,-0.85,-0.555,
5336,-0.86,-0.565,
5337,-0.88,-0.58,
5338,-0.885,-0.59,
5339,-0.86,-0.6,
5340,-0.87,-0.58,
5341,-0.88,-0.58,
5342,-0.875,-0.58,
5343,-0.86,-0.565,
5344,-0.855,-0.55,
5345,-0.855,-0.55,
5346,-0.845,-0.55,
5347,-0.84,-0.56,
5348,-0.84,-0.565,
5349,-0.855,-0.575,
5350,-0.85,-0.565,
5351,-0.85,-0.585,
5352,-0.825,-0.57,
5353,-0.77,-0.555,
5354,-0.7,-0.56,
5355,-0.625,-0.565,
5356,-0.535,-0.58,
5357,-0.405,-0.59,
5358,-0.265,-0.61,
5359,-0.14,-0.635,
5360,-0.065,-0.655,
5361,-0.03,-0.67,N
5362,-0.05,-0.68,
5363,-0.12,-0.67,
5364,-0.24,-0.68,
5365,-0.355,-0.675,
5366,-0.47,-0.665,
5367,-0.595,-0.66,
5368,-0.71,-0.62,
5369,-0.855,-0.605,
5370,-0.985,-0.57,
5371,-1.08,-0.52,
5372,-1.11,-0.45,
5373,-1.1,-0.355,
5374,-1.07,-0.275,
5375,-1.065,-0.215,
5376,-1.08,-0.215,
5377,-1.09,-0.24,
5378,-1.075,-0.315,
5379,-1.055,-0.375,
5380,-1.035,-0.44,
5381,-1.01,-0.485,
5382,-0.995,-0.52,
5383,-0.975,-0.54,
5384,-0.965,-0.56,
5385,-0.965,-0.575,
5386,-0.975,-0.585,
5387,-0.975,-0.595,
5388,-0.97,-0.58,
5389,-0.965,-0.57,
5390,-0.965,-0.56,
5391,-0.95,-0.565,
5392,-0.95,-0.565,
5393,-0.95,-0.545,
5394,-0.95,-0.555,
5395,-0.96,-0.555,
5396,-0.965,-0.575,
5397,-0.97,-0.58,
5398,-0.985,-0.58,
5399,-0.98,-0.575,
5400,-0.975,-0.58,
5401,-0.965,-0.575,
5402,-0.98,-0.56,
5403,-0.96,-0.565,
5404,-0.965,-0.555,
5405,-0.97,-0.56,
5406,-0.97,-0.57,
5407,-0.98,-0.57,
5408,-1.0,-0.58,
5409,-0.99,-0.595,
5410,-0.99,-0.595,
5411,-1.005,-0.6,
5412,-1.0,-0.585,
5413,-0.995,-0.585,
5414,-0.99,-0.575,
5415,-0.985,-0.56,
5416,-0.99,-0.555,
5417,-0.985,-0.57,
5418,-0.99,-0.56,
5419,-1.0,-0.565,
5420,-1.01,-0.575,
5421,-0.995,-0.59,
5422,-1.015,-0.59,
5423,-1.025,-0.595,
5424,-1.025,-0.585,
5425,-1.025,-0.585,
5426,-1.03,-0.565,
5427,-1.03,-0.575,
5428,-1.02,-0.565,
5429,-1.02,-0.56,
5430,-1.025,-0.57,
5431,-1.04,-0.57,
5432,-1.045,-0.585,
5433,-1.04,-0.59,
5434,-1.075,-0.595,
5435,-1.085,-0.6,
5436,-1.085,-0.605,
5437,-1.09,-0.6,
5438,-1.08,-0.59,
5439,-1.075,-0.58,
5440,-1.08,-0.58,
5441,-1.075,-0.58,
5442,-1.07,-0.585,
5443,-1.075,-0.595,
5444,-1.085,-0.6,
5445,-1.09,-0.605,
5446,-1.1,-0.61,
5447,-1.12,-0.61,
5448,-1.125,-0.61,
5449,-1.105,-0.605,
5450,-1.105,-0.585,
5451,-1.09,-0.59,
5452,-1.085,-0.58,
5453,-1.08,-0.58,
5454,-1.08,-0.595,
5455,-1.08,-0.595,
5456,-1.08,-0.61,
5457,-1.085,-0.625,
5458,-1.085,-0.615,
5459,-1.08,-0.62,
5460,-1.07,-0.61,
5461,-1.065,-0.6,
5462,-1.05,-0.585,
5463,-1.04,-0.6,
5464,-1.015,-0.59,
5465,-1.015,-0.59,
5466,-1.0,-0.6,
5467,-0.985,-0.595,
5468,-0.975,-0.61,
5469,-0.96,-0.615,
5470,-0.945,-0.625,
5471,-0.93,-0.625,
5472,-0.915,-0.63,
5473,-0.88,-0.625,
5474,-0.85,-0.605,
5475,-0.815,-0.6,
5476,-0.785,-0.6,
5477,-0.755,-0.595,
5478,-0.74,-0.6,
5479,-0.73,-0.605,
5480,-0.72,-0.59,
5481,-0.73,-0.605,
5482,-0.725,-0.605,
5483,-0.715,-0.595,
5484,-0.725,-0.59,
5485,-0.725,-0.58,
5486,-0.71,-0.555,
5487,-0.695,-0.555,
5488,-0.685,-0.535,
5489,-0.68,-0.53,
5490,-0.685,-0.535,
5491,-0.69,-0.535,
5492,-0.7,-0.545,
5493,-0.715,-0.555,
5494,-0.73,-0.55,
5495,-0.735,-0.55,
5496,-0.73,-0.545,
5497,-0.72,-0.535,
5498,-0.715,-0.535,
5499,-0.73,-0.535,
5500,-0.71,-0.525,
5501,-0.715,-0.525,
5502,-0.725,-0.52,
5503,-0.72,-0.525,
5504,-0.725,-0.55,
5505,-0.735,-0.55,
5506,-0.74,-0.555,
5507,-0.745,-0.55,
5508,-0.745,-0.555,
5509,-0.745,-0.55,
5510,-0.735,-0.54,
5511,-0.735,-0.535,
5512,-0.735,-0.52,
5513,-0.73,-0.525,
5514,-0.74,-0.53,
5515,-0.745,-0.53,
5516,-0.75,-0.53,
5517,-0.755,-0.54,
5518,-0.755,-0.555,
5519,-0.765,-0.555,
5520,-0.77,-0.56,
5521,-0.77,-0.54,
5522,-0.75,-0.53,
5523,-0.76,-0.525,
5524,-0.76,-0.525,
5525,-0.755,-0.535,
5526,-0.75,-0.535,
5527,-0.76,-0.535,
5528,-0.76,-0.535,
5529,-0.77,-0.56,
5530,-0.79,-0.57,
5531,-0.795,-0.575,
5532,-0.785,-0.56,
5533,-0.77,-0.56,
5534,-0.765,-0.545,
5535,-0.765,-0.53,
5536,-0.76,-0.54,
5537,-0.76,-0.545,
5538,-0.76,-0.545,
5539,-0.755,-0.55,
5540,-0.765,-0.565,
5541,-0.77,-0.575,
5542,-0.77,-0.57,
5543,-0.78,-0.565,
5544,-0.765,-0.56,
5545,-0.765,-0.555,
5546,-0.75,-0.55,
5547,-0.73,-0.53,
5548,-0.73,-0.53,
5549,-0.71,-0.53,
5550,-0.71,-0.52,
5551,-0.685,-0.53,
5552,-0.685,-0.53,
5553,-0.685,-0.54,
5554,-0.69,-0.535,
5555,-0.685,-0.53,
5556,-0.68,-0.52,
5557,-0.675,-0.52,
5558,-0.68,-0.5,
5559,-0.67,-0.505,
5560,-0.66,-0.52,
5561,-0.645,-0.515,
5562,-0.65,-0.54,
5563,-0.64,-0.545,
5564,-0.635,-0.565,
5565,-0.64,-0.575,
5566,-0.635,-0.585,
5567,-0.66,-0.585,
5568,-0.68,-0.575,
5569,-0.685,-0.58,
5570,-0.705,-0.575,
5571,-0.705,-0.57,
5572,-0.725,-0.555,
5573,-0.715,-0.58,
5574,-0.715,-0.57,
5575,-0.725,-0.575,
5576,-0.725,-0.585,
5577,-0.745,-0.58,
5578,-0.755,-0.585,
5579,-0.775,-0.585,
5580,-0.79,-0.57,
5581,-0.8,-0.545,
5582,-0.795,-0.525,
5583,-0.8,-0.53,
5584,-0.815,-0.52,
5585,-0.805,-0.52,
5586,-0.815,-0.525,
5587,-0.825,-0.54,
5588,-0.83,-0.54,
5589,-0.83,-0.54,
5590,-0.83,-0.55,
5591,-0.835,-0.55,
5592,-0.835,-0.545,
5593,-0.845,-0.54,
5594,-0.835,-0.55,
5595,-0.825,-0.545,
5596,-0.815,-0.545,
5597,-0.805,-0.525,
5598,-0.81,-0.54,
5599,-0.815,-0.54,
5600,-0.805,-0.54,
5601,-0.82,-0.56,
5602,-0.825,-0.56,
5603,-0.825,-0.57,
5604,-0.825,-0.545,
5605,-0.815,-0.54,
5606,-0.805,-0.525,
5607,-0.78,-0.515,
5608,-0.76,-0.5,
5609,-0.71,-0.5,
5610,-0.665,-0.505,
5611,-0.6,-0.525,
5612,-0.51,-0.545,
5613,-0.405,-0.56,
5614,-0.275,-0.59,
5615,-0.165,-0.61,
5616,-0.05,-0.625,
5617,0.02,-0.64,N
5618,0.02,-0.625,
5619,-0.05,-0.625,
5620,-0.195,-0.635,
5621,-0.35,-0.65,
5622,-0.545,-0.655,
5623,-0.745,-0.645,
5624,-0.93,-0.585,
5625,-1.045,-0.525,
5626,-1.095,-0.405,
5627,-1.085,-0.325,
5628,-1.05,-0.27,
5629,-1.0,-0.29,
5630,-0.945,-0.335,
5631,-0.93,-0.395,
5632,-0.9,-0.44,
5633,-0.905,-0.49,
5634,-0.915,-0.525,
5635,-0.925,-0.55,
5636,-0.945,-0.565,
5637,-0.94,-0.56,
5638,-0.95,-0.555,
5639,-0.94,-0.565,
5640,-0.935,-0.555,
5641,-0.94,-0.54,
5642,-0.925,-0.535,
5643,-0.93,-0.535,
5644,-0.93,-0.535,
5645,-0.925,-0.525,
5646,-0.93,-0.55,
5647,-0.925,-0.545,
5648,-0.95,-0.56,
5649,-0.955,-0.555,
5650,-0.955,-0.555,
5651,-0.96,-0.565,
5652,-0.96,-0.56,
5653,-0.955,-0.56,
5654,-0.955,-0.56,
5655,-0.95,-0.54,
5656,-0.945,-0.54,
5657,-0.94,-0.545,
5658,-0.94,-0.535,
5659,-0.94,-0.555,
5660,-0.95,-0.555,
5661,-0.96,-0.56,
5662,-0.96,-0.58,
5663,-0.965,-0.575,
5664,-0.975,-0.575,
5665,-0.98,-0.585,
5666,-0.97,-0.565,
5667,-0.97,-0.56,
5668,-0.965,-0.55,
5669,-0.965,-0.555,
5670,-0.97,-0.555,
5671,-0.98,-0.56,
5672,-1.01,-0.575,
5673,-1.02,-0.575,
5674,-1.0,-0.58,
5675,-1.01,-0.57,
5676,-1.015,-0.585,
5677,-1.005,-0.575,
5678,-1.005,-0.575,
5679,-1.005,-0.575,
5680,-0.995,-0.555,
5681,-1.01,-0.56,
5682,-1.01,-0.57,
5683,-1.015,-0.575,
5684,-1.025,-0.59,
5685,-1.035,-0.59,
5686,-1.04,-0.595,
5687,-1.045,-0.59,
5688,-1.055,-0.595,
5689,-1.055,-0.585,
5690,-1.06,-0.585,
5691,-1.045,-0.57,
5692,-1.045,-0.57,
5693,-1.05,-0.575,
5694,-1.06,-0.575,
5695,-1.07,-0.59,
5696,-1.075,-0.605,
5697,-1.085,-0.605,
5698,-1.09,-0.61,
5699,-1.085,-0.6,
5700,-1.09,-0.61,
5701,-1.085,-0.59,
5702,-1.09,-0.59,
5703,-1.08,-0.605,
5704,-1.065,-0.59,
5705,-1.05,-0.575,
5706,-1.05,-0.575,
5707,-1.06,-0.58,
5708,-1.045,-0.595,
5709,-1.05,-0.59,
5710,-1.05,-0.6,
5711,-1.035,-0.605,
5712,-1.04,-0.595,
5713,-1.025,-0.6,
5714,-1.01,-0.59,
5715,-0.985,-0.58,
5716,-0.97,-0.575,
5717,-0.945,-0.565,
5718,-0.925,-0.58,
5719,-0.915,-0.585,
5720,-0.895,-0.595,
5721,-0.89,-0.61,
5722,-0.88,-0.61,
5723,-0.855,-0.62,
5724,-0.83,-0.61,
5725,-0.815,-0.62,
5726,-0.785,-0.605,
5727,-0.755,-0.605,
5728,-0.745,-0.59,
5729,-0.71,-0.595,
5730,-0.715,-0.585,
5731,-0.71,-0.595,
5732,-0.7,-0.59,
5733,-0.695,-0.61,
5734,-0.7,-0.605,
5735,-0.7,-0.595,
5736,-0.705,-0.595,
5737,-0.7,-0.58,
5738,-0.695,-0.57,
5739,-0.695,-0.565,
5740,-0.695,-0.55,
5741,-0.685,-0.555,
5742,-0.695,-0.545,
5743,-0.705,-0.55,
5744,-0.71,-0.56,
5745,-0.72,-0.56,
5746,-0.73,-0.57,
5747,-0.72,-0.565,
5748,-0.725,-0.56,
5749,-0.73,-0.555,
5750,-0.73,-0.555,
5751,-0.72,-0.535,
5752,-0.72,-0.53,
5753,-0.715,-0.53,
5754,-0.72,-0.525,
5755,-0.73,-0.54,
5756,-0.745,-0.545,
5757,-0.74,-0.555,
5758,-0.75,-0.555,
5759,-0.745,-0.565,
5760,-0.755,-0.56,
5761,-0.76,-0.57,
5762,-0.76,-0.555,
5763,-0.745,-0.555,
5764,-0.74,-0.54,
5765,-0.735,-0.535,
5766,-0.74,-0.54,
5767,-0.76,-0.545,
5768,-0.76,-0.55,
5769,-0.765,-0.57,
5770,-0.77,-0.58,
5771,-0.775,-0.57,
5772,-0.775,-0.57,
5773,-0.785,-0.56,
5774,-0.78,-0.555,
5775,-0.77,-0.545,
5776,-0.765,-0.54,
5777,-0.76,-0.54,
5778,-0.765,-0.545,
5779,-0.77,-0.545,
5780,-0.77,-0.56,
5781,-0.78,-0.565,
5782,-0.785,-0.57,
5783,-0.8,-0.57,
5784,-0.8,-0.57,
5785,-0.795,-0.565,
5786,-0.78,-0.56,
5787,-0.78,-0.56,
5788,-0.77,-0.55,
5789,-0.78,-0.555,
5790,-0.77,-0.55,
5791,-0.765,-0.56,
5792,-0.77,-0.57,
5793,-0.775,-0.57,
5794,-0.765,-0.58,
5795,-0.765,-0.585,
5796,-0.755,-0.57,
5797,-0.74,-0.555,
5798,-0.725,-0.535,
5799,-0.71,-0.525,
5800,-0.7,-0.515,
5801,-0.68,-0.505,
5802,-0.68,-0.51,
5803,-0.675,-0.525,
5804,-0.685,-0.545,
5805,-0.71,-0.53,
5806,-0.7,-0.55,
5807,-0.705,-0.56,
5808,-0.705,-0.565,
5809,-0.695,-0.565,
5810,-0.675,-0.55,
5811,-0.655,-0.55,
5812,-0.65,-0.53,
5813,-0.64,-0.55,
5814,-0.65,-0.555,
5815,-0.67,-0.555,
5816,-0.68,-0.585,
5817,-0.71,-0.585,
5818,-0.73,-0.6,
5819,-0.745,-0.6,
5820,-0.76,-0.6,
5821,-0.76,-0.595,
5822,-0.75,-0.585,
5823,-0.74,-0.58,
5824,-0.74,-0.57,
5825,-0.74,-0.57,
5826,-0.77,-0.585,
5827,-0.77,-0.585,
5828,-0.81,-0.575,
5829,-0.815,-0.57,
5830,-0.825,-0.575,
5831,-0.835,-0.565,
5832,-0.845,-0.55,
5833,-0.855,-0.56,
5834,-0.855,-0.545,
5835,-0.84,-0.545,
5836,-0.835,-0.535,
5837,-0.83,-0.53,
5838,-0.84,-0.545,
5839,-0.84,-0.54,
5840,-0.845,-0.55,
5841,-0.845,-0.545,
5842,-0.85,-0.565,
5843,-0.85,-0.55,
5844,-0.86,-0.545,
5845,-0.865,-0.545,
5846,-0.855,-0.545,
5847,-0.84,-0.54,
5848,-0.835,-0.515,
5849,-0.82,-0.52,
5850,-0.825,-0.515,
5851,-0.825,-0.525,
5852,-0.83,-0.53,
5853,-0.845,-0.535,
5854,-0.835,-0.53,
5855,-0.835,-0.54,
5856,-0.82,-0.54,
5857,-0.78,-0.535,
5858,-0.71,-0.535,
5859,-0.64,-0.53,
5860,-0.545,-0.535,
5861,-0.42,-0.55,
5862,-0.295,-0.575,
5863,-0.165,-0.59,
5864,-0.065,-0.62,
5865,-0.01,-0.63,N
5866,-0.01,-0.64,
5867,-0.085,-0.655,
5868,-0.21,-0.665,
5869,-0.35,-0.665,
5870,-0.48,-0.675,
5871,-0.615,-0.655,
5872,-0.78,-0.635,
5873,-0.915,-0.6,
5874,-1.035,-0.57,
5875,-1.1,-0.485,
5876,-1.11,-0.395,
5877,-1.085,-0.315,
5878,-1.065,-0.295,
5879,-1.04,-0.31,
5880,-1.01,-0.335,
5881,-0.98,-0.415,
5882,-0.965,-0.455,
5883,-0.965,-0.48,
5884,-0.96,-0.495,
5885,-0.95,-0.505,
5886,-0.955,-0.52,
5887,-0.95,-0.52,
5888,-0.95,-0.535,
5889,-0.95,-0.55,
5890,-0.955,-0.565,
5891,-0.96,-0.555,
5892,-0.955,-0.555,
5893,-0.96,-0.555,
5894,-0.97,-0.54,
5895,-0.96,-0.535,
5896,-0.96,-0.53,
5897,-0.96,-0.525,
5898,-0.955,-0.525,
5899,-0.96,-0.545,
5900,-0.96,-0.55,
5901,-0.975,-0.555,
5902,-0.985,-0.565,
5903,-0.99,-0.57,
5904,-0.985,-0.57,
5905,-0.99,-0.565,
5906,-0.99,-0.56,
5907,-0.985,-0.555,
5908,-0.975,-0.535,
5909,-0.955,-0.54,
5910,-0.975,-0.54,
5911,-0.97,-0.54,
5912,-0.985,-0.55,
5913,-0.985,-0.545,
5914,-1.0,-0.565,
5915,-1.005,-0.56,
5916,-1.01,-0.565,
5917,-1.015,-0.55,
5918,-1.01,-0.56,
5919,-1.005,-0.555,
5920,-1.01,-0.545,
5921,-1.01,-0.545,
5922,-1.025,-0.555,
5923,-1.025,-0.56,
5924,-1.025,-0.56,
5925,-1.04,-0.57,
5926,-1.04,-0.575,
5927,-1.05,-0.58,
5928,-1.055,-0.58,
5929,-1.06,-0.57,
5930,-1.06,-0.555,
5931,-1.065,-0.555,
5932,-1.065,-0.55,
5933,-1.05,-0.555,
5934,-1.055,-0.56,
5935,-1.07,-0.56,
5936,-1.075,-0.57,
5937,-1.08,-0.565,
5938,-1.09,-0.58,
5939,-1.105,-0.585,
5940,-1.105,-0.58,
5941,-1.115,-0.565,
5942,-1.105,-0.565,
5943,-1.1,-0.56,
5944,-1.105,-0.55,
5945,-1.1,-0.555,
5946,-1.095,-0.56,
5947,-1.11,-0.555,
5948,-1.115,-0.565,
5949,-1.125,-0.575,
5950,-1.13,-0.58,
5951,-1.12,-0.59,
5952,-1.13,-0.58,
5953,-1.125,-0.585,
5954,-1.11,-0.575,
5955,-1.105,-0.57,
5956,-1.09,-0.56,
5957,-1.095,-0.565,
5958,-1.08,-0.565,
5959,-1.075,-0.575,
5960,-1.08,-0.58,
5961,-1.08,-0.59,
5962,-1.08,-0.585,
5963,-1.07,-0.59,
5964,-1.065,-0.585,
5965,-1.06,-0.58,
5966,-1.04,-0.57,
5967,-1.02,-0.565,
5968,-0.985,-0.565,
5969,-0.955,-0.565,
5970,-0.945,-0.565,
5971,-0.915,-0.575,
5972,-0.9,-0.575,
5973,-0.885,-0.58,
5974,-0.875,-0.6,
5975,-0.855,-0.605,
5976,-0.835,-0.61,
5977,-0.81,-0.605,
5978,-0.785,-0.58,
5979,-0.765,-0.575,
5980,-0.765,-0.57,
5981,-0.74,-0.57,
5982,-0.73,-0.57,
5983,-0.72,-0.575,
5984,-0.725,-0.58,
5985,-0.75,-0.58,
5986,-0.735,-0.58,
5987,-0.74,-0.59,
5988,-0.74,-0.585,
5989,-0.735,-0.57,
5990,-0.735,-0.575,
5991,-0.735,-0.56,
5992,-0.735,-0.535,
5993,-0.725,-0.545,
5994,-0.74,-0.535,
5995,-0.755,-0.53,
5996,-0.745,-0.545,
5997,-0.755,-0.55,
5998,-0.77,-0.55,
5999,-0.765,-0.55,
6000,-0.775,-0.55,
6001,-0.775,-0.54,
6002,-0.765,-0.53,
6003,-0.765,-0.525,
6004,-0.765,-0.52,
6005,-0.76,-0.505,
6006,-0.755,-0.51,
6007,-0.77,-0.53,
6008,-0.78,-0.54,
6009,-0.785,-0.54,
6010,-0.79,-0.555,
6011,-0.795,-0.54,
6012,-0.795,-0.545,
6013,-0.795,-0.53,
6014,-0.79,-0.535,
6015,-0.79,-0.53,
6016,-0.78,-0.53,
6017,-0.77,-0.53,
6018,-0.775,-0.535,
6019,-0.775,-0.54,
6020,-0.785,-0.55,
6021,-0.8,-0.565,
6022,-0.805,-0.565,
6023,-0.815,-0.56,
6024,-0.82,-0.575,
6025,-0.825,-0.555,
6026,-0.82,-0.545,
6027,-0.805,-0.545,
6028,-0.79,-0.535,
6029,-0.79,-0.54,
6030,-0.785,-0.535,
6031,-0.785,-0.54,
6032,-0.79,-0.555,
6033,-0.795,-0.565,
6034,-0.8,-0.555,
6035,-0.8,-0.57,
6036,-0.8,-0.56,
6037,-0.795,-0.55,
6038,-0.795,-0.54,
6039,-0.78,-0.545,
6040,-0.775,-0.53,
6041,-0.765,-0.53,
6042,-0.755,-0.535,
6043,-0.76,-0.535,
6044,-0.76,-0.55,
6045,-0.75,-0.555,
6046,-0.745,-0.55,
6047,-0.735,-0.555,
6048,-0.725,-0.555,
6049,-0.71,-0.54,
6050,-0.705,-0.535,
6051,-0.695,-0.525,
6052,-0.685,-0.51,
6053,-0.69,-0.515,
6054,-0.69,-0.52,
6055,-0.695,-0.525,
6056,-0.695,-0.545,
6057,-0.675,-0.555,
6058,-0.68,-0.565,
6059,-0.68,-0.58,
6060,-0.685,-0.57,
6061,-0.705,-0.58,
6062,-0.715,-0.575,
6063,-0.725,-0.57,
6064,-0.745,-0.56,
6065,-0.745,-0.565,
6066,-0.74,-0.565,
6067,-0.75,-0.575,
6068,-0.74,-0.585,
6069,-0.76,-0.6,
6070,-0.78,-0.605,
6071,-0.8,-0.6,
6072,-0.82,-0.59,
6073,-0.83,-0.565,
6074,-0.84,-0.54,
6075,-0.845,-0.53,
6076,-0.845,-0.52,
6077,-0.845,-0.515,
6078,-0.85,-0.535,
6079,-0.855,-0.52,
6080,-0.86,-0.54,
6081,-0.865,-0.56,
6082,-0.865,-0.565,
6083,-0.87,-0.565,
6084,-0.875,-0.56,
6085,-0.875,-0.555,
6086,-0.865,-0.54,
6087,-0.87,-0.53,
6088,-0.855,-0.515,
6089,-0.845,-0.52,
6090,-0.84,-0.53,
6091,-0.845,-0.545,
6092,-0.845,-0.54,
6093,-0.855,-0.535,
6094,-0.855,-0.545,
6095,-0.86,-0.55,
6096,-0.87,-0.54,
6097,-0.85,-0.53,
6098,-0.85,-0.53,
6099,-0.83,-0.525,
6100,-0.81,-0.505,
6101,-0.77,-0.51,
6102,-0.705,-0.51,
6103,-0.635,-0.53,
6104,-0.535,-0.55,
6105,-0.425,-0.58,
6106,-0.29,-0.605,
6107,-0.185,-0.625,
6108,-0.095,-0.64,
6109,-0.04,-0.65,N
6110,-0.06,-0.645,
6111,-0.14,-0.655,
6112,-0.26,-0.66,
6113,-0.385,-0.67,
6114,-0.525,-0.67,
6115,-0.675,-0.665,
6116,-0.84,-0.635,
6117,-1.0,-0.6,
6118,-1.11,-0.52,
6119,-1.16,-0.415,
6120,-1.16,-0.32,
6121,-1.125,-0.275,
6122,-1.085,-0.285,
6123,-1.03,-0.345,
6124,-0.995,-0.4,
6125,-0.97,-0.46,
6126,-0.97,-0.51,
6127,-0.96,-0.525,
6128,-0.955,-0.545,
6129,-0.965,-0.555,
6130,-0.96,-0.55,
6131,-0.97,-0.55,
6132,-0.965,-0.55,
6133,-0.975,-0.54,
6134,-0.97,-0.53,
6135,-0.96,-0.525,
6136,-0.955,-0.515,
6137,-0.96,-0.53,
6138,-0.95,-0.535,
6139,-0.955,-0.535,
6140,-0.97,-0.555,
6141,-0.99,-0.555,
6142,-0.995,-0.56,
6143,-0.995,-0.555,
6144,-0.995,-0.57,
6145,-0.985,-0.56,
6146,-0.985,-0.54,
6147,-0.975,-0.545,
6148,-0.97,-0.53,
6149,-0.965,-0.535,
6150,-0.975,-0.54,
6151,-0.975,-0.545,
6152,-0.99,-0.55,
6153,-0.995,-0.555,
6154,-0.99,-0.565,
6155,-1.0,-0.565,
6156,-1.025,-0.56,
6157,-1.02,-0.55,
6158,-0.995,-0.55,
6159,-0.995,-0.54,
6160,-0.99,-0.525,
6161,-0.99,-0.525,
6162,-0.99,-0.525,
6163,-0.995,-0.535,
6164,-1.01,-0.55,
6165,-1.02,-0.545,
6166,-1.02,-0.555,
6167,-1.04,-0.57,
6168,-1.045,-0.565,
6169,-1.04,-0.57,
6170,-1.04,-0.545,
6171,-1.04,-0.55,
6172,-1.04,-0.545,
6173,-1.03,-0.54,
6174,-1.03,-0.54,
6175,-1.035,-0.55,
6176,-1.05,-0.57,
6177,-1.06,-0.58,
6178,-1.075,-0.59,
6179,-1.065,-0.595,
6180,-1.075,-0.58,
6181,-1.08,-0.575,
6182,-1.075,-0.565,
6183,-1.07,-0.56,
6184,-1.07,-0.54,
6185,-1.07,-0.545,
6186,-1.065,-0.56,
6187,-1.075,-0.565,
6188,-1.09,-0.56,
6189,-1.095,-0.57,
6190,-1.095,-0.575,
6191,-1.1,-0.59,
6192,-1.1,-0.575,
6193,-1.1,-0.575,
6194,-1.085,-0.575,
6195,-1.085,-0.565,
6196,-1.07,-0.555,
6197,-1.065,-0.56,
6198,-1.05,-0.555,
6199,-1.05,-0.565,
6200,-1.055,-0.575,
6201,-1.055,-0.58,
6202,-1.05,-0.59,
6203,-1.045,-0.595,
6204,-1.04,-0.6,
6205,-1.035,-0.6,
6206,-1.005,-0.595,
6207,-0.995,-0.575,
6208,-0.965,-0.575,
6209,-0.935,-0.575,
6210,-0.925,-0.57,
6211,-0.905,-0.585,
6212,-0.89,-0.59,
6213,-0.895,-0.595,
6214,-0.86,-0.6,
6215,-0.85,-0.62,
6216,-0.835,-0.6,
6217,-0.81,-0.605,
6218,-0.8,-0.59,
6219,-0.78,-0.59,
6220,-0.755,-0.58,
6221,-0.74,-0.58,
6222,-0.725,-0.575,
6223,-0.73,-0.57,
6224,-0.72,-0.57,
6225,-0.725,-0.575,
6226,-0.73,-0.59,
6227,-0.73,-0.58,
6228,-0.725,-0.57,
6229,-0.725,-0.57,
6230,-0.72,-0.56,
6231,-0.71,-0.545,
6232,-0.705,-0.545,
6233,-0.715,-0.545,
6234,-0.725,-0.535,
6235,-0.725,-0.545,
6236,-0.735,-0.555,
6237,-0.74,-0.555,
6238,-0.76,-0.57,
6239,-0.75,-0.575,
6240,-0.755,-0.565,
6241,-0.755,-0.55,
6242,-0.755,-0.545,
6243,-0.755,-0.545,
6244,-0.75,-0.535,
6245,-0.745,-0.535,
6246,-0.745,-0.53,
6247,-0.745,-0.535,
6248,-0.765,-0.54,
6249,-0.77,-0.55,
6250,-0.78,-0.555,
6251,-0.775,-0.55,
6252,-0.77,-0.56,
6253,-0.775,-0.555,
6254,-0.77,-0.535,
6255,-0.77,-0.545,
6256,-0.76,-0.525,
6257,-0.76,-0.53,
6258,-0.76,-0.53,
6259,-0.765,-0.54,
6260,-0.775,-0.55,
6261,-0.785,-0.555,
6262,-0.78,-0.565,
6263,-0.8,-0.58,
6264,-0.795,-0.58,
6265,-0.795,-0.59,
6266,-0.795,-0.575,
6267,-0.79,-0.56,
6268,-0.785,-0.555,
6269,-0.79,-0.555,
6270,-0.78,-0.565,
6271,-0.78,-0.565,
6272,-0.79,-0.575,
6273,-0.79,-0.565,
6274,-0.805,-0.59,
6275,-0.815,-0.595,
6276,-0.81,-0.585,
6277,-0.795,-0.585,
6278,-0.805,-0.57,
6279,-0.8,-0.57,
6280,-0.805,-0.55,
6281,-0.785,-0.555,
6282,-0.78,-0.55,
6283,-0.78,-0.555,
6284,-0.78,-0.57,
6285,-0.77,-0.56,
6286,-0.775,-0.56,
6287,-0.78,-0.57,
6288,-0.775,-0.565,
6289,-0.76,-0.56,
6290,-0.75,-0.555,
6291,-0.735,-0.535,
6292,-0.73,-0.535,
6293,-0.7,-0.53,
6294,-0.7,-0.515,
6295,-0.685,-0.52,
6296,-0.69,-0.53,
6297,-0.72,-0.535,
6298,-0.715,-0.55,
6299,-0.71,-0.57,
6300,-0.715,-0.56,
6301,-0.705,-0.55,
6302,-0.705,-0.55,
6303,-0.69,-0.555,
6304,-0.675,-0.535,
6305,-0.655,-0.545,
6306,-0.65,-0.545,
6307,-0.65,-0.565,
6308,-0.655,-0.565,
6309,-0.67,-0.58,
6310,-0.69,-0.595,
6311,-0.72,-0.595,
6312,-0.735,-0.59,
6313,-0.755,-0.595,
6314,-0.755,-0.58,
6315,-0.755,-0.585,
6316,-0.745,-0.57,
6317,-0.735,-0.565,
6318,-0.75,-0.575,
6319,-0.755,-0.57,
6320,-0.765,-0.595,
6321,-0.785,-0.59,
6322,-0.815,-0.585,
6323,-0.83,-0.57,
6324,-0.845,-0.55,
6325,-0.84,-0.54,
6326,-0.85,-0.53,
6327,-0.845,-0.52,
6328,-0.845,-0.52,
6329,-0.85,-0.52,
6330,-0.845,-0.53,
6331,-0.85,-0.535,
6332,-0.845,-0.535,
6333,-0.855,-0.54,
6334,-0.855,-0.555,
6335,-0.86,-0.55,
6336,-0.88,-0.55,
6337,-0.87,-0.55,
6338,-0.865,-0.54,
6339,-0.865,-0.545,
6340,-0.855,-0.53,
6341,-0.85,-0.535,
6342,-0.85,-0.53,
6343,-0.86,-0.53,
6344,-0.86,-0.535,
6345,-0.87,-0.54,
6346,-0.865,-0.55,
6347,-0.855,-0.545,
6348,-0.86,-0.555,
6349,-0.85,-0.545,
6350,-0.85,-0.525,
6351,-0.83,-0.515,
6352,-0.785,-0.5,
6353,-0.75,-0.505,
6354,-0.685,-0.505,
6355,-0.615,-0.525,
6356,-0.505,-0.545,
6357,-0.39,-0.575,
6358,-0.26,-0.605,
6359,-0.16,-0.63,
6360,-0.095,-0.635,
6361,-0.075,-0.65,N
6362,-0.145,-0.64,
6363,-0.22,-0.64,
6364,-0.355,-0.655,
6365,-0.475,-0.67,
6366,-0.595,-0.69,
6367,-0.725,-0.68,
6368,-0.89,-0.65,
6369,-1.05,-0.625,
6370,-1.145,-0.57,
6371,-1.18,-0.49,
6372,-1.17,-0.385,
6373,-1.15,-0.305,
6374,-1.115,-0.255,
6375,-1.085,-0.275,
6376,-1.055,-0.32,
6377,-1.01,-0.385,
6378,-1.005,-0.455,
6379,-0.995,-0.495,
6380,-0.98,-0.53,
6381,-0.97,-0.535,
6382,-0.97,-0.55,
6383,-0.95,-0.56,
6384,-0.95,-0.555,
6385,-0.96,-0.55,
6386,-0.955,-0.53,
6387,-0.945,-0.52,
6388,-0.945,-0.51,
6389,-0.945,-0.52,
6390,-0.935,-0.525,
6391,-0.95,-0.515,
6392,-0.945,-0.525,
6393,-0.965,-0.535,
6394,-0.955,-0.545,
6395,-0.98,-0.56,
6396,-0.975,-0.555,
6397,-0.975,-0.56,
