,MLII,V1,symbol
0,-0.46,0.13,
1,-0.46,0.13,
2,-0.46,0.13,
3,-0.46,0.13,
4,-0.46,0.13,
5,-0.46,0.13,
6,-0.46,0.13,
7,-0.46,0.13,
8,-0.455,0.13,
9,-0.455,0.14,
10,-0.44,0.14,
11,-0.435,0.145,
12,-0.43,0.125,
13,-0.445,0.12,
14,-0.44,0.115,
15,-0.435,0.13,
16,-0.425,0.14,
17,-0.415,0.145,
18,-0.43,0.14,
19,-0.435,0.125,
20,-0.47,0.12,
21,-0.455,0.13,
22,-0.415,0.135,+
23,-0.425,0.13,
24,-0.44,0.115,
25,-0.445,0.11,
26,-0.435,0.11,
27,-0.435,0.14,
28,-0.425,0.15,
29,-0.42,0.14,
30,-0.43,0.125,
31,-0.44,0.125,
32,-0.46,0.125,
33,-0.435,0.125,
34,-0.435,0.145,
35,-0.415,0.14,
36,-0.425,0.135,
37,-0.435,0.12,
38,-0.435,0.12,
39,-0.435,0.13,
40,-0.415,0.14,
41,-0.41,0.14,
42,-0.43,0.11,
43,-0.435,0.11,
44,-0.45,0.11,
45,-0.43,0.115,
46,-0.405,0.12,
47,-0.41,0.125,
48,-0.415,0.12,
49,-0.425,0.105,
50,-0.44,0.11,
51,-0.43,0.115,
52,-0.415,0.13,
53,-0.415,0.125,
54,-0.415,0.115,
55,-0.435,0.1,
56,-0.435,0.105,
57,-0.43,0.115,
58,-0.415,0.135,
59,-0.405,0.125,
60,-0.41,0.11,
61,-0.44,0.11,
62,-0.44,0.105,
63,-0.425,0.115,
64,-0.41,0.125,
65,-0.41,0.125,
66,-0.415,0.11,
67,-0.425,0.085,
68,-0.435,0.095,
69,-0.43,0.105,
70,-0.42,0.125,
71,-0.4,0.12,
72,-0.41,0.11,
73,-0.425,0.09,
74,-0.43,0.1,
75,-0.43,0.11,
76,-0.41,0.125,
77,-0.405,0.11,
78,-0.405,0.105,
79,-0.415,0.1,
80,-0.43,0.095,
81,-0.435,0.11,
82,-0.425,0.135,
83,-0.395,0.125,
84,-0.4,0.105,
85,-0.405,0.1,
86,-0.415,0.105,
87,-0.41,0.115,
88,-0.405,0.12,
89,-0.395,0.13,
90,-0.405,0.1,
91,-0.415,0.1,
92,-0.415,0.095,
93,-0.415,0.11,
94,-0.395,0.125,
95,-0.395,0.115,
96,-0.39,0.1,
97,-0.4,0.095,
98,-0.405,0.1,
99,-0.4,0.11,
100,-0.4,0.13,
101,-0.385,0.13,
102,-0.385,0.12,
103,-0.405,0.115,
104,-0.4,0.115,
105,-0.385,0.135,
106,-0.37,0.15,
107,-0.345,0.16,
108,-0.355,0.135,
109,-0.355,0.13,
110,-0.355,0.125,
111,-0.34,0.145,
112,-0.32,0.145,
113,-0.295,0.14,
114,-0.305,0.115,
115,-0.32,0.085,
116,-0.32,0.085,
117,-0.31,0.095,
118,-0.28,0.095,
119,-0.275,0.08,
120,-0.285,0.075,
121,-0.3,0.07,
122,-0.305,0.075,
123,-0.305,0.09,
124,-0.29,0.095,
125,-0.275,0.1,
126,-0.285,0.09,
127,-0.305,0.075,
128,-0.325,0.09,
129,-0.32,0.105,
130,-0.335,0.105,
131,-0.335,0.095,
132,-0.36,0.08,
133,-0.365,0.07,
134,-0.365,0.07,
135,-0.36,0.09,
136,-0.35,0.105,
137,-0.355,0.09,
138,-0.37,0.085,
139,-0.355,0.075,
140,-0.37,0.08,
141,-0.355,0.1,
142,-0.355,0.115,
143,-0.355,0.11,
144,-0.35,0.09,
145,-0.355,0.08,
146,-0.36,0.08,
147,-0.36,0.095,
148,-0.35,0.125,
149,-0.335,0.115,
150,-0.33,0.095,
151,-0.335,0.09,
152,-0.345,0.11,
153,-0.33,0.145,
154,-0.31,0.175,
155,-0.31,0.21,
156,-0.305,0.25,
157,-0.335,0.275,
158,-0.375,0.27,
159,-0.4,0.29,
160,-0.415,0.28,
161,-0.42,0.225,
162,-0.39,0.145,
163,-0.35,0.035,
164,-0.2,-0.075,
165,0.09,-0.17,
166,0.49,-0.23,
167,0.96,-0.295,
168,1.39,-0.295,
169,1.755,-0.265,
170,1.99,-0.185,N
171,2.09,-0.065,
172,2.05,-0.005,
173,1.72,0.04,
174,1.08,0.03,
175,0.44,0.005,
176,-0.2,0.015,
177,-0.64,0.05,
178,-0.595,0.085,
179,-0.49,0.105,
180,-0.46,0.1,
181,-0.495,0.09,
182,-0.515,0.085,
183,-0.5,0.1,
184,-0.465,0.105,
185,-0.44,0.125,
186,-0.43,0.115,
187,-0.375,0.105,
188,-0.345,0.11,
189,-0.305,0.13,
190,-0.29,0.14,
191,-0.25,0.13,
192,-0.25,0.115,
193,-0.27,0.11,
194,-0.285,0.11,
195,-0.28,0.12,
196,-0.255,0.12,
197,-0.235,0.12,
198,-0.255,0.11,
199,-0.26,0.1,
200,-0.255,0.105,
201,-0.25,0.125,
202,-0.245,0.135,
203,-0.23,0.13,
204,-0.23,0.11,
205,-0.25,0.115,
206,-0.26,0.115,
207,-0.25,0.12,
208,-0.225,0.13,
209,-0.215,0.13,
210,-0.22,0.125,
211,-0.24,0.1,
212,-0.235,0.105,
213,-0.235,0.11,
214,-0.21,0.13,
215,-0.195,0.11,
216,-0.2,0.105,
217,-0.215,0.1,
218,-0.215,0.11,
219,-0.21,0.115,
220,-0.195,0.125,
221,-0.195,0.115,
222,-0.21,0.11,
223,-0.22,0.105,
224,-0.215,0.105,
225,-0.195,0.115,
226,-0.175,0.13,
227,-0.165,0.12,
228,-0.185,0.105,
229,-0.19,0.115,
230,-0.195,0.105,
231,-0.195,0.105,
232,-0.175,0.13,
233,-0.17,0.13,
234,-0.16,0.11,
235,-0.17,0.095,
236,-0.19,0.105,
237,-0.175,0.125,
238,-0.15,0.14,
239,-0.135,0.125,
240,-0.14,0.115,
241,-0.135,0.11,
242,-0.145,0.11,
243,-0.13,0.115,
244,-0.115,0.13,
245,-0.105,0.115,
246,-0.1,0.115,
247,-0.1,0.105,
248,-0.115,0.105,
249,-0.095,0.115,
250,-0.06,0.135,
251,-0.05,0.115,
252,-0.055,0.115,
253,-0.05,0.09,
254,-0.05,0.095,
255,-0.03,0.12,
256,-0.01,0.11,
257,0.0,0.13,
258,0.015,0.11,
259,-0.005,0.095,
260,0.025,0.095,
261,0.035,0.105,
262,0.06,0.1,
263,0.085,0.1,
264,0.105,0.095,
265,0.1,0.08,
266,0.11,0.09,
267,0.13,0.105,
268,0.17,0.105,
269,0.205,0.11,
270,0.215,0.09,
271,0.235,0.085,
272,0.25,0.09,
273,0.285,0.095,
274,0.305,0.11,
275,0.345,0.105,
276,0.36,0.09,
277,0.38,0.07,
278,0.395,0.075,
279,0.435,0.09,
280,0.46,0.095,
281,0.495,0.085,
282,0.515,0.085,
283,0.535,0.065,
284,0.54,0.07,
285,0.58,0.07,
286,0.625,0.08,
287,0.655,0.07,
288,0.67,0.05,
289,0.69,0.055,
290,0.7,0.06,
291,0.73,0.08,
292,0.75,0.08,
293,0.785,0.085,
294,0.805,0.07,
295,0.8,0.07,
296,0.795,0.06,
297,0.805,0.09,
298,0.81,0.095,
299,0.79,0.095,
300,0.76,0.095,
301,0.72,0.075,
302,0.675,0.085,
303,0.63,0.09,
304,0.58,0.11,
305,0.55,0.105,
306,0.48,0.11,
307,0.42,0.095,
308,0.335,0.105,
309,0.285,0.12,
310,0.23,0.13,
311,0.17,0.135,
312,0.105,0.11,
313,0.04,0.1,
314,-0.04,0.095,
315,-0.075,0.105,
316,-0.1,0.115,
317,-0.135,0.105,
318,-0.18,0.115,
319,-0.23,0.105,
320,-0.26,0.1,
321,-0.275,0.115,
322,-0.28,0.12,
323,-0.27,0.115,
324,-0.295,0.105,
325,-0.325,0.095,
326,-0.355,0.095,
327,-0.35,0.105,
328,-0.35,0.115,
329,-0.35,0.12,
330,-0.37,0.115,
331,-0.39,0.095,
332,-0.395,0.1,
333,-0.39,0.11,
334,-0.38,0.11,
335,-0.385,0.12,
336,-0.38,0.1,
337,-0.41,0.11,
338,-0.41,0.1,
339,-0.415,0.13,
340,-0.41,0.125,
341,-0.39,0.115,
342,-0.395,0.12,
343,-0.41,0.1,
344,-0.425,0.105,
345,-0.415,0.12,
346,-0.4,0.135,
347,-0.385,0.12,
348,-0.395,0.12,
349,-0.41,0.11,
350,-0.42,0.095,
351,-0.405,0.115,
352,-0.4,0.135,
353,-0.39,0.13,
354,-0.4,0.115,
355,-0.405,0.105,
356,-0.425,0.115,
357,-0.43,0.12,
358,-0.395,0.14,
359,-0.395,0.135,
360,-0.4,0.12,
361,-0.425,0.115,
362,-0.42,0.11,
363,-0.425,0.13,
364,-0.4,0.145,
365,-0.395,0.13,
366,-0.395,0.13,
367,-0.405,0.12,
368,-0.42,0.12,
369,-0.42,0.135,
370,-0.42,0.15,
371,-0.405,0.13,
372,-0.41,0.125,
373,-0.41,0.115,
374,-0.43,0.115,
375,-0.42,0.135,
376,-0.405,0.14,
377,-0.4,0.14,
378,-0.42,0.125,
379,-0.425,0.12,
380,-0.435,0.13,
381,-0.43,0.14,
382,-0.42,0.135,
383,-0.4,0.15,
384,-0.41,0.14,
385,-0.44,0.13,
386,-0.44,0.13,
387,-0.43,0.145,
388,-0.42,0.15,
389,-0.43,0.15,
390,-0.44,0.14,
391,-0.455,0.12,
392,-0.455,0.125,
393,-0.455,0.135,
394,-0.435,0.155,
395,-0.425,0.15,
396,-0.44,0.13,
397,-0.455,0.125,
398,-0.465,0.135,
399,-0.455,0.15,
400,-0.445,0.165,
401,-0.43,0.155,
402,-0.455,0.135,
403,-0.47,0.13,
404,-0.47,0.14,
405,-0.465,0.155,
406,-0.46,0.16,
407,-0.45,0.15,
408,-0.46,0.145,
409,-0.455,0.14,
410,-0.465,0.135,
411,-0.46,0.155,
412,-0.46,0.175,
413,-0.45,0.165,
414,-0.455,0.155,
415,-0.47,0.15,
416,-0.48,0.145,
417,-0.48,0.16,
418,-0.46,0.165,
419,-0.45,0.175,
420,-0.45,0.155,
421,-0.465,0.15,
422,-0.47,0.155,
423,-0.47,0.175,
424,-0.455,0.185,
425,-0.44,0.19,
426,-0.45,0.165,
427,-0.46,0.155,
428,-0.47,0.16,
429,-0.46,0.17,
430,-0.455,0.175,
431,-0.46,0.175,
432,-0.45,0.18,
433,-0.465,0.155,
434,-0.48,0.17,
435,-0.465,0.185,
436,-0.445,0.195,
437,-0.445,0.195,
438,-0.455,0.185,
439,-0.475,0.17,
440,-0.465,0.185,
441,-0.47,0.195,
442,-0.445,0.21,
443,-0.45,0.195,
444,-0.455,0.19,
445,-0.465,0.19,
446,-0.475,0.185,
447,-0.45,0.21,
448,-0.455,0.215,
449,-0.435,0.21,
450,-0.455,0.205,
451,-0.475,0.2,
452,-0.47,0.215,
453,-0.46,0.21,
454,-0.46,0.23,
455,-0.45,0.225,
456,-0.44,0.22,
457,-0.47,0.21,
458,-0.45,0.205,
459,-0.455,0.225,
460,-0.435,0.24,
461,-0.43,0.24,
462,-0.43,0.23,
463,-0.445,0.215,
464,-0.445,0.23,
465,-0.455,0.23,
466,-0.43,0.25,
467,-0.42,0.255,
468,-0.425,0.24,
469,-0.45,0.22,
470,-0.445,0.23,
471,-0.445,0.25,
472,-0.425,0.255,
473,-0.425,0.265,
474,-0.445,0.245,
475,-0.43,0.235,
476,-0.46,0.25,
477,-0.435,0.26,
478,-0.44,0.27,
479,-0.43,0.27,
480,-0.435,0.255,
481,-0.445,0.245,
482,-0.445,0.265,
483,-0.435,0.26,
484,-0.435,0.28,
485,-0.43,0.275,
486,-0.425,0.265,
487,-0.45,0.26,
488,-0.445,0.26,
489,-0.43,0.28,
490,-0.425,0.285,
491,-0.42,0.29,
492,-0.425,0.28,
493,-0.435,0.27,
494,-0.435,0.27,
495,-0.435,0.29,
496,-0.42,0.3,
497,-0.405,0.3,
498,-0.425,0.295,
499,-0.435,0.28,
500,-0.44,0.275,
501,-0.425,0.3,
502,-0.41,0.315,
503,-0.4,0.295,
504,-0.4,0.3,
505,-0.415,0.285,
506,-0.425,0.31,
507,-0.42,0.315,
508,-0.405,0.325,
509,-0.4,0.325,
510,-0.415,0.325,
511,-0.415,0.31,
512,-0.42,0.315,
513,-0.42,0.315,
514,-0.405,0.345,
515,-0.39,0.35,
516,-0.405,0.345,
517,-0.415,0.35,
518,-0.405,0.355,
519,-0.405,0.38,
520,-0.38,0.39,
521,-0.36,0.39,
522,-0.355,0.37,
523,-0.36,0.355,
524,-0.36,0.355,
525,-0.335,0.365,
526,-0.335,0.375,
527,-0.325,0.36,
528,-0.325,0.345,
529,-0.32,0.315,
530,-0.315,0.32,
531,-0.31,0.325,
532,-0.305,0.345,
533,-0.305,0.35,
534,-0.305,0.345,
535,-0.325,0.345,
536,-0.345,0.355,
537,-0.33,0.365,
538,-0.31,0.38,
539,-0.315,0.37,
540,-0.33,0.365,
541,-0.35,0.37,
542,-0.375,0.385,
543,-0.37,0.39,
544,-0.375,0.39,
545,-0.37,0.38,
546,-0.365,0.365,
547,-0.375,0.375,
548,-0.395,0.37,
549,-0.385,0.385,
550,-0.37,0.41,
551,-0.35,0.4,
552,-0.365,0.385,
553,-0.375,0.395,
554,-0.385,0.395,
555,-0.36,0.405,
556,-0.365,0.415,
557,-0.36,0.405,
558,-0.35,0.405,
559,-0.365,0.4,
560,-0.365,0.41,
561,-0.355,0.43,
562,-0.345,0.44,
563,-0.33,0.445,
564,-0.325,0.45,
565,-0.335,0.46,
566,-0.335,0.49,
567,-0.325,0.535,
568,-0.33,0.595,
569,-0.325,0.625,
570,-0.355,0.64,
571,-0.395,0.64,
572,-0.435,0.625,
573,-0.455,0.595,
574,-0.43,0.54,
575,-0.36,0.44,
576,-0.24,0.33,
577,0.0,0.21,
578,0.36,0.115,
579,0.85,0.06,
580,1.34,0.07,
581,1.73,0.105,
582,2.0,0.18,
583,2.11,0.265,N
584,2.015,0.35,
585,1.705,0.415,
586,1.065,0.43,
587,0.425,0.415,
588,-0.215,0.405,
589,-0.66,0.44,
590,-0.605,0.47,
591,-0.495,0.5,
592,-0.45,0.53,
593,-0.465,0.52,
594,-0.5,0.5,
595,-0.495,0.505,
596,-0.48,0.51,
597,-0.44,0.54,
598,-0.38,0.55,
599,-0.315,0.55,
600,-0.285,0.53,
601,-0.27,0.535,
602,-0.265,0.53,
603,-0.26,0.545,
604,-0.24,0.565,
605,-0.24,0.56,
606,-0.235,0.55,
607,-0.27,0.55,
608,-0.255,0.56,
609,-0.255,0.56,
610,-0.24,0.58,
611,-0.225,0.57,
612,-0.22,0.56,
613,-0.235,0.55,
614,-0.235,0.55,
615,-0.23,0.58,
616,-0.205,0.585,
617,-0.21,0.58,
618,-0.2,0.57,
619,-0.215,0.565,
620,-0.23,0.57,
621,-0.215,0.58,
622,-0.2,0.595,
623,-0.2,0.59,
624,-0.2,0.585,
625,-0.21,0.57,
626,-0.19,0.59,
627,-0.19,0.59,
628,-0.185,0.625,
629,-0.17,0.605,
630,-0.16,0.59,
631,-0.175,0.59,
632,-0.18,0.575,
633,-0.155,0.6,
634,-0.145,0.62,
635,-0.14,0.61,
636,-0.14,0.615,
637,-0.165,0.6,
638,-0.15,0.605,
639,-0.165,0.615,
640,-0.14,0.625,
641,-0.13,0.63,
642,-0.125,0.605,
643,-0.14,0.605,
644,-0.145,0.615,
645,-0.135,0.63,
646,-0.13,0.645,
647,-0.11,0.635,
648,-0.11,0.605,
649,-0.105,0.6,
650,-0.1,0.605,
651,-0.1,0.63,
652,-0.07,0.64,
653,-0.05,0.635,
654,-0.045,0.625,
655,-0.055,0.615,
656,-0.06,0.62,
657,-0.035,0.645,
658,-0.02,0.655,
659,0.005,0.655,
660,0.01,0.635,
661,0.005,0.625,
662,0.005,0.635,
663,0.015,0.65,
664,0.055,0.665,
665,0.055,0.65,
666,0.075,0.64,
667,0.08,0.62,
668,0.09,0.635,
669,0.12,0.655,
670,0.135,0.66,
671,0.175,0.65,
672,0.185,0.645,
673,0.19,0.63,
674,0.19,0.64,
675,0.21,0.655,
676,0.255,0.65,
677,0.275,0.65,
678,0.31,0.64,
679,0.315,0.64,
680,0.34,0.625,
681,0.37,0.645,
682,0.415,0.66,
683,0.45,0.655,
684,0.475,0.645,
685,0.505,0.635,
686,0.525,0.64,
687,0.55,0.65,
688,0.605,0.655,
689,0.64,0.645,
690,0.665,0.64,
691,0.68,0.63,
692,0.69,0.635,
693,0.72,0.65,
694,0.77,0.65,
695,0.795,0.655,
696,0.805,0.645,
697,0.825,0.64,
698,0.84,0.635,
699,0.855,0.65,
700,0.88,0.675,
701,0.895,0.675,
702,0.86,0.67,
703,0.835,0.665,
704,0.82,0.665,
705,0.79,0.675,
706,0.76,0.69,
707,0.725,0.705,
708,0.665,0.69,
709,0.595,0.68,
710,0.515,0.695,
711,0.455,0.7,
712,0.395,0.71,
713,0.34,0.7,
714,0.28,0.7,
715,0.205,0.69,
716,0.125,0.695,
717,0.085,0.705,
718,0.05,0.715,
719,0.005,0.725,
720,-0.065,0.71,
721,-0.105,0.705,
722,-0.135,0.695,
723,-0.155,0.72,
724,-0.17,0.72,
725,-0.175,0.72,
726,-0.21,0.715,
727,-0.24,0.705,
728,-0.255,0.71,
729,-0.255,0.72,
730,-0.255,0.735,
731,-0.265,0.725,
732,-0.28,0.72,
733,-0.3,0.695,
734,-0.305,0.71,
735,-0.29,0.725,
736,-0.285,0.72,
737,-0.29,0.725,
738,-0.305,0.72,
739,-0.305,0.725,
740,-0.335,0.71,
741,-0.32,0.715,
742,-0.305,0.74,
743,-0.3,0.73,
744,-0.29,0.72,
745,-0.315,0.715,
746,-0.315,0.715,
747,-0.315,0.72,
748,-0.305,0.745,
749,-0.295,0.73,
750,-0.305,0.71,
751,-0.31,0.71,
752,-0.315,0.725,
753,-0.31,0.73,
754,-0.295,0.755,
755,-0.29,0.755,
756,-0.3,0.725,
757,-0.305,0.715,
758,-0.305,0.72,
759,-0.31,0.73,
760,-0.29,0.74,
761,-0.275,0.74,
762,-0.29,0.72,
763,-0.305,0.72,
764,-0.31,0.73,
765,-0.29,0.73,
766,-0.27,0.76,
767,-0.275,0.745,
768,-0.285,0.73,
769,-0.295,0.73,
770,-0.305,0.71,
771,-0.29,0.75,
772,-0.28,0.76,
773,-0.275,0.755,
774,-0.28,0.735,
775,-0.305,0.725,
776,-0.305,0.72,
777,-0.29,0.725,
778,-0.3,0.74,
779,-0.28,0.745,
780,-0.285,0.735,
781,-0.295,0.725,
782,-0.3,0.725,
783,-0.29,0.72,
784,-0.29,0.735,
785,-0.27,0.72,
786,-0.295,0.715,
787,-0.31,0.705,
788,-0.32,0.71,
789,-0.31,0.725,
790,-0.295,0.745,
791,-0.275,0.745,
792,-0.29,0.735,
793,-0.3,0.725,
794,-0.325,0.72,
795,-0.31,0.72,
796,-0.305,0.74,
797,-0.295,0.725,
798,-0.295,0.72,
799,-0.31,0.7,
800,-0.315,0.72,
801,-0.315,0.725,
802,-0.295,0.735,
803,-0.29,0.715,
804,-0.295,0.72,
805,-0.31,0.715,
806,-0.32,0.715,
807,-0.325,0.725,
808,-0.3,0.73,
809,-0.3,0.73,
810,-0.3,0.72,
811,-0.31,0.705,
812,-0.32,0.715,
813,-0.305,0.72,
814,-0.305,0.73,
815,-0.295,0.715,
816,-0.295,0.715,
817,-0.305,0.7,
818,-0.31,0.715,
819,-0.31,0.71,
820,-0.305,0.73,
821,-0.3,0.725,
822,-0.295,0.71,
823,-0.305,0.695,
824,-0.305,0.695,
825,-0.3,0.715,
826,-0.28,0.72,
827,-0.28,0.725,
828,-0.285,0.705,
829,-0.295,0.695,
830,-0.295,0.695,
831,-0.3,0.7,
832,-0.275,0.72,
833,-0.295,0.715,
834,-0.28,0.695,
835,-0.3,0.69,
836,-0.305,0.69,
837,-0.295,0.7,
838,-0.275,0.715,
839,-0.28,0.705,
840,-0.265,0.69,
841,-0.285,0.685,
842,-0.305,0.685,
843,-0.29,0.71,
844,-0.285,0.715,
845,-0.26,0.715,
846,-0.275,0.695,
847,-0.28,0.69,
848,-0.285,0.685,
849,-0.275,0.69,
850,-0.265,0.705,
851,-0.27,0.7,
852,-0.27,0.7,
853,-0.295,0.685,
854,-0.29,0.68,
855,-0.295,0.695,
856,-0.265,0.705,
857,-0.255,0.685,
858,-0.255,0.675,
859,-0.285,0.665,
860,-0.285,0.665,
861,-0.285,0.685,
862,-0.26,0.69,
863,-0.255,0.69,
864,-0.255,0.68,
865,-0.27,0.675,
866,-0.285,0.665,
867,-0.27,0.675,
868,-0.25,0.695,
869,-0.26,0.685,
870,-0.255,0.68,
871,-0.27,0.67,
872,-0.285,0.67,
873,-0.265,0.67,
874,-0.25,0.7,
875,-0.24,0.675,
876,-0.245,0.68,
877,-0.27,0.665,
878,-0.265,0.67,
879,-0.255,0.67,
880,-0.24,0.695,
881,-0.23,0.68,
882,-0.235,0.66,
883,-0.255,0.655,
884,-0.27,0.655,
885,-0.255,0.675,
886,-0.25,0.675,
887,-0.22,0.68,
888,-0.235,0.655,
889,-0.265,0.65,
890,-0.25,0.66,
891,-0.26,0.66,
892,-0.24,0.67,
893,-0.225,0.665,
894,-0.225,0.65,
895,-0.235,0.66,
896,-0.24,0.66,
897,-0.235,0.65,
898,-0.23,0.67,
899,-0.225,0.655,
900,-0.225,0.65,
901,-0.24,0.635,
902,-0.245,0.64,
903,-0.235,0.65,
904,-0.22,0.675,
905,-0.215,0.66,
906,-0.22,0.65,
907,-0.22,0.66,
908,-0.225,0.66,
909,-0.22,0.695,
910,-0.195,0.695,
911,-0.175,0.675,
912,-0.175,0.67,
913,-0.18,0.64,
914,-0.18,0.635,
915,-0.175,0.65,
916,-0.17,0.645,
917,-0.15,0.635,
918,-0.15,0.615,
919,-0.14,0.595,
920,-0.145,0.6,
921,-0.15,0.625,
922,-0.13,0.625,
923,-0.13,0.63,
924,-0.135,0.61,
925,-0.135,0.61,
926,-0.15,0.595,
927,-0.15,0.62,
928,-0.155,0.62,
929,-0.155,0.62,
930,-0.17,0.6,
931,-0.195,0.58,
932,-0.215,0.6,
933,-0.21,0.61,
934,-0.185,0.615,
935,-0.18,0.61,
936,-0.195,0.61,
937,-0.21,0.59,
938,-0.22,0.595,
939,-0.21,0.615,
940,-0.18,0.62,
941,-0.17,0.61,
942,-0.185,0.6,
943,-0.205,0.59,
944,-0.205,0.595,
945,-0.2,0.61,
946,-0.18,0.615,
947,-0.175,0.62,
948,-0.18,0.615,
949,-0.185,0.595,
950,-0.18,0.61,
951,-0.16,0.655,
952,-0.14,0.72,
953,-0.145,0.745,
954,-0.16,0.76,
955,-0.225,0.765,
956,-0.26,0.755,
957,-0.295,0.74,
958,-0.29,0.705,
959,-0.26,0.61,
960,-0.165,0.505,
961,0.03,0.385,
962,0.39,0.29,
963,0.875,0.225,
964,1.385,0.215,
965,1.795,0.26,
966,2.05,0.345,N
967,2.11,0.455,
968,1.91,0.525,
969,1.39,0.575,
970,0.75,0.565,
971,0.11,0.56,
972,-0.53,0.56,
973,-0.49,0.57,
974,-0.37,0.585,
975,-0.33,0.595,
976,-0.32,0.61,
977,-0.34,0.595,
978,-0.34,0.585,
979,-0.33,0.58,
980,-0.305,0.58,
981,-0.24,0.6,
982,-0.16,0.61,
983,-0.12,0.6,
984,-0.1,0.595,
985,-0.105,0.57,
986,-0.12,0.58,
987,-0.105,0.59,
988,-0.095,0.595,
989,-0.075,0.6,
990,-0.085,0.57,
991,-0.1,0.57,
992,-0.1,0.575,
993,-0.105,0.575,
994,-0.07,0.59,
995,-0.065,0.58,
996,-0.06,0.58,
997,-0.08,0.565,
998,-0.095,0.565,
999,-0.055,0.595,
1000,-0.04,0.575,
1001,-0.04,0.565,
1002,-0.055,0.545,
1003,-0.06,0.56,
1004,-0.06,0.58,
1005,-0.04,0.58,
1006,-0.03,0.58,
1007,-0.03,0.56,
1008,-0.04,0.54,
1009,-0.065,0.54,
1010,-0.04,0.55,
1011,-0.025,0.56,
1012,-0.025,0.55,
1013,-0.015,0.55,
1014,-0.02,0.55,
1015,-0.025,0.55,
1016,-0.01,0.56,
1017,0.0,0.57,
1018,0.02,0.565,
1019,0.005,0.54,
1020,0.0,0.535,
1021,0.005,0.535,
1022,0.015,0.54,
1023,0.03,0.555,
1024,0.045,0.55,
1025,0.06,0.54,
1026,0.035,0.525,
1027,0.02,0.52,
1028,0.035,0.545,
1029,0.055,0.54,
1030,0.06,0.53,
1031,0.05,0.515,
1032,0.055,0.515,
1033,0.06,0.525,
1034,0.075,0.53,
1035,0.09,0.54,
1036,0.1,0.52,
1037,0.105,0.505,
1038,0.105,0.505,
1039,0.1,0.51,
1040,0.115,0.52,
1041,0.15,0.52,
1042,0.16,0.515,
1043,0.165,0.495,
1044,0.17,0.495,
1045,0.17,0.49,
1046,0.18,0.495,
1047,0.21,0.5,
1048,0.23,0.5,
1049,0.255,0.475,
1050,0.25,0.47,
1051,0.25,0.47,
1052,0.27,0.49,
1053,0.3,0.5,
1054,0.34,0.495,
1055,0.345,0.475,
1056,0.35,0.46,
1057,0.35,0.455,
1058,0.385,0.47,
1059,0.41,0.485,
1060,0.45,0.47,
1061,0.46,0.44,
1062,0.475,0.43,
1063,0.495,0.44,
1064,0.53,0.45,
1065,0.565,0.45,
1066,0.59,0.445,
1067,0.615,0.435,
1068,0.625,0.415,
1069,0.645,0.41,
1070,0.675,0.42,
1071,0.705,0.435,
1072,0.735,0.425,
1073,0.755,0.415,
1074,0.765,0.39,
1075,0.8,0.395,
1076,0.81,0.405,
1077,0.845,0.41,
1078,0.88,0.41,
1079,0.88,0.395,
1080,0.895,0.39,
1081,0.9,0.395,
1082,0.92,0.405,
1083,0.94,0.42,
1084,0.94,0.415,
1085,0.93,0.42,
1086,0.895,0.415,
1087,0.85,0.42,
1088,0.82,0.435,
1089,0.795,0.45,
1090,0.755,0.455,
1091,0.695,0.45,
1092,0.625,0.435,
1093,0.55,0.44,
1094,0.51,0.445,
1095,0.45,0.46,
1096,0.4,0.455,
1097,0.325,0.445,
1098,0.27,0.43,
1099,0.205,0.435,
1100,0.14,0.455,
1101,0.115,0.445,
1102,0.09,0.44,
1103,0.03,0.43,
1104,-0.015,0.425,
1105,-0.045,0.44,
1106,-0.07,0.435,
1107,-0.085,0.445,
1108,-0.095,0.43,
1109,-0.125,0.43,
1110,-0.16,0.42,
1111,-0.175,0.415,
1112,-0.185,0.435,
1113,-0.19,0.45,
1114,-0.195,0.435,
1115,-0.205,0.42,
1116,-0.23,0.415,
1117,-0.25,0.42,
1118,-0.25,0.435,
1119,-0.23,0.445,
1120,-0.235,0.435,
1121,-0.24,0.42,
1122,-0.25,0.41,
1123,-0.255,0.41,
1124,-0.265,0.42,
1125,-0.245,0.44,
1126,-0.235,0.42,
1127,-0.24,0.405,
1128,-0.265,0.395,
1129,-0.27,0.4,
1130,-0.265,0.41,
1131,-0.245,0.425,
1132,-0.24,0.405,
1133,-0.24,0.395,
1134,-0.255,0.375,
1135,-0.265,0.39,
1136,-0.26,0.4,
1137,-0.24,0.415,
1138,-0.24,0.4,
1139,-0.255,0.385,
1140,-0.275,0.385,
1141,-0.26,0.39,
1142,-0.27,0.395,
1143,-0.255,0.405,
1144,-0.255,0.4,
1145,-0.265,0.4,
1146,-0.26,0.37,
1147,-0.26,0.38,
1148,-0.26,0.39,
1149,-0.25,0.41,
1150,-0.235,0.385,
1151,-0.245,0.385,
1152,-0.265,0.365,
1153,-0.265,0.38,
1154,-0.255,0.395,
1155,-0.255,0.4,
1156,-0.25,0.39,
1157,-0.25,0.365,
1158,-0.265,0.375,
1159,-0.26,0.36,
1160,-0.265,0.39,
1161,-0.255,0.39,
1162,-0.25,0.385,
1163,-0.25,0.37,
1164,-0.265,0.35,
1165,-0.265,0.37,
1166,-0.27,0.37,
1167,-0.26,0.375,
1168,-0.26,0.36,
1169,-0.26,0.36,
1170,-0.27,0.35,
1171,-0.29,0.355,
1172,-0.275,0.365,
1173,-0.27,0.385,
1174,-0.265,0.37,
1175,-0.275,0.35,
1176,-0.29,0.34,
1177,-0.3,0.335,
1178,-0.305,0.35,
1179,-0.295,0.36,
1180,-0.285,0.355,
1181,-0.285,0.35,
1182,-0.31,0.34,
1183,-0.31,0.34,
1184,-0.31,0.35,
1185,-0.3,0.36,
1186,-0.3,0.35,
1187,-0.295,0.345,
1188,-0.31,0.33,
1189,-0.32,0.325,
1190,-0.32,0.345,
1191,-0.305,0.355,
1192,-0.305,0.345,
1193,-0.315,0.33,
1194,-0.34,0.33,
1195,-0.34,0.32,
1196,-0.35,0.335,
1197,-0.33,0.345,
1198,-0.325,0.335,
1199,-0.34,0.325,
1200,-0.36,0.315,
1201,-0.36,0.315,
1202,-0.345,0.325,
1203,-0.335,0.335,
1204,-0.335,0.325,
1205,-0.33,0.32,
1206,-0.345,0.305,
1207,-0.35,0.3,
1208,-0.35,0.32,
1209,-0.345,0.32,
1210,-0.345,0.32,
1211,-0.35,0.305,
1212,-0.35,0.285,
1213,-0.355,0.285,
1214,-0.345,0.315,
1215,-0.335,0.315,
1216,-0.32,0.31,
1217,-0.34,0.3,
1218,-0.355,0.285,
1219,-0.365,0.29,
1220,-0.37,0.3,
1221,-0.355,0.31,
1222,-0.35,0.305,
1223,-0.345,0.295,
1224,-0.35,0.27,
1225,-0.36,0.28,
1226,-0.385,0.295,
1227,-0.36,0.3,
1228,-0.34,0.305,
1229,-0.365,0.285,
1230,-0.37,0.275,
1231,-0.36,0.27,
1232,-0.365,0.29,
1233,-0.365,0.3,
1234,-0.345,0.29,
1235,-0.37,0.27,
1236,-0.37,0.275,
1237,-0.38,0.28,
1238,-0.375,0.29,
1239,-0.365,0.29,
1240,-0.355,0.285,
1241,-0.355,0.27,
1242,-0.38,0.255,
1243,-0.38,0.255,
1244,-0.365,0.26,
1245,-0.36,0.275,
1246,-0.355,0.28,
1247,-0.37,0.275,
1248,-0.37,0.255,
1249,-0.38,0.255,
1250,-0.375,0.275,
1251,-0.365,0.275,
1252,-0.36,0.27,
1253,-0.365,0.255,
1254,-0.395,0.25,
1255,-0.39,0.25,
1256,-0.38,0.265,
1257,-0.385,0.275,
1258,-0.365,0.255,
1259,-0.37,0.25,
1260,-0.38,0.24,
1261,-0.395,0.25,
1262,-0.385,0.25,
1263,-0.375,0.265,
1264,-0.365,0.265,
1265,-0.37,0.275,
1266,-0.37,0.255,
1267,-0.385,0.265,
1268,-0.375,0.29,
1269,-0.34,0.295,
1270,-0.335,0.285,
1271,-0.32,0.265,
1272,-0.325,0.245,
1273,-0.335,0.235,
1274,-0.335,0.235,
1275,-0.325,0.235,
1276,-0.29,0.215,
1277,-0.29,0.2,
1278,-0.295,0.195,
1279,-0.315,0.195,
1280,-0.32,0.22,
1281,-0.31,0.23,
1282,-0.31,0.22,
1283,-0.315,0.215,
1284,-0.33,0.2,
1285,-0.35,0.215,
1286,-0.36,0.22,
1287,-0.36,0.24,
1288,-0.36,0.22,
1289,-0.395,0.2,
1290,-0.415,0.205,
1291,-0.44,0.195,
1292,-0.425,0.22,
1293,-0.42,0.23,
1294,-0.4,0.22,
1295,-0.405,0.215,
1296,-0.435,0.2,
1297,-0.43,0.195,
1298,-0.425,0.205,
1299,-0.4,0.21,
1300,-0.4,0.21,
1301,-0.395,0.2,
1302,-0.42,0.19,
1303,-0.425,0.185,
1304,-0.415,0.195,
1305,-0.4,0.205,
1306,-0.4,0.195,
1307,-0.4,0.2,
1308,-0.41,0.2,
1309,-0.405,0.215,
1310,-0.39,0.245,
1311,-0.385,0.285,
1312,-0.38,0.33,
1313,-0.41,0.35,
1314,-0.435,0.37,
1315,-0.49,0.37,
1316,-0.505,0.38,
1317,-0.51,0.35,
1318,-0.51,0.28,
1319,-0.47,0.175,
1320,-0.355,0.06,
1321,-0.1,-0.05,
1322,0.295,-0.16,
1323,0.77,-0.22,
1324,1.24,-0.23,
1325,1.645,-0.205,
1326,1.87,-0.12,N
1327,1.95,-0.005,
1328,1.85,0.08,
1329,1.49,0.145,
1330,0.85,0.14,
1331,0.21,0.125,
1332,-0.43,0.13,
1333,-0.815,0.16,
1334,-0.7,0.2,
1335,-0.58,0.215,
1336,-0.575,0.21,
1337,-0.625,0.2,
1338,-0.64,0.17,
1339,-0.62,0.18,
1340,-0.575,0.21,
1341,-0.525,0.23,
1342,-0.465,0.225,
1343,-0.425,0.21,
1344,-0.395,0.195,
1345,-0.4,0.19,
1346,-0.395,0.205,
1347,-0.39,0.21,
1348,-0.385,0.195,
1349,-0.385,0.195,
1350,-0.395,0.185,
1351,-0.405,0.175,
1352,-0.41,0.185,
1353,-0.395,0.195,
1354,-0.38,0.195,
1355,-0.38,0.18,
1356,-0.4,0.185,
1357,-0.4,0.185,
1358,-0.395,0.185,
1359,-0.385,0.2,
1360,-0.365,0.2,
1361,-0.375,0.175,
1362,-0.405,0.165,
1363,-0.4,0.17,
1364,-0.385,0.17,
1365,-0.39,0.195,
1366,-0.375,0.175,
1367,-0.38,0.175,
1368,-0.375,0.16,
1369,-0.39,0.165,
1370,-0.375,0.165,
1371,-0.36,0.175,
1372,-0.365,0.165,
1373,-0.355,0.16,
1374,-0.385,0.145,
1375,-0.365,0.155,
1376,-0.365,0.165,
1377,-0.36,0.175,
1378,-0.335,0.16,
1379,-0.355,0.16,
1380,-0.35,0.15,
1381,-0.365,0.155,
1382,-0.345,0.16,
1383,-0.335,0.18,
1384,-0.335,0.165,
1385,-0.345,0.165,
1386,-0.345,0.145,
1387,-0.35,0.145,
1388,-0.35,0.145,
1389,-0.33,0.165,
1390,-0.31,0.155,
1391,-0.31,0.145,
1392,-0.33,0.13,
1393,-0.33,0.13,
1394,-0.315,0.145,
1395,-0.295,0.15,
1396,-0.29,0.15,
1397,-0.28,0.135,
1398,-0.29,0.125,
1399,-0.29,0.13,
1400,-0.28,0.135,
1401,-0.265,0.15,
1402,-0.24,0.145,
1403,-0.235,0.12,
1404,-0.245,0.12,
1405,-0.24,0.13,
1406,-0.225,0.12,
1407,-0.195,0.145,
1408,-0.19,0.12,
1409,-0.17,0.135,
1410,-0.175,0.115,
1411,-0.18,0.105,
1412,-0.155,0.13,
1413,-0.135,0.14,
1414,-0.1,0.14,
1415,-0.1,0.11,
1416,-0.09,0.115,
1417,-0.08,0.105,
1418,-0.06,0.115,
1419,-0.015,0.12,
1420,0.01,0.115,
1421,0.025,0.105,
1422,0.03,0.09,
1423,0.045,0.09,
1424,0.09,0.11,
1425,0.115,0.12,
1426,0.155,0.12,
1427,0.18,0.095,
1428,0.18,0.085,
1429,0.19,0.085,
1430,0.23,0.09,
1431,0.265,0.105,
1432,0.3,0.095,
1433,0.325,0.075,
1434,0.335,0.075,
1435,0.35,0.07,
1436,0.39,0.075,
1437,0.445,0.08,
1438,0.46,0.07,
1439,0.47,0.06,
1440,0.49,0.05,
1441,0.495,0.05,
1442,0.53,0.06,
1443,0.56,0.075,
1444,0.6,0.065,
1445,0.59,0.045,
1446,0.595,0.045,
1447,0.585,0.06,
1448,0.595,0.07,
1449,0.59,0.085,
1450,0.58,0.09,
1451,0.53,0.085,
1452,0.485,0.075,
1453,0.425,0.09,
1454,0.38,0.095,
1455,0.335,0.105,
1456,0.28,0.1,
1457,0.195,0.095,
1458,0.12,0.085,
1459,0.05,0.09,
1460,-0.01,0.095,
1461,-0.07,0.115,
1462,-0.125,0.09,
1463,-0.18,0.1,
1464,-0.26,0.09,
1465,-0.315,0.08,
1466,-0.365,0.085,
1467,-0.385,0.1,
1468,-0.4,0.105,
1469,-0.435,0.095,
1470,-0.5,0.08,
1471,-0.525,0.08,
1472,-0.535,0.09,
1473,-0.54,0.105,
1474,-0.55,0.085,
1475,-0.57,0.08,
1476,-0.595,0.06,
1477,-0.61,0.07,
1478,-0.63,0.085,
1479,-0.62,0.09,
1480,-0.625,0.08,
1481,-0.63,0.065,
1482,-0.645,0.06,
1483,-0.66,0.065,
1484,-0.665,0.075,
1485,-0.65,0.095,
1486,-0.64,0.08,
1487,-0.66,0.07,
1488,-0.67,0.055,
1489,-0.695,0.055,
1490,-0.68,0.075,
1491,-0.67,0.08,
1492,-0.665,0.07,
1493,-0.68,0.07,
1494,-0.7,0.06,
1495,-0.695,0.06,
1496,-0.705,0.075,
1497,-0.68,0.085,
1498,-0.68,0.07,
1499,-0.69,0.065,
1500,-0.705,0.045,
1501,-0.695,0.05,
1502,-0.685,0.07,
1503,-0.675,0.09,
1504,-0.665,0.07,
1505,-0.66,0.055,
1506,-0.675,0.045,
1507,-0.685,0.045,
1508,-0.685,0.055,
1509,-0.665,0.075,
1510,-0.665,0.075,
1511,-0.68,0.05,
1512,-0.69,0.05,
1513,-0.7,0.04,
1514,-0.69,0.055,
1515,-0.68,0.075,
1516,-0.68,0.06,
1517,-0.68,0.055,
1518,-0.68,0.05,
1519,-0.69,0.05,
1520,-0.695,0.05,
1521,-0.68,0.065,
1522,-0.665,0.055,
1523,-0.67,0.05,
1524,-0.685,0.04,
1525,-0.695,0.035,
1526,-0.71,0.05,
1527,-0.7,0.05,
1528,-0.69,0.045,
1529,-0.68,0.045,
1530,-0.705,0.03,
1531,-0.72,0.045,
1532,-0.72,0.035,
1533,-0.705,0.06,
1534,-0.685,0.045,
1535,-0.7,0.04,
1536,-0.715,0.025,
1537,-0.715,0.035,
1538,-0.715,0.035,
1539,-0.705,0.055,
1540,-0.705,0.03,
1541,-0.705,0.025,
1542,-0.72,0.015,
1543,-0.73,0.025,
1544,-0.735,0.045,
1545,-0.72,0.05,
1546,-0.715,0.035,
1547,-0.725,0.015,
1548,-0.73,0.015,
1549,-0.735,0.02,
1550,-0.74,0.025,
1551,-0.72,0.045,
1552,-0.72,0.02,
1553,-0.725,0.01,
1554,-0.75,0.005,
1555,-0.755,0.015,
1556,-0.75,0.03,
1557,-0.73,0.04,
1558,-0.73,0.02,
1559,-0.73,0.015,
1560,-0.77,0.005,
1561,-0.755,0.01,
1562,-0.76,0.01,
1563,-0.745,0.03,
1564,-0.75,0.03,
1565,-0.74,0.02,
1566,-0.76,0.0,
1567,-0.775,0.0,
1568,-0.755,0.005,
1569,-0.735,0.015,
1570,-0.725,0.02,
1571,-0.73,0.005,
1572,-0.75,-0.015,
1573,-0.76,-0.005,
1574,-0.75,0.005,
1575,-0.73,0.01,
1576,-0.725,0.01,
1577,-0.73,0.005,
1578,-0.75,-0.01,
1579,-0.765,-0.005,
1580,-0.755,0.015,
1581,-0.74,0.005,
1582,-0.725,0.015,
1583,-0.735,0.005,
1584,-0.76,-0.01,
1585,-0.76,-0.01,
1586,-0.74,0.005,
1587,-0.74,0.01,
1588,-0.735,0.01,
1589,-0.75,-0.01,
1590,-0.755,-0.02,
1591,-0.755,0.0,
1592,-0.755,0.0,
1593,-0.74,0.005,
1594,-0.745,0.005,
1595,-0.75,-0.01,
1596,-0.755,-0.02,
1597,-0.755,0.0,
1598,-0.755,-0.005,
1599,-0.75,0.015,
1600,-0.74,-0.005,
1601,-0.755,-0.01,
1602,-0.74,-0.02,
1603,-0.755,-0.015,
1604,-0.76,-0.005,
1605,-0.74,0.015,
1606,-0.725,-0.005,
1607,-0.74,-0.015,
1608,-0.75,-0.015,
1609,-0.745,-0.025,
1610,-0.75,-0.015,
1611,-0.735,0.005,
1612,-0.735,-0.005,
1613,-0.74,-0.02,
1614,-0.76,-0.03,
1615,-0.76,-0.025,
1616,-0.74,-0.01,
1617,-0.725,0.005,
1618,-0.725,-0.005,
1619,-0.72,-0.015,
1620,-0.74,-0.02,
1621,-0.745,-0.015,
1622,-0.745,-0.01,
1623,-0.72,-0.005,
1624,-0.715,-0.01,
1625,-0.735,-0.015,
1626,-0.745,-0.03,
1627,-0.745,-0.025,
1628,-0.74,-0.01,
1629,-0.725,-0.01,
1630,-0.725,-0.015,
1631,-0.73,-0.025,
1632,-0.74,-0.03,
1633,-0.735,-0.02,
1634,-0.73,-0.01,
1635,-0.715,-0.005,
1636,-0.71,-0.015,
1637,-0.715,-0.025,
1638,-0.725,-0.035,
1639,-0.745,-0.025,
1640,-0.735,-0.02,
1641,-0.715,-0.01,
1642,-0.71,-0.005,
1643,-0.71,-0.02,
1644,-0.72,-0.015,
1645,-0.715,-0.01,
1646,-0.715,0.015,
1647,-0.695,0.045,
1648,-0.67,0.03,
1649,-0.685,0.015,
1650,-0.69,-0.005,
1651,-0.67,-0.025,
1652,-0.66,-0.01,
1653,-0.645,0.0,
1654,-0.645,-0.02,
1655,-0.645,-0.055,
1656,-0.64,-0.07,
1657,-0.635,-0.07,
1658,-0.65,-0.04,
1659,-0.63,-0.045,
1660,-0.625,-0.03,
1661,-0.625,-0.055,
1662,-0.64,-0.055,
1663,-0.65,-0.055,
1664,-0.645,-0.035,
1665,-0.66,-0.025,
1666,-0.66,-0.035,
1667,-0.68,-0.055,
1668,-0.71,-0.055,
1669,-0.715,-0.06,
1670,-0.71,-0.045,
1671,-0.7,-0.045,
1672,-0.685,-0.045,
1673,-0.7,-0.05,
1674,-0.7,-0.05,
1675,-0.715,-0.055,
1676,-0.695,-0.05,
1677,-0.69,-0.03,
1678,-0.69,-0.045,
1679,-0.7,-0.055,
1680,-0.7,-0.065,
1681,-0.71,-0.06,
1682,-0.7,-0.05,
1683,-0.675,-0.03,
1684,-0.66,-0.025,
1685,-0.67,-0.04,
1686,-0.68,-0.05,
1687,-0.675,-0.035,
1688,-0.66,0.005,
1689,-0.645,0.05,
1690,-0.65,0.095,
1691,-0.67,0.115,
1692,-0.705,0.145,
1693,-0.745,0.145,
1694,-0.775,0.14,
1695,-0.77,0.105,
1696,-0.745,0.035,
1697,-0.7,-0.08,
1698,-0.565,-0.21,
1699,-0.285,-0.34,
1700,0.17,-0.44,
1701,0.69,-0.505,
1702,1.2,-0.505,
1703,1.59,-0.425,
1704,1.8,-0.34,N
1705,1.8,-0.21,
1706,1.505,-0.125,
1707,0.865,-0.1,
1708,0.225,-0.125,
1709,-0.415,-0.13,
1710,-1.05,-0.11,
1711,-0.96,-0.065,
1712,-0.84,-0.035,
1713,-0.8,-0.015,
1714,-0.82,-0.045,
1715,-0.835,-0.065,
1716,-0.84,-0.055,
1717,-0.81,-0.045,
1718,-0.77,-0.03,
1719,-0.705,-0.01,
1720,-0.655,-0.025,
1721,-0.64,-0.04,
1722,-0.635,-0.055,
1723,-0.645,-0.055,
1724,-0.625,-0.04,
1725,-0.62,-0.015,
1726,-0.6,-0.02,
1727,-0.62,-0.05,
1728,-0.62,-0.06,
1729,-0.62,-0.06,
1730,-0.605,-0.025,
1731,-0.585,-0.025,
1732,-0.585,-0.035,
1733,-0.595,-0.05,
1734,-0.605,-0.065,
1735,-0.6,-0.055,
1736,-0.595,-0.045,
1737,-0.565,-0.025,
1738,-0.58,-0.04,
1739,-0.58,-0.05,
1740,-0.585,-0.065,
1741,-0.59,-0.05,
1742,-0.57,-0.05,
1743,-0.55,-0.03,
1744,-0.545,-0.045,
1745,-0.545,-0.065,
1746,-0.565,-0.07,
1747,-0.56,-0.065,
1748,-0.555,-0.055,
1749,-0.525,-0.05,
1750,-0.535,-0.04,
1751,-0.525,-0.065,
1752,-0.545,-0.075,
1753,-0.55,-0.065,
1754,-0.535,-0.055,
1755,-0.515,-0.04,
1756,-0.505,-0.06,
1757,-0.5,-0.06,
1758,-0.5,-0.085,
1759,-0.51,-0.07,
1760,-0.49,-0.06,
1761,-0.475,-0.055,
1762,-0.46,-0.06,
1763,-0.455,-0.07,
1764,-0.46,-0.075,
1765,-0.46,-0.075,
1766,-0.44,-0.075,
1767,-0.42,-0.065,
1768,-0.4,-0.07,
1769,-0.405,-0.08,
1770,-0.395,-0.085,
1771,-0.39,-0.085,
1772,-0.375,-0.065,
1773,-0.345,-0.065,
1774,-0.33,-0.075,
1775,-0.325,-0.09,
1776,-0.315,-0.105,
1777,-0.3,-0.1,
1778,-0.28,-0.085,
1779,-0.27,-0.08,
1780,-0.22,-0.09,
1781,-0.2,-0.095,
1782,-0.185,-0.105,
1783,-0.175,-0.105,
1784,-0.14,-0.09,
1785,-0.09,-0.085,
1786,-0.065,-0.09,
1787,-0.055,-0.11,
1788,-0.035,-0.12,
1789,-0.01,-0.115,
1790,0.015,-0.11,
1791,0.075,-0.105,
1792,0.115,-0.12,
1793,0.13,-0.12,
1794,0.145,-0.135,
1795,0.175,-0.13,
1796,0.215,-0.12,
1797,0.26,-0.115,
1798,0.285,-0.13,
1799,0.31,-0.145,
1800,0.315,-0.145,
1801,0.33,-0.145,
1802,0.38,-0.12,
1803,0.41,-0.115,
1804,0.45,-0.135,
1805,0.465,-0.15,
1806,0.48,-0.155,
1807,0.485,-0.155,
1808,0.51,-0.14,
1809,0.53,-0.12,
1810,0.54,-0.125,
1811,0.515,-0.13,
1812,0.48,-0.135,
1813,0.46,-0.125,
1814,0.43,-0.09,
1815,0.395,-0.085,
1816,0.345,-0.09,
1817,0.28,-0.11,
1818,0.205,-0.105,
1819,0.14,-0.1,
1820,0.075,-0.1,
1821,0.025,-0.085,
1822,-0.04,-0.09,
1823,-0.11,-0.1,
1824,-0.185,-0.11,
1825,-0.245,-0.11,
1826,-0.305,-0.09,
1827,-0.34,-0.085,
1828,-0.385,-0.09,
1829,-0.42,-0.095,
1830,-0.475,-0.115,
1831,-0.515,-0.11,
1832,-0.545,-0.105,
1833,-0.55,-0.075,
1834,-0.56,-0.085,
1835,-0.585,-0.11,
1836,-0.605,-0.115,
1837,-0.63,-0.11,
1838,-0.64,-0.095,
1839,-0.635,-0.07,
1840,-0.635,-0.09,
1841,-0.65,-0.11,
1842,-0.665,-0.11,
1843,-0.68,-0.11,
1844,-0.685,-0.09,
1845,-0.675,-0.09,
1846,-0.665,-0.095,
1847,-0.67,-0.13,
1848,-0.685,-0.12,
1849,-0.71,-0.115,
1850,-0.695,-0.095,
1851,-0.68,-0.09,
1852,-0.675,-0.1,
1853,-0.68,-0.105,
1854,-0.705,-0.115,
1855,-0.715,-0.105,
1856,-0.705,-0.095,
1857,-0.68,-0.08,
1858,-0.685,-0.09,
1859,-0.69,-0.11,
1860,-0.69,-0.125,
1861,-0.71,-0.115,
1862,-0.705,-0.105,
1863,-0.685,-0.095,
1864,-0.675,-0.095,
1865,-0.68,-0.11,
1866,-0.69,-0.12,
1867,-0.705,-0.11,
1868,-0.695,-0.095,
1869,-0.66,-0.095,
1870,-0.665,-0.09,
1871,-0.675,-0.105,
1872,-0.68,-0.12,
1873,-0.69,-0.12,
1874,-0.68,-0.1,
1875,-0.655,-0.09,
1876,-0.645,-0.105,
1877,-0.665,-0.115,
1878,-0.67,-0.12,
1879,-0.7,-0.125,
1880,-0.67,-0.1,
1881,-0.655,-0.085,
1882,-0.645,-0.11,
1883,-0.65,-0.115,
1884,-0.67,-0.13,
1885,-0.675,-0.12,
1886,-0.675,-0.105,
1887,-0.66,-0.1,
1888,-0.645,-0.115,
1889,-0.66,-0.125,
1890,-0.665,-0.125,
1891,-0.68,-0.115,
1892,-0.675,-0.105,
1893,-0.66,-0.105,
1894,-0.645,-0.11,
1895,-0.655,-0.115,
1896,-0.655,-0.13,
1897,-0.67,-0.12,
1898,-0.665,-0.115,
1899,-0.645,-0.1,
1900,-0.645,-0.11,
1901,-0.645,-0.13,
1902,-0.66,-0.115,
1903,-0.685,-0.115,
1904,-0.67,-0.115,
1905,-0.65,-0.1,
1906,-0.64,-0.11,
1907,-0.65,-0.125,
1908,-0.675,-0.13,
1909,-0.665,-0.125,
1910,-0.66,-0.115,
1911,-0.655,-0.1,
1912,-0.65,-0.1,
1913,-0.655,-0.12,
1914,-0.67,-0.14,
1915,-0.685,-0.125,
1916,-0.68,-0.125,
1917,-0.66,-0.105,
1918,-0.655,-0.125,
1919,-0.66,-0.135,
1920,-0.67,-0.145,
1921,-0.67,-0.125,
1922,-0.665,-0.115,
1923,-0.665,-0.11,
1924,-0.665,-0.12,
1925,-0.66,-0.115,
1926,-0.67,-0.135,
1927,-0.685,-0.14,
1928,-0.67,-0.125,
1929,-0.65,-0.115,
1930,-0.64,-0.125,
1931,-0.66,-0.135,
1932,-0.665,-0.125,
1933,-0.675,-0.14,
1934,-0.66,-0.12,
1935,-0.655,-0.11,
1936,-0.645,-0.115,
1937,-0.65,-0.125,
1938,-0.67,-0.14,
1939,-0.66,-0.14,
1940,-0.65,-0.13,
1941,-0.64,-0.115,
1942,-0.65,-0.12,
1943,-0.65,-0.125,
1944,-0.66,-0.145,
1945,-0.675,-0.135,
1946,-0.655,-0.13,
1947,-0.635,-0.11,
1948,-0.63,-0.125,
1949,-0.635,-0.13,
1950,-0.655,-0.145,
1951,-0.665,-0.14,
1952,-0.66,-0.14,
1953,-0.635,-0.115,
1954,-0.63,-0.13,
1955,-0.635,-0.125,
1956,-0.655,-0.145,
1957,-0.645,-0.14,
1958,-0.625,-0.135,
1959,-0.625,-0.12,
1960,-0.61,-0.125,
1961,-0.63,-0.14,
1962,-0.64,-0.155,
1963,-0.645,-0.15,
1964,-0.635,-0.14,
1965,-0.63,-0.12,
1966,-0.61,-0.125,
1967,-0.61,-0.13,
1968,-0.62,-0.145,
1969,-0.63,-0.145,
1970,-0.62,-0.13,
1971,-0.62,-0.135,
1972,-0.615,-0.13,
1973,-0.605,-0.135,
1974,-0.62,-0.15,
1975,-0.635,-0.15,
1976,-0.62,-0.135,
1977,-0.605,-0.115,
1978,-0.59,-0.125,
1979,-0.6,-0.145,
1980,-0.635,-0.14,
1981,-0.625,-0.14,
1982,-0.61,-0.13,
1983,-0.6,-0.12,
1984,-0.595,-0.13,
1985,-0.605,-0.135,
1986,-0.605,-0.145,
1987,-0.61,-0.145,
1988,-0.6,-0.115,
1989,-0.59,-0.115,
1990,-0.595,-0.125,
1991,-0.6,-0.135,
1992,-0.615,-0.15,
1993,-0.615,-0.145,
1994,-0.61,-0.13,
1995,-0.58,-0.115,
1996,-0.565,-0.13,
1997,-0.58,-0.135,
1998,-0.6,-0.145,
1999,-0.595,-0.145,
2000,-0.585,-0.125,
2001,-0.58,-0.12,
2002,-0.57,-0.125,
2003,-0.57,-0.145,
2004,-0.595,-0.155,
2005,-0.585,-0.14,
2006,-0.58,-0.13,
2007,-0.57,-0.12,
2008,-0.57,-0.12,
2009,-0.575,-0.135,
2010,-0.575,-0.15,
2011,-0.595,-0.145,
2012,-0.585,-0.13,
2013,-0.56,-0.115,
2014,-0.555,-0.135,
2015,-0.57,-0.14,
2016,-0.58,-0.145,
2017,-0.58,-0.13,
2018,-0.575,-0.13,
2019,-0.575,-0.125,
2020,-0.555,-0.13,
2021,-0.56,-0.12,
2022,-0.58,-0.135,
2023,-0.57,-0.15,
2024,-0.57,-0.135,
2025,-0.555,-0.115,
2026,-0.54,-0.125,
2027,-0.545,-0.135,
2028,-0.56,-0.13,
2029,-0.56,-0.12,
2030,-0.54,-0.1,
2031,-0.525,-0.075,
2032,-0.51,-0.075,
2033,-0.515,-0.09,
2034,-0.525,-0.105,
2035,-0.51,-0.11,
2036,-0.485,-0.11,
2037,-0.47,-0.105,
2038,-0.455,-0.11,
2039,-0.475,-0.135,
2040,-0.48,-0.15,
2041,-0.475,-0.165,
2042,-0.46,-0.16,
2043,-0.44,-0.145,
2044,-0.445,-0.15,
2045,-0.455,-0.16,
2046,-0.48,-0.155,
2047,-0.485,-0.145,
2048,-0.47,-0.13,
2049,-0.465,-0.125,
2050,-0.445,-0.13,
2051,-0.485,-0.15,
2052,-0.5,-0.14,
2053,-0.51,-0.145,
2054,-0.515,-0.125,
2055,-0.5,-0.12,
2056,-0.515,-0.125,
2057,-0.52,-0.14,
2058,-0.53,-0.15,
2059,-0.53,-0.14,
2060,-0.52,-0.125,
2061,-0.505,-0.125,
2062,-0.49,-0.135,
2063,-0.515,-0.135,
2064,-0.51,-0.14,
2065,-0.525,-0.14,
2066,-0.515,-0.125,
2067,-0.49,-0.115,
2068,-0.495,-0.12,
2069,-0.495,-0.13,
2070,-0.505,-0.15,
2071,-0.515,-0.14,
2072,-0.485,-0.115,
2073,-0.48,-0.1,
2074,-0.46,-0.11,
2075,-0.465,-0.1,
2076,-0.475,-0.08,
2077,-0.485,-0.045,
2078,-0.47,0.01,
2079,-0.465,0.075,
2080,-0.495,0.09,
2081,-0.52,0.085,
2082,-0.57,0.06,
2083,-0.59,0.04,
2084,-0.585,-0.005,
2085,-0.545,-0.05,
2086,-0.47,-0.16,
2087,-0.325,-0.27,
2088,-0.08,-0.385,
2089,0.295,-0.49,
2090,0.765,-0.545,
2091,1.26,-0.545,
2092,1.655,-0.49,
2093,1.94,-0.43,
2094,2.035,-0.34,N
2095,1.97,-0.255,
2096,1.66,-0.195,
2097,1.07,-0.175,
2098,0.43,-0.175,
2099,-0.21,-0.2,
2100,-0.76,-0.195,
2101,-0.775,-0.145,
2102,-0.665,-0.115,
2103,-0.61,-0.09,
2104,-0.605,-0.1,
2105,-0.63,-0.125,
2106,-0.64,-0.13,
2107,-0.615,-0.115,
2108,-0.61,-0.1,
2109,-0.55,-0.08,
2110,-0.5,-0.085,
2111,-0.44,-0.09,
2112,-0.42,-0.105,
2113,-0.425,-0.1,
2114,-0.41,-0.075,
2115,-0.4,-0.075,
2116,-0.395,-0.095,
2117,-0.4,-0.085,
2118,-0.41,-0.105,
2119,-0.405,-0.095,
2120,-0.4,-0.08,
2121,-0.385,-0.065,
2122,-0.365,-0.07,
2123,-0.38,-0.1,
2124,-0.385,-0.095,
2125,-0.385,-0.095,
2126,-0.38,-0.085,
2127,-0.36,-0.06,
2128,-0.355,-0.075,
2129,-0.36,-0.08,
2130,-0.38,-0.095,
2131,-0.37,-0.095,
2132,-0.36,-0.075,
2133,-0.34,-0.07,
2134,-0.345,-0.07,
2135,-0.34,-0.09,
2136,-0.35,-0.1,
2137,-0.36,-0.095,
2138,-0.34,-0.08,
2139,-0.325,-0.07,
2140,-0.31,-0.08,
2141,-0.32,-0.095,
2142,-0.34,-0.095,
2143,-0.335,-0.085,
2144,-0.33,-0.085,
2145,-0.31,-0.075,
2146,-0.31,-0.075,
2147,-0.31,-0.085,
2148,-0.325,-0.095,
2149,-0.33,-0.085,
2150,-0.315,-0.08,
2151,-0.285,-0.06,
2152,-0.29,-0.07,
2153,-0.29,-0.08,
2154,-0.295,-0.085,
2155,-0.305,-0.09,
2156,-0.285,-0.085,
2157,-0.265,-0.08,
2158,-0.255,-0.09,
2159,-0.25,-0.1,
2160,-0.27,-0.105,
2161,-0.28,-0.095,
2162,-0.265,-0.085,
2163,-0.24,-0.065,
2164,-0.23,-0.07,
2165,-0.23,-0.08,
2166,-0.235,-0.105,
2167,-0.25,-0.1,
2168,-0.225,-0.085,
2169,-0.2,-0.08,
2170,-0.195,-0.07,
2171,-0.2,-0.095,
2172,-0.205,-0.1,
2173,-0.21,-0.095,
2174,-0.19,-0.09,
2175,-0.165,-0.07,
2176,-0.145,-0.08,
2177,-0.135,-0.095,
2178,-0.155,-0.1,
2179,-0.14,-0.105,
2180,-0.12,-0.095,
2181,-0.09,-0.07,
2182,-0.075,-0.08,
2183,-0.075,-0.095,
2184,-0.08,-0.1,
2185,-0.065,-0.105,
2186,-0.04,-0.09,
2187,-0.015,-0.08,
2188,0.01,-0.09,
2189,0.015,-0.1,
2190,0.025,-0.11,
2191,0.04,-0.105,
2192,0.07,-0.09,
2193,0.1,-0.085,
2194,0.135,-0.1,
2195,0.15,-0.1,
2196,0.17,-0.105,
2197,0.18,-0.115,
2198,0.22,-0.105,
2199,0.265,-0.085,
2200,0.3,-0.095,
2201,0.32,-0.115,
2202,0.33,-0.12,
2203,0.335,-0.12,
2204,0.365,-0.105,
2205,0.41,-0.1,
2206,0.455,-0.105,
2207,0.47,-0.11,
2208,0.495,-0.135,
2209,0.515,-0.12,
2210,0.545,-0.115,
2211,0.595,-0.105,
2212,0.635,-0.115,
2213,0.65,-0.13,
2214,0.655,-0.13,
2215,0.66,-0.125,
2216,0.7,-0.11,
2217,0.725,-0.105,
2218,0.755,-0.105,
2219,0.76,-0.11,
2220,0.735,-0.12,
2221,0.71,-0.11,
2222,0.715,-0.095,
2223,0.71,-0.07,
2224,0.67,-0.075,
2225,0.62,-0.085,
2226,0.575,-0.105,
2227,0.52,-0.08,
2228,0.465,-0.075,
2229,0.41,-0.07,
2230,0.375,-0.075,
2231,0.31,-0.07,
2232,0.24,-0.09,
2233,0.155,-0.085,
2234,0.09,-0.07,
2235,0.065,-0.065,
2236,0.01,-0.06,
2237,-0.06,-0.065,
2238,-0.12,-0.075,
2239,-0.175,-0.065,
2240,-0.21,-0.065,
2241,-0.235,-0.04,
2242,-0.27,-0.055,
2243,-0.29,-0.07,
2244,-0.34,-0.075,
2245,-0.36,-0.075,
2246,-0.375,-0.06,
2247,-0.38,-0.05,
2248,-0.39,-0.055,
2249,-0.42,-0.07,
2250,-0.425,-0.075,
2251,-0.445,-0.085,
2252,-0.445,-0.05,
2253,-0.44,-0.04,
2254,-0.435,-0.06,
2255,-0.45,-0.06,
2256,-0.475,-0.075,
2257,-0.5,-0.075,
2258,-0.485,-0.06,
2259,-0.475,-0.04,
2260,-0.48,-0.055,
2261,-0.48,-0.07,
2262,-0.495,-0.08,
2263,-0.5,-0.07,
2264,-0.485,-0.05,
2265,-0.475,-0.045,
2266,-0.475,-0.055,
2267,-0.48,-0.055,
2268,-0.495,-0.065,
2269,-0.505,-0.07,
2270,-0.5,-0.06,
2271,-0.475,-0.035,
2272,-0.47,-0.05,
2273,-0.485,-0.06,
2274,-0.5,-0.055,
2275,-0.49,-0.06,
2276,-0.485,-0.06,
2277,-0.475,-0.035,
2278,-0.48,-0.055,
2279,-0.47,-0.055,
2280,-0.485,-0.065,
2281,-0.485,-0.065,
2282,-0.48,-0.04,
2283,-0.465,-0.025,
2284,-0.46,-0.03,
2285,-0.475,-0.045,
2286,-0.475,-0.055,
2287,-0.49,-0.055,
2288,-0.465,-0.04,
2289,-0.465,-0.035,
2290,-0.46,-0.04,
2291,-0.46,-0.05,
2292,-0.475,-0.075,
2293,-0.485,-0.06,
2294,-0.475,-0.055,
2295,-0.455,-0.035,
2296,-0.45,-0.055,
2297,-0.46,-0.065,
2298,-0.465,-0.075,
2299,-0.485,-0.065,
2300,-0.47,-0.045,
2301,-0.46,-0.035,
2302,-0.455,-0.04,
2303,-0.455,-0.045,
2304,-0.475,-0.055,
2305,-0.475,-0.06,
2306,-0.485,-0.045,
2307,-0.465,-0.045,
2308,-0.45,-0.045,
2309,-0.46,-0.055,
2310,-0.48,-0.07,
2311,-0.495,-0.06,
2312,-0.48,-0.045,
2313,-0.465,-0.04,
2314,-0.455,-0.055,
2315,-0.485,-0.05,
2316,-0.49,-0.065,
2317,-0.495,-0.045,
2318,-0.48,-0.045,
2319,-0.47,-0.04,
2320,-0.47,-0.035,
2321,-0.47,-0.045,
2322,-0.495,-0.05,
2323,-0.505,-0.045,
2324,-0.505,-0.04,
2325,-0.48,-0.035,
2326,-0.475,-0.045,
2327,-0.47,-0.055,
2328,-0.485,-0.06,
2329,-0.505,-0.065,
2330,-0.49,-0.04,
2331,-0.485,-0.025,
2332,-0.48,-0.03,
2333,-0.48,-0.05,
2334,-0.495,-0.06,
2335,-0.51,-0.06,
2336,-0.5,-0.035,
2337,-0.49,-0.03,
2338,-0.48,-0.03,
2339,-0.49,-0.055,
2340,-0.49,-0.05,
2341,-0.495,-0.045,
2342,-0.475,-0.03,
2343,-0.475,-0.035,
2344,-0.47,-0.04,
2345,-0.48,-0.04,
2346,-0.495,-0.055,
2347,-0.5,-0.045,
2348,-0.49,-0.05,
2349,-0.47,-0.02,
2350,-0.48,-0.035,
2351,-0.465,-0.045,
2352,-0.48,-0.055,
2353,-0.49,-0.055,
2354,-0.485,-0.05,
2355,-0.47,-0.025,
2356,-0.47,-0.035,
2357,-0.48,-0.05,
2358,-0.485,-0.045,
2359,-0.485,-0.05,
2360,-0.48,-0.035,
2361,-0.465,-0.03,
2362,-0.455,-0.03,
2363,-0.455,-0.04,
2364,-0.475,-0.055,
2365,-0.48,-0.045,
2366,-0.475,-0.04,
2367,-0.455,-0.025,
2368,-0.45,-0.025,
2369,-0.475,-0.04,
2370,-0.475,-0.045,
2371,-0.49,-0.05,
2372,-0.48,-0.05,
2373,-0.46,-0.02,
2374,-0.45,-0.025,
2375,-0.46,-0.05,
2376,-0.48,-0.055,
2377,-0.49,-0.05,
2378,-0.47,-0.05,
2379,-0.445,-0.025,
2380,-0.44,-0.025,
2381,-0.445,-0.045,
2382,-0.465,-0.05,
2383,-0.47,-0.045,
2384,-0.47,-0.035,
2385,-0.46,-0.03,
2386,-0.44,-0.035,
2387,-0.44,-0.04,
2388,-0.45,-0.04,
2389,-0.465,-0.04,
2390,-0.465,-0.035,
2391,-0.44,-0.025,
2392,-0.44,-0.025,
2393,-0.46,-0.025,
2394,-0.46,-0.045,
2395,-0.465,-0.05,
2396,-0.455,-0.035,
2397,-0.43,-0.03,
2398,-0.43,-0.02,
2399,-0.435,-0.045,
2400,-0.455,-0.06,
2401,-0.47,-0.04,
2402,-0.435,-0.04,
2403,-0.425,-0.03,
2404,-0.41,-0.025,
2405,-0.415,-0.04,
2406,-0.445,-0.055,
2407,-0.45,-0.05,
2408,-0.445,-0.04,
2409,-0.43,-0.03,
2410,-0.415,-0.035,
2411,-0.415,-0.045,
2412,-0.435,-0.055,
2413,-0.45,-0.035,
2414,-0.435,-0.025,
2415,-0.42,-0.02,
2416,-0.41,-0.02,
2417,-0.405,-0.04,
2418,-0.425,-0.04,
2419,-0.43,-0.03,
2420,-0.43,-0.02,
2421,-0.42,-0.005,
2422,-0.405,-0.005,
2423,-0.405,-0.025,
2424,-0.415,-0.03,
2425,-0.415,-0.055,
2426,-0.415,-0.035,
2427,-0.41,-0.03,
2428,-0.385,-0.035,
2429,-0.39,-0.045,
2430,-0.41,-0.05,
2431,-0.425,-0.045,
2432,-0.41,-0.025,
2433,-0.405,-0.015,
2434,-0.405,-0.015,
2435,-0.4,-0.04,
2436,-0.425,-0.04,
2437,-0.425,-0.03,
2438,-0.405,-0.025,
2439,-0.4,-0.015,
2440,-0.405,-0.005,
2441,-0.395,-0.02,
2442,-0.4,-0.01,
2443,-0.4,-0.005,
2444,-0.395,0.015,
2445,-0.365,0.03,
2446,-0.355,0.01,
2447,-0.355,0.0,
2448,-0.37,-0.005,
2449,-0.37,-0.005,
2450,-0.34,0.0,
2451,-0.32,0.01,
2452,-0.315,-0.02,
2453,-0.325,-0.02,
2454,-0.345,-0.03,
2455,-0.355,-0.05,
2456,-0.33,-0.035,
2457,-0.32,-0.035,
2458,-0.28,-0.05,
2459,-0.295,-0.05,
2460,-0.32,-0.055,
2461,-0.335,-0.05,
2462,-0.32,-0.03,
2463,-0.3,-0.02,
2464,-0.295,-0.02,
2465,-0.315,-0.03,
2466,-0.33,-0.025,
2467,-0.35,-0.03,
2468,-0.345,-0.01,
2469,-0.34,-0.01,
2470,-0.34,-0.02,
2471,-0.355,-0.03,
2472,-0.375,-0.035,
2473,-0.385,-0.035,
2474,-0.375,-0.01,
2475,-0.37,-0.02,
2476,-0.355,-0.015,
2477,-0.36,-0.035,
2478,-0.375,-0.035,
2479,-0.37,-0.025,
2480,-0.37,-0.01,
2481,-0.355,0.0,
2482,-0.36,-0.005,
2483,-0.355,-0.015,
2484,-0.365,-0.035,
2485,-0.38,-0.025,
2486,-0.375,-0.01,
2487,-0.35,0.005,
2488,-0.35,-0.01,
2489,-0.33,-0.01,
2490,-0.345,-0.01,
2491,-0.345,-0.015,
2492,-0.34,0.015,
2493,-0.315,0.04,
2494,-0.32,0.065,
2495,-0.31,0.085,
2496,-0.335,0.11,
2497,-0.355,0.16,
2498,-0.37,0.205,
2499,-0.395,0.22,
2500,-0.405,0.2,
2501,-0.435,0.165,
2502,-0.45,0.11,
2503,-0.425,0.04,
2504,-0.315,-0.06,
2505,-0.09,-0.145,
2506,0.285,-0.26,
2507,0.75,-0.36,
2508,1.225,-0.405,
2509,1.645,-0.36,
2510,1.95,-0.28,
2511,2.075,-0.165,N
2512,2.015,-0.085,
2513,1.67,-0.04,
2514,1.045,-0.04,
2515,0.405,-0.04,
2516,-0.235,-0.04,
2517,-0.615,-0.01,
2518,-0.615,-0.005,
2519,-0.53,0.01,
2520,-0.5,0.015,
2521,-0.51,0.02,
2522,-0.515,0.025,
2523,-0.51,0.03,
2524,-0.5,0.025,
2525,-0.475,0.015,
2526,-0.47,0.005,
2527,-0.44,0.02,
2528,-0.39,0.025,
2529,-0.33,0.035,
2530,-0.28,0.04,
2531,-0.26,0.03,
2532,-0.285,0.015,
2533,-0.275,0.025,
2534,-0.28,0.035,
2535,-0.27,0.04,
2536,-0.245,0.035,
2537,-0.25,0.005,
2538,-0.255,0.005,
2539,-0.26,0.0,
2540,-0.25,0.02,
2541,-0.23,0.03,
2542,-0.22,0.03,
2543,-0.24,0.02,
2544,-0.23,0.0,
2545,-0.245,-0.005,
2546,-0.23,0.02,
2547,-0.21,0.03,
2548,-0.2,0.02,
2549,-0.2,0.02,
2550,-0.215,0.01,
2551,-0.215,0.01,
2552,-0.21,0.035,
2553,-0.185,0.035,
2554,-0.18,0.03,
2555,-0.185,0.02,
2556,-0.205,0.015,
2557,-0.205,0.01,
2558,-0.19,0.02,
2559,-0.17,0.045,
2560,-0.16,0.035,
2561,-0.165,0.035,
2562,-0.18,0.01,
2563,-0.18,0.025,
2564,-0.165,0.035,
2565,-0.155,0.035,
2566,-0.135,0.02,
2567,-0.15,0.015,
2568,-0.15,0.0,
2569,-0.155,0.005,
2570,-0.155,0.02,
2571,-0.145,0.035,
2572,-0.13,0.025,
2573,-0.145,0.03,
2574,-0.15,0.015,
2575,-0.145,0.02,
2576,-0.12,0.02,
2577,-0.105,0.04,
2578,-0.095,0.03,
2579,-0.11,0.01,
2580,-0.1,0.005,
2581,-0.115,0.02,
2582,-0.09,0.02,
2583,-0.075,0.04,
2584,-0.06,0.025,
2585,-0.06,0.01,
2586,-0.06,0.005,
2587,-0.07,-0.005,
2588,-0.035,0.02,
2589,-0.01,0.03,
2590,-0.005,0.025,
2591,-0.005,0.015,
2592,0.01,0.01,
2593,0.01,0.0,
2594,0.025,0.02,
2595,0.045,0.02,
2596,0.055,0.025,
2597,0.06,0.0,
2598,0.065,0.005,
2599,0.07,0.0,
2600,0.1,0.015,
2601,0.135,0.02,
2602,0.155,0.015,
2603,0.17,0.005,
2604,0.16,0.005,
2605,0.195,-0.005,
2606,0.215,0.005,
2607,0.26,0.02,
2608,0.285,-0.005,
2609,0.3,-0.005,
2610,0.31,-0.02,
2611,0.31,-0.01,
2612,0.365,-0.01,
2613,0.41,-0.005,
2614,0.445,-0.005,
2615,0.455,-0.03,
2616,0.475,-0.025,
2617,0.505,-0.02,
2618,0.54,-0.02,
2619,0.58,-0.015,
2620,0.615,-0.02,
2621,0.63,-0.025,
2622,0.645,-0.035,
2623,0.665,-0.045,
2624,0.705,-0.035,
2625,0.75,-0.025,
2626,0.77,-0.03,
2627,0.795,-0.03,
2628,0.8,-0.06,
2629,0.815,-0.055,
2630,0.85,-0.03,
2631,0.88,-0.02,
2632,0.89,-0.025,
2633,0.895,-0.025,
2634,0.88,-0.03,
2635,0.865,-0.025,
2636,0.855,-0.005,
2637,0.855,0.005,
2638,0.835,0.01,
2639,0.78,0.005,
2640,0.72,0.0,
2641,0.67,0.01,
2642,0.61,0.02,
2643,0.58,0.035,
2644,0.515,0.035,
2645,0.45,0.015,
2646,0.355,0.025,
2647,0.285,0.02,
2648,0.225,0.04,
2649,0.175,0.04,
2650,0.115,0.04,
2651,0.055,0.03,
2652,-0.005,0.025,
2653,-0.06,0.03,
2654,-0.1,0.045,
2655,-0.105,0.05,
2656,-0.135,0.05,
2657,-0.17,0.04,
2658,-0.205,0.03,
2659,-0.24,0.035,
2660,-0.255,0.055,
2661,-0.245,0.06,
2662,-0.25,0.055,
2663,-0.265,0.035,
2664,-0.29,0.035,
2665,-0.3,0.035,
2666,-0.3,0.04,
2667,-0.295,0.065,
2668,-0.29,0.05,
2669,-0.305,0.035,
2670,-0.325,0.025,
2671,-0.335,0.035,
2672,-0.325,0.035,
2673,-0.315,0.06,
2674,-0.315,0.04,
2675,-0.315,0.04,
2676,-0.33,0.035,
2677,-0.335,0.045,
2678,-0.35,0.06,
2679,-0.32,0.065,
2680,-0.32,0.05,
2681,-0.315,0.045,
2682,-0.335,0.03,
2683,-0.34,0.03,
2684,-0.345,0.055,
2685,-0.325,0.06,
2686,-0.315,0.065,
2687,-0.315,0.04,
2688,-0.325,0.03,
2689,-0.325,0.035,
2690,-0.325,0.05,
2691,-0.315,0.07,
2692,-0.31,0.06,
2693,-0.305,0.04,
2694,-0.325,0.035,
2695,-0.325,0.045,
2696,-0.32,0.05,
2697,-0.315,0.065,
2698,-0.305,0.07,
2699,-0.305,0.045,
2700,-0.325,0.035,
2701,-0.32,0.03,
2702,-0.31,0.035,
2703,-0.3,0.07,
2704,-0.29,0.06,
2705,-0.305,0.045,
2706,-0.315,0.035,
2707,-0.32,0.03,
2708,-0.305,0.055,
2709,-0.3,0.065,
2710,-0.285,0.055,
2711,-0.29,0.035,
2712,-0.31,0.025,
2713,-0.31,0.04,
2714,-0.31,0.05,
2715,-0.3,0.065,
2716,-0.285,0.055,
2717,-0.295,0.04,
2718,-0.31,0.03,
2719,-0.305,0.035,
2720,-0.32,0.05,
2721,-0.3,0.06,
2722,-0.295,0.055,
2723,-0.31,0.04,
2724,-0.34,0.045,
2725,-0.33,0.04,
2726,-0.325,0.05,
2727,-0.315,0.055,
2728,-0.3,0.05,
2729,-0.305,0.04,
2730,-0.31,0.03,
2731,-0.335,0.03,
2732,-0.32,0.045,
2733,-0.31,0.07,
2734,-0.31,0.05,
2735,-0.31,0.045,
2736,-0.335,0.025,
2737,-0.335,0.03,
2738,-0.345,0.05,
2739,-0.325,0.06,
2740,-0.305,0.055,
2741,-0.32,0.035,
2742,-0.34,0.02,
2743,-0.34,0.04,
2744,-0.34,0.05,
2745,-0.325,0.065,
2746,-0.325,0.05,
2747,-0.335,0.03,
2748,-0.33,0.025,
2749,-0.34,0.035,
2750,-0.33,0.05,
2751,-0.33,0.045,
2752,-0.32,0.045,
2753,-0.32,0.035,
2754,-0.34,0.01,
2755,-0.335,0.03,
2756,-0.33,0.04,
2757,-0.315,0.055,
2758,-0.31,0.045,
2759,-0.325,0.035,
2760,-0.34,0.035,
2761,-0.355,0.03,
2762,-0.345,0.035,
2763,-0.335,0.06,
2764,-0.325,0.045,
2765,-0.325,0.025,
2766,-0.325,0.03,
2767,-0.34,0.04,
2768,-0.33,0.05,
2769,-0.305,0.055,
2770,-0.305,0.045,
2771,-0.325,0.025,
2772,-0.345,0.02,
2773,-0.345,0.03,
2774,-0.34,0.03,
2775,-0.32,0.05,
2776,-0.325,0.04,
2777,-0.335,0.03,
2778,-0.345,0.02,
2779,-0.33,0.02,
2780,-0.34,0.045,
2781,-0.33,0.06,
2782,-0.315,0.055,
2783,-0.32,0.035,
2784,-0.325,0.035,
2785,-0.32,0.04,
2786,-0.315,0.03,
2787,-0.315,0.04,
2788,-0.3,0.045,
2789,-0.305,0.025,
2790,-0.32,0.02,
2791,-0.315,0.025,
2792,-0.31,0.045,
2793,-0.3,0.055,
2794,-0.31,0.045,
2795,-0.305,0.045,
2796,-0.325,0.03,
2797,-0.33,0.03,
2798,-0.315,0.04,
2799,-0.31,0.055,
2800,-0.29,0.045,
2801,-0.295,0.045,
2802,-0.305,0.03,
2803,-0.32,0.03,
2804,-0.305,0.05,
2805,-0.295,0.055,
2806,-0.295,0.065,
2807,-0.29,0.055,
2808,-0.305,0.07,
2809,-0.29,0.075,
2810,-0.27,0.095,
2811,-0.255,0.1,
2812,-0.245,0.105,
2813,-0.235,0.08,
2814,-0.255,0.07,
2815,-0.24,0.06,
2816,-0.245,0.06,
2817,-0.225,0.075,
2818,-0.21,0.06,
2819,-0.215,0.03,
2820,-0.225,0.01,
2821,-0.225,0.025,
2822,-0.205,0.03,
2823,-0.17,0.035,
2824,-0.185,0.03,
2825,-0.195,0.015,
2826,-0.215,0.015,
2827,-0.23,0.02,
2828,-0.215,0.03,
2829,-0.21,0.05,
2830,-0.22,0.04,
2831,-0.245,0.03,
2832,-0.265,0.02,
2833,-0.285,0.03,
2834,-0.275,0.045,
2835,-0.275,0.045,
2836,-0.27,0.04,
2837,-0.28,0.02,
2838,-0.305,0.025,
2839,-0.315,0.035,
2840,-0.295,0.035,
2841,-0.285,0.05,
2842,-0.275,0.04,
2843,-0.28,0.035,
2844,-0.29,0.035,
2845,-0.31,0.03,
2846,-0.29,0.045,
2847,-0.275,0.055,
2848,-0.27,0.04,
2849,-0.275,0.03,
2850,-0.285,0.03,
2851,-0.285,0.025,
2852,-0.28,0.045,
2853,-0.27,0.065,
2854,-0.25,0.065,
2855,-0.25,0.065,
2856,-0.25,0.07,
2857,-0.26,0.13,
2858,-0.25,0.175,
2859,-0.245,0.235,
2860,-0.27,0.27,
2861,-0.31,0.275,
2862,-0.355,0.255,
2863,-0.395,0.22,
2864,-0.385,0.165,
2865,-0.34,0.095,
2866,-0.23,-0.02,
2867,-0.02,-0.145,
2868,0.335,-0.255,
2869,0.84,-0.36,
2870,1.39,-0.38,
2871,1.85,-0.31,
2872,2.15,-0.21,N
2873,2.235,-0.12,
2874,2.02,-0.045,
2875,1.48,-0.005,
2876,0.84,0.01,
2877,0.2,0.015,
2878,-0.44,0.035,
2879,-0.58,0.06,
2880,-0.465,0.065,
2881,-0.405,0.085,
2882,-0.42,0.09,
2883,-0.42,0.08,
2884,-0.42,0.07,
2885,-0.4,0.06,
2886,-0.38,0.06,
2887,-0.335,0.075,
2888,-0.27,0.085,
2889,-0.225,0.085,
2890,-0.21,0.08,
2891,-0.225,0.07,
2892,-0.24,0.065,
2893,-0.245,0.06,
2894,-0.215,0.08,
2895,-0.205,0.075,
2896,-0.195,0.07,
2897,-0.2,0.055,
2898,-0.215,0.065,
2899,-0.205,0.065,
2900,-0.19,0.085,
2901,-0.18,0.08,
2902,-0.175,0.06,
2903,-0.175,0.065,
2904,-0.2,0.055,
2905,-0.2,0.045,
2906,-0.17,0.07,
2907,-0.165,0.07,
2908,-0.16,0.06,
2909,-0.17,0.05,
2910,-0.18,0.045,
2911,-0.17,0.05,
2912,-0.175,0.07,
2913,-0.145,0.07,
2914,-0.135,0.08,
2915,-0.145,0.065,
2916,-0.155,0.05,
2917,-0.15,0.04,
2918,-0.15,0.06,
2919,-0.145,0.07,
2920,-0.12,0.07,
2921,-0.13,0.06,
2922,-0.135,0.045,
2923,-0.135,0.055,
2924,-0.12,0.055,
2925,-0.105,0.06,
2926,-0.105,0.07,
2927,-0.1,0.05,
2928,-0.11,0.04,
2929,-0.12,0.05,
2930,-0.1,0.06,
2931,-0.07,0.075,
2932,-0.065,0.055,
2933,-0.05,0.045,
2934,-0.06,0.04,
2935,-0.07,0.04,
2936,-0.04,0.045,
2937,-0.03,0.055,
2938,-0.02,0.05,
2939,-0.01,0.045,
2940,-0.005,0.03,
2941,-0.01,0.055,
2942,0.0,0.05,
2943,0.03,0.065,
2944,0.05,0.06,
2945,0.055,0.04,
2946,0.065,0.025,
2947,0.07,0.03,
2948,0.095,0.055,
2949,0.12,0.07,
2950,0.145,0.06,
2951,0.15,0.04,
2952,0.17,0.02,
2953,0.185,0.025,
2954,0.21,0.03,
2955,0.245,0.05,
2956,0.27,0.04,
2957,0.275,0.03,
2958,0.3,0.015,
2959,0.305,0.03,
2960,0.34,0.05,
2961,0.385,0.045,
2962,0.43,0.03,
2963,0.44,0.005,
2964,0.475,-0.005,
2965,0.5,0.005,
2966,0.54,0.01,
2967,0.585,0.03,
2968,0.615,0.025,
2969,0.63,-0.005,
2970,0.65,0.005,
2971,0.67,0.0,
2972,0.71,0.0,
2973,0.75,0.02,
2974,0.795,0.02,
2975,0.815,0.005,
2976,0.835,-0.015,
2977,0.85,-0.015,
2978,0.88,0.005,
2979,0.92,0.01,
2980,0.93,0.015,
2981,0.935,0.005,
2982,0.915,0.0,
2983,0.905,0.01,
2984,0.9,0.025,
2985,0.885,0.04,
2986,0.855,0.035,
2987,0.8,0.03,
2988,0.73,0.025,
2989,0.66,0.03,
2990,0.605,0.05,
2991,0.54,0.06,
2992,0.48,0.05,
2993,0.42,0.04,
2994,0.345,0.04,
2995,0.255,0.04,
2996,0.195,0.055,
2997,0.155,0.075,
2998,0.1,0.065,
2999,0.04,0.05,
3000,-0.01,0.035,
3001,-0.075,0.035,
3002,-0.1,0.05,
3003,-0.115,0.06,
3004,-0.145,0.06,
3005,-0.175,0.04,
3006,-0.225,0.025,
3007,-0.235,0.045,
3008,-0.24,0.05,
3009,-0.245,0.055,
3010,-0.245,0.05,
3011,-0.27,0.04,
3012,-0.295,0.03,
3013,-0.31,0.04,
3014,-0.32,0.035,
3015,-0.31,0.06,
3016,-0.305,0.05,
3017,-0.335,0.04,
3018,-0.34,0.03,
3019,-0.34,0.035,
3020,-0.34,0.04,
3021,-0.34,0.055,
3022,-0.33,0.06,
3023,-0.33,0.045,
3024,-0.35,0.045,
3025,-0.35,0.05,
3026,-0.34,0.055,
3027,-0.345,0.065,
3028,-0.325,0.05,
3029,-0.33,0.045,
3030,-0.35,0.04,
3031,-0.35,0.05,
3032,-0.355,0.065,
3033,-0.35,0.07,
3034,-0.335,0.055,
3035,-0.335,0.05,
3036,-0.355,0.03,
3037,-0.365,0.05,
3038,-0.345,0.05,
3039,-0.335,0.07,
3040,-0.32,0.07,
3041,-0.34,0.055,
3042,-0.34,0.045,
3043,-0.355,0.05,
3044,-0.345,0.06,
3045,-0.325,0.065,
3046,-0.33,0.06,
3047,-0.35,0.04,
3048,-0.335,0.04,
3049,-0.335,0.05,
3050,-0.335,0.055,
3051,-0.33,0.06,
3052,-0.33,0.065,
3053,-0.335,0.06,
3054,-0.34,0.04,
3055,-0.365,0.04,
3056,-0.36,0.06,
3057,-0.33,0.065,
3058,-0.32,0.055,
3059,-0.33,0.055,
3060,-0.345,0.04,
3061,-0.355,0.03,
3062,-0.34,0.06,
3063,-0.345,0.06,
3064,-0.33,0.05,
3065,-0.33,0.05,
3066,-0.355,0.035,
3067,-0.355,0.055,
3068,-0.37,0.065,
3069,-0.345,0.07,
3070,-0.34,0.07,
3071,-0.345,0.055,
3072,-0.365,0.045,
3073,-0.365,0.045,
3074,-0.355,0.055,
3075,-0.345,0.07,
3076,-0.355,0.07,
3077,-0.37,0.05,
3078,-0.385,0.04,
3079,-0.395,0.045,
3080,-0.38,0.055,
3081,-0.365,0.07,
3082,-0.36,0.065,
3083,-0.385,0.055,
3084,-0.39,0.05,
3085,-0.4,0.05,
3086,-0.38,0.06,
3087,-0.365,0.065,
3088,-0.375,0.06,
3089,-0.385,0.05,
3090,-0.4,0.035,
3091,-0.405,0.035,
3092,-0.41,0.06,
3093,-0.385,0.065,
3094,-0.37,0.06,
3095,-0.375,0.05,
3096,-0.4,0.045,
3097,-0.415,0.05,
3098,-0.405,0.07,
3099,-0.4,0.075,
3100,-0.38,0.07,
3101,-0.385,0.06,
3102,-0.405,0.05,
3103,-0.41,0.06,
3104,-0.415,0.065,
3105,-0.385,0.08,
3106,-0.39,0.07,
3107,-0.39,0.065,
3108,-0.405,0.045,
3109,-0.41,0.055,
3110,-0.41,0.06,
3111,-0.385,0.075,
3112,-0.39,0.065,
3113,-0.395,0.065,
3114,-0.415,0.05,
3115,-0.415,0.05,
3116,-0.42,0.075,
3117,-0.395,0.085,
3118,-0.405,0.08,
3119,-0.405,0.055,
3120,-0.425,0.05,
3121,-0.425,0.06,
3122,-0.41,0.07,
3123,-0.405,0.09,
3124,-0.41,0.08,
3125,-0.415,0.06,
3126,-0.415,0.055,
3127,-0.435,0.065,
3128,-0.44,0.08,
3129,-0.415,0.095,
3130,-0.41,0.085,
3131,-0.41,0.07,
3132,-0.445,0.055,
3133,-0.44,0.06,
3134,-0.44,0.085,
3135,-0.425,0.085,
3136,-0.405,0.09,
3137,-0.415,0.07,
3138,-0.425,0.06,
3139,-0.425,0.065,
3140,-0.43,0.08,
3141,-0.415,0.1,
3142,-0.4,0.085,
3143,-0.405,0.075,
3144,-0.42,0.075,
3145,-0.43,0.07,
3146,-0.425,0.085,
3147,-0.405,0.095,
3148,-0.405,0.085,
3149,-0.415,0.085,
3150,-0.435,0.065,
3151,-0.45,0.075,
3152,-0.43,0.085,
3153,-0.425,0.095,
3154,-0.425,0.085,
3155,-0.425,0.075,
3156,-0.445,0.07,
3157,-0.445,0.08,
3158,-0.44,0.085,
3159,-0.43,0.105,
3160,-0.415,0.1,
3161,-0.43,0.08,
3162,-0.445,0.07,
3163,-0.45,0.08,
3164,-0.44,0.09,
3165,-0.42,0.11,
3166,-0.41,0.1,
3167,-0.44,0.085,
3168,-0.465,0.075,
3169,-0.445,0.09,
3170,-0.435,0.1,
3171,-0.415,0.1,
3172,-0.425,0.105,
3173,-0.42,0.095,
3174,-0.435,0.08,
3175,-0.46,0.09,
3176,-0.435,0.095,
3177,-0.425,0.11,
3178,-0.42,0.11,
3179,-0.425,0.09,
3180,-0.44,0.09,
3181,-0.445,0.095,
3182,-0.45,0.105,
3183,-0.445,0.11,
3184,-0.425,0.1,
3185,-0.445,0.105,
3186,-0.445,0.095,
3187,-0.455,0.105,
3188,-0.455,0.115,
3189,-0.43,0.13,
3190,-0.445,0.125,
3191,-0.445,0.115,
3192,-0.455,0.13,
3193,-0.445,0.145,
3194,-0.425,0.165,
3195,-0.405,0.18,
3196,-0.4,0.18,
3197,-0.395,0.14,
3198,-0.405,0.115,
3199,-0.405,0.135,
3200,-0.405,0.125,
3201,-0.385,0.12,
3202,-0.38,0.095,
3203,-0.36,0.085,
3204,-0.375,0.075,
3205,-0.385,0.095,
3206,-0.38,0.11,
3207,-0.37,0.13,
3208,-0.38,0.12,
3209,-0.37,0.125,
3210,-0.385,0.1,
3211,-0.415,0.12,
3212,-0.41,0.14,
3213,-0.405,0.155,
3214,-0.41,0.13,
3215,-0.435,0.115,
3216,-0.46,0.1,
3217,-0.46,0.11,
3218,-0.46,0.135,
3219,-0.44,0.145,
3220,-0.44,0.135,
3221,-0.455,0.12,
3222,-0.46,0.115,
3223,-0.46,0.125,
3224,-0.455,0.14,
3225,-0.435,0.15,
3226,-0.43,0.15,
3227,-0.435,0.12,
3228,-0.46,0.13,
3229,-0.455,0.135,
3230,-0.46,0.155,
3231,-0.435,0.16,
3232,-0.425,0.155,
3233,-0.425,0.165,
3234,-0.45,0.155,
3235,-0.44,0.165,
3236,-0.43,0.22,
3237,-0.41,0.275,
3238,-0.42,0.315,
3239,-0.445,0.345,
3240,-0.495,0.355,
3241,-0.535,0.35,
3242,-0.56,0.315,
3243,-0.54,0.26,
3244,-0.485,0.13,
3245,-0.315,0.0,
3246,-0.01,-0.125,
3247,0.435,-0.235,
3248,1.01,-0.26,
3249,1.51,-0.235,
3250,1.84,-0.155,
3251,2.01,-0.075,N
3252,1.98,0.015,
3253,1.715,0.08,
3254,1.17,0.11,
3255,0.53,0.11,
3256,-0.11,0.11,
3257,-0.75,0.125,
3258,-0.77,0.16,
3259,-0.67,0.185,
3260,-0.62,0.2,
3261,-0.59,0.21,
3262,-0.615,0.195,
3263,-0.615,0.18,
3264,-0.61,0.185,
3265,-0.575,0.2,
3266,-0.52,0.22,
3267,-0.465,0.225,
3268,-0.44,0.22,
3269,-0.42,0.19,
3270,-0.44,0.195,
3271,-0.455,0.2,
3272,-0.435,0.215,
3273,-0.415,0.22,
3274,-0.425,0.235,
3275,-0.425,0.205,
3276,-0.435,0.205,
3277,-0.445,0.2,
3278,-0.425,0.225,
3279,-0.42,0.24,
3280,-0.405,0.235,
3281,-0.415,0.225,
3282,-0.425,0.21,
3283,-0.42,0.225,
3284,-0.415,0.225,
3285,-0.395,0.24,
3286,-0.41,0.24,
3287,-0.405,0.225,
3288,-0.405,0.22,
3289,-0.42,0.225,
3290,-0.41,0.23,
3291,-0.385,0.235,
3292,-0.39,0.235,
3293,-0.4,0.215,
3294,-0.41,0.215,
3295,-0.41,0.23,
3296,-0.405,0.245,
3297,-0.375,0.255,
3298,-0.37,0.245,
3299,-0.385,0.23,
3300,-0.38,0.225,
3301,-0.395,0.22,
3302,-0.38,0.235,
3303,-0.365,0.245,
3304,-0.36,0.24,
3305,-0.375,0.23,
3306,-0.385,0.22,
3307,-0.385,0.225,
3308,-0.38,0.24,
3309,-0.35,0.255,
3310,-0.345,0.245,
3311,-0.35,0.23,
3312,-0.35,0.22,
3313,-0.345,0.225,
3314,-0.33,0.235,
3315,-0.325,0.255,
3316,-0.315,0.245,
3317,-0.32,0.23,
3318,-0.325,0.22,
3319,-0.325,0.23,
3320,-0.305,0.24,
3321,-0.295,0.255,
3322,-0.295,0.24,
3323,-0.28,0.24,
3324,-0.285,0.225,
3325,-0.275,0.235,
3326,-0.27,0.235,
3327,-0.24,0.26,
3328,-0.23,0.255,
3329,-0.23,0.24,
3330,-0.235,0.225,
3331,-0.245,0.235,
3332,-0.215,0.24,
3333,-0.175,0.26,
3334,-0.165,0.25,
3335,-0.155,0.24,
3336,-0.165,0.23,
3337,-0.15,0.23,
3338,-0.115,0.24,
3339,-0.095,0.25,
3340,-0.08,0.245,
3341,-0.065,0.225,
3342,-0.06,0.22,
3343,-0.055,0.22,
3344,-0.01,0.23,
3345,0.035,0.24,
3346,0.05,0.25,
3347,0.07,0.225,
3348,0.085,0.22,
3349,0.115,0.22,
3350,0.14,0.235,
3351,0.185,0.24,
3352,0.22,0.24,
3353,0.255,0.215,
3354,0.27,0.205,
3355,0.28,0.22,
3356,0.315,0.225,
3357,0.365,0.24,
3358,0.4,0.23,
3359,0.425,0.215,
3360,0.435,0.205,
3361,0.46,0.215,
3362,0.505,0.22,
3363,0.53,0.22,
3364,0.555,0.22,
3365,0.575,0.195,
3366,0.59,0.205,
3367,0.61,0.215,
3368,0.635,0.225,
3369,0.645,0.235,
3370,0.65,0.24,
3371,0.62,0.23,
3372,0.58,0.22,
3373,0.565,0.24,
3374,0.53,0.255,
3375,0.49,0.255,
3376,0.44,0.25,
3377,0.37,0.25,
3378,0.285,0.245,
3379,0.215,0.24,
3380,0.16,0.26,
3381,0.105,0.27,
3382,0.05,0.275,
3383,-0.035,0.25,
3384,-0.09,0.26,
3385,-0.17,0.25,
3386,-0.215,0.265,
3387,-0.26,0.285,
3388,-0.285,0.285,
3389,-0.33,0.27,
3390,-0.385,0.255,
3391,-0.415,0.27,
3392,-0.43,0.275,
3393,-0.45,0.28,
3394,-0.45,0.27,
3395,-0.475,0.255,
3396,-0.495,0.25,
3397,-0.52,0.26,
3398,-0.505,0.28,
3399,-0.505,0.28,
3400,-0.515,0.28,
3401,-0.525,0.26,
3402,-0.54,0.25,
3403,-0.555,0.265,
3404,-0.555,0.28,
3405,-0.545,0.285,
3406,-0.55,0.275,
3407,-0.55,0.275,
3408,-0.565,0.255,
3409,-0.57,0.255,
3410,-0.555,0.275,
3411,-0.56,0.28,
3412,-0.55,0.28,
3413,-0.55,0.26,
3414,-0.58,0.26,
3415,-0.58,0.26,
3416,-0.575,0.285,
3417,-0.555,0.295,
3418,-0.57,0.28,
3419,-0.56,0.26,
3420,-0.58,0.265,
3421,-0.57,0.285,
3422,-0.565,0.28,
3423,-0.56,0.3,
3424,-0.56,0.29,
3425,-0.57,0.29,
3426,-0.57,0.265,
3427,-0.575,0.27,
3428,-0.57,0.29,
3429,-0.555,0.295,
3430,-0.55,0.295,
3431,-0.55,0.275,
3432,-0.575,0.275,
3433,-0.58,0.28,
3434,-0.56,0.285,
3435,-0.55,0.3,
3436,-0.535,0.295,
3437,-0.54,0.28,
3438,-0.57,0.28,
3439,-0.58,0.28,
3440,-0.56,0.285,
3441,-0.54,0.3,
3442,-0.535,0.3,
3443,-0.55,0.275,
3444,-0.555,0.28,
3445,-0.56,0.275,
3446,-0.56,0.3,
3447,-0.555,0.305,
3448,-0.545,0.295,
3449,-0.54,0.28,
3450,-0.55,0.27,
3451,-0.56,0.275,
3452,-0.555,0.285,
3453,-0.56,0.3,
3454,-0.555,0.29,
3455,-0.55,0.28,
3456,-0.57,0.28,
3457,-0.58,0.28,
3458,-0.565,0.285,
3459,-0.555,0.305,
3460,-0.545,0.295,
3461,-0.56,0.265,
3462,-0.585,0.26,
3463,-0.575,0.28,
3464,-0.57,0.29,
3465,-0.55,0.295,
3466,-0.555,0.285,
3467,-0.57,0.28,
3468,-0.58,0.27,
3469,-0.595,0.27,
3470,-0.58,0.285,
3471,-0.56,0.305,
3472,-0.565,0.285,
3473,-0.57,0.28,
3474,-0.59,0.275,
3475,-0.6,0.27,
3476,-0.575,0.275,
3477,-0.565,0.285,
3478,-0.57,0.29,
3479,-0.58,0.28,
3480,-0.595,0.265,
3481,-0.6,0.275,
3482,-0.59,0.28,
3483,-0.575,0.29,
3484,-0.575,0.28,
3485,-0.575,0.265,
3486,-0.59,0.255,
3487,-0.59,0.27,
3488,-0.58,0.275,
3489,-0.585,0.295,
3490,-0.57,0.275,
3491,-0.575,0.28,
3492,-0.59,0.26,
3493,-0.585,0.275,
3494,-0.58,0.28,
3495,-0.57,0.295,
3496,-0.575,0.28,
3497,-0.555,0.28,
3498,-0.575,0.26,
3499,-0.58,0.27,
3500,-0.575,0.28,
3501,-0.565,0.29,
3502,-0.555,0.28,
3503,-0.565,0.28,
3504,-0.57,0.265,
3505,-0.58,0.265,
3506,-0.58,0.285,
3507,-0.565,0.29,
3508,-0.55,0.275,
3509,-0.555,0.26,
3510,-0.575,0.26,
3511,-0.585,0.255,
3512,-0.585,0.275,
3513,-0.57,0.29,
3514,-0.565,0.28,
3515,-0.58,0.265,
3516,-0.585,0.26,
3517,-0.58,0.255,
3518,-0.565,0.285,
3519,-0.565,0.28,
3520,-0.555,0.275,
3521,-0.565,0.27,
3522,-0.575,0.265,
3523,-0.57,0.27,
3524,-0.56,0.28,
3525,-0.555,0.28,
3526,-0.55,0.275,
3527,-0.57,0.255,
3528,-0.57,0.255,
3529,-0.565,0.27,
3530,-0.58,0.28,
3531,-0.55,0.29,
3532,-0.55,0.28,
3533,-0.55,0.27,
3534,-0.565,0.26,
3535,-0.58,0.265,
3536,-0.565,0.28,
3537,-0.545,0.295,
3538,-0.535,0.285,
3539,-0.545,0.265,
3540,-0.555,0.265,
3541,-0.57,0.28,
3542,-0.555,0.275,
3543,-0.535,0.295,
3544,-0.53,0.285,
3545,-0.545,0.27,
3546,-0.56,0.255,
3547,-0.555,0.26,
3548,-0.555,0.27,
3549,-0.525,0.27,
3550,-0.525,0.27,
3551,-0.55,0.275,
3552,-0.55,0.255,
3553,-0.545,0.255,
3554,-0.535,0.28,
3555,-0.515,0.285,
3556,-0.515,0.27,
3557,-0.52,0.265,
3558,-0.54,0.25,
3559,-0.545,0.265,
3560,-0.545,0.27,
3561,-0.515,0.27,
3562,-0.505,0.27,
3563,-0.515,0.265,
3564,-0.535,0.24,
3565,-0.54,0.255,
3566,-0.53,0.27,
3567,-0.51,0.285,
3568,-0.505,0.27,
3569,-0.525,0.265,
3570,-0.52,0.255,
3571,-0.52,0.255,
3572,-0.52,0.27,
3573,-0.505,0.29,
3574,-0.51,0.285,
3575,-0.5,0.27,
3576,-0.515,0.25,
3577,-0.505,0.255,
3578,-0.505,0.27,
3579,-0.505,0.295,
3580,-0.505,0.265,
3581,-0.505,0.265,
3582,-0.52,0.26,
3583,-0.525,0.26,
3584,-0.5,0.27,
3585,-0.475,0.295,
3586,-0.47,0.295,
3587,-0.48,0.29,
3588,-0.475,0.3,
3589,-0.475,0.29,
3590,-0.46,0.31,
3591,-0.435,0.31,
3592,-0.43,0.295,
3593,-0.43,0.285,
3594,-0.435,0.265,
3595,-0.435,0.27,
3596,-0.45,0.255,
3597,-0.42,0.255,
3598,-0.4,0.245,
3599,-0.4,0.225,
3600,-0.42,0.225,
3601,-0.425,0.235,
3602,-0.435,0.255,
3603,-0.405,0.265,
3604,-0.39,0.255,
3605,-0.395,0.25,
3606,-0.42,0.245,
3607,-0.44,0.255,
3608,-0.435,0.26,
3609,-0.43,0.27,
3610,-0.44,0.265,
3611,-0.45,0.245,
3612,-0.465,0.24,
3613,-0.47,0.245,
3614,-0.45,0.26,
3615,-0.435,0.28,
3616,-0.45,0.26,
3617,-0.45,0.25,
3618,-0.46,0.235,
3619,-0.47,0.245,
3620,-0.46,0.245,
3621,-0.435,0.265,
3622,-0.43,0.265,
3623,-0.44,0.25,
3624,-0.445,0.245,
3625,-0.45,0.255,
3626,-0.435,0.27,
3627,-0.415,0.275,
3628,-0.41,0.28,
3629,-0.41,0.275,
3630,-0.41,0.295,
3631,-0.425,0.34,
3632,-0.415,0.4,
3633,-0.41,0.455,
3634,-0.43,0.475,
3635,-0.475,0.455,
3636,-0.53,0.435,
3637,-0.545,0.405,
3638,-0.52,0.34,
3639,-0.44,0.26,
3640,-0.29,0.13,
3641,-0.015,0.01,
3642,0.375,-0.11,
3643,0.905,-0.195,
3644,1.42,-0.185,
3645,1.825,-0.115,
3646,2.055,-0.02,N
3647,2.11,0.07,
3648,1.945,0.135,
3649,1.5,0.19,
3650,0.86,0.2,
3651,0.22,0.195,
3652,-0.42,0.195,
3653,-0.705,0.205,
3654,-0.655,0.23,
3655,-0.58,0.26,
3656,-0.555,0.27,
3657,-0.55,0.28,
3658,-0.565,0.28,
3659,-0.565,0.265,
3660,-0.545,0.26,
3661,-0.505,0.275,
3662,-0.46,0.28,
3663,-0.39,0.295,
3664,-0.365,0.28,
3665,-0.355,0.265,
3666,-0.365,0.25,
3667,-0.37,0.275,
3668,-0.35,0.28,
3669,-0.35,0.28,
3670,-0.32,0.28,
3671,-0.325,0.26,
3672,-0.34,0.26,
3673,-0.34,0.275,
3674,-0.34,0.28,
3675,-0.315,0.3,
3676,-0.315,0.275,
3677,-0.315,0.27,
3678,-0.32,0.26,
3679,-0.335,0.265,
3680,-0.32,0.29,
3681,-0.3,0.29,
3682,-0.295,0.265,
3683,-0.305,0.26,
3684,-0.31,0.25,
3685,-0.32,0.26,
3686,-0.31,0.26,
3687,-0.285,0.28,
3688,-0.27,0.275,
3689,-0.285,0.26,
3690,-0.285,0.245,
3691,-0.29,0.255,
3692,-0.295,0.27,
3693,-0.27,0.27,
3694,-0.27,0.265,
3695,-0.265,0.245,
3696,-0.28,0.24,
3697,-0.295,0.255,
3698,-0.265,0.27,
3699,-0.25,0.27,
3700,-0.23,0.265,
3701,-0.245,0.235,
3702,-0.255,0.24,
3703,-0.25,0.24,
3704,-0.245,0.26,
3705,-0.235,0.26,
3706,-0.225,0.255,
3707,-0.225,0.23,
3708,-0.235,0.225,
3709,-0.215,0.24,
3710,-0.205,0.245,
3711,-0.195,0.26,
3712,-0.195,0.25,
3713,-0.185,0.235,
3714,-0.195,0.225,
3715,-0.195,0.23,
3716,-0.175,0.24,
3717,-0.16,0.255,
3718,-0.145,0.25,
3719,-0.15,0.23,
3720,-0.155,0.225,
3721,-0.155,0.225,
3722,-0.14,0.235,
3723,-0.105,0.235,
3724,-0.095,0.245,
3725,-0.095,0.235,
3726,-0.105,0.215,
3727,-0.105,0.23,
3728,-0.08,0.225,
3729,-0.06,0.24,
3730,-0.045,0.24,
3731,-0.04,0.22,
3732,-0.03,0.215,
3733,-0.04,0.215,
3734,-0.01,0.225,
3735,0.02,0.23,
3736,0.04,0.235,
3737,0.055,0.23,
3738,0.04,0.2,
3739,0.06,0.205,
3740,0.09,0.22,
3741,0.125,0.235,
3742,0.15,0.215,
3743,0.165,0.2,
3744,0.175,0.19,
3745,0.195,0.205,
3746,0.22,0.21,
3747,0.25,0.22,
3748,0.285,0.2,
3749,0.315,0.19,
3750,0.325,0.175,
3751,0.34,0.18,
3752,0.395,0.19,
3753,0.44,0.195,
3754,0.475,0.185,
3755,0.495,0.18,
3756,0.515,0.16,
3757,0.54,0.185,
3758,0.58,0.185,
3759,0.625,0.2,
3760,0.67,0.18,
3761,0.68,0.175,
3762,0.7,0.17,
3763,0.72,0.155,
3764,0.73,0.175,
3765,0.765,0.19,
3766,0.81,0.18,
3767,0.79,0.16,
3768,0.8,0.155,
3769,0.78,0.16,
3770,0.79,0.18,
3771,0.78,0.2,
3772,0.745,0.19,
3773,0.715,0.195,
3774,0.66,0.18,
3775,0.58,0.195,
3776,0.545,0.21,
3777,0.495,0.215,
3778,0.43,0.205,
3779,0.355,0.19,
3780,0.295,0.185,
3781,0.22,0.195,
3782,0.165,0.21,
3783,0.11,0.22,
3784,0.06,0.22,
3785,-0.015,0.195,
3786,-0.085,0.19,
3787,-0.12,0.19,
3788,-0.15,0.21,
3789,-0.165,0.21,
3790,-0.185,0.21,
3791,-0.23,0.195,
3792,-0.26,0.19,
3793,-0.285,0.195,
3794,-0.29,0.21,
3795,-0.295,0.215,
3796,-0.315,0.22,
3797,-0.33,0.2,
3798,-0.345,0.18,
3799,-0.365,0.175,
3800,-0.35,0.19,
3801,-0.345,0.2,
3802,-0.35,0.195,
3803,-0.355,0.19,
3804,-0.37,0.175,
3805,-0.385,0.185,
3806,-0.39,0.195,
3807,-0.36,0.205,
3808,-0.37,0.205,
3809,-0.37,0.185,
3810,-0.4,0.18,
3811,-0.39,0.195,
3812,-0.395,0.2,
3813,-0.385,0.215,
3814,-0.38,0.21,
3815,-0.38,0.2,
3816,-0.39,0.175,
3817,-0.395,0.18,
3818,-0.385,0.205,
3819,-0.375,0.205,
3820,-0.365,0.21,
3821,-0.375,0.175,
3822,-0.385,0.185,
3823,-0.395,0.175,
3824,-0.38,0.2,
3825,-0.38,0.215,
3826,-0.385,0.19,
3827,-0.37,0.18,
3828,-0.385,0.17,
3829,-0.38,0.185,
3830,-0.375,0.21,
3831,-0.365,0.21,
3832,-0.365,0.195,
3833,-0.365,0.18,
3834,-0.39,0.175,
3835,-0.385,0.17,
3836,-0.37,0.18,
3837,-0.355,0.2,
3838,-0.35,0.2,
3839,-0.355,0.175,
3840,-0.375,0.17,
3841,-0.38,0.175,
3842,-0.375,0.185,
3843,-0.365,0.2,
3844,-0.36,0.19,
3845,-0.36,0.18,
3846,-0.37,0.18,
3847,-0.375,0.185,
3848,-0.365,0.19,
3849,-0.36,0.195,
3850,-0.355,0.18,
3851,-0.365,0.16,
3852,-0.38,0.16,
3853,-0.385,0.17,
3854,-0.375,0.175,
3855,-0.355,0.18,
3856,-0.36,0.185,
3857,-0.37,0.175,
3858,-0.38,0.165,
3859,-0.38,0.165,
3860,-0.37,0.175,
3861,-0.36,0.175,
3862,-0.365,0.175,
3863,-0.37,0.155,
3864,-0.4,0.155,
3865,-0.405,0.16,
3866,-0.4,0.17,
3867,-0.38,0.185,
3868,-0.37,0.18,
3869,-0.375,0.16,
3870,-0.39,0.155,
3871,-0.385,0.14,
3872,-0.385,0.165,
3873,-0.36,0.175,
3874,-0.37,0.18,
3875,-0.38,0.16,
3876,-0.395,0.145,
3877,-0.38,0.155,
3878,-0.365,0.175,
3879,-0.355,0.175,
3880,-0.36,0.17,
3881,-0.365,0.16,
3882,-0.375,0.155,
3883,-0.385,0.155,
3884,-0.37,0.165,
3885,-0.365,0.175,
3886,-0.355,0.16,
3887,-0.37,0.14,
3888,-0.38,0.14,
3889,-0.39,0.15,
3890,-0.38,0.165,
3891,-0.375,0.17,
3892,-0.355,0.17,
3893,-0.38,0.155,
3894,-0.39,0.14,
3895,-0.385,0.15,
3896,-0.375,0.15,
3897,-0.355,0.17,
3898,-0.365,0.155,
3899,-0.365,0.145,
3900,-0.38,0.125,
3901,-0.37,0.135,
3902,-0.37,0.15,
3903,-0.355,0.165,
3904,-0.365,0.16,
3905,-0.35,0.14,
3906,-0.365,0.13,
3907,-0.38,0.14,
3908,-0.36,0.145,
3909,-0.35,0.145,
3910,-0.34,0.15,
3911,-0.355,0.13,
3912,-0.36,0.12,
3913,-0.36,0.125,
3914,-0.345,0.15,
3915,-0.345,0.15,
3916,-0.335,0.14,
3917,-0.34,0.13,
3918,-0.355,0.13,
3919,-0.37,0.125,
3920,-0.355,0.135,
3921,-0.33,0.14,
3922,-0.33,0.13,
3923,-0.355,0.115,
3924,-0.36,0.125,
3925,-0.35,0.13,
3926,-0.335,0.145,
3927,-0.325,0.145,
3928,-0.325,0.13,
3929,-0.33,0.13,
3930,-0.34,0.115,
3931,-0.355,0.125,
3932,-0.33,0.13,
3933,-0.325,0.14,
3934,-0.325,0.145,
3935,-0.32,0.12,
3936,-0.35,0.115,
3937,-0.335,0.12,
3938,-0.325,0.135,
3939,-0.315,0.14,
3940,-0.305,0.135,
3941,-0.315,0.115,
3942,-0.32,0.115,
3943,-0.35,0.12,
3944,-0.33,0.13,
3945,-0.305,0.135,
3946,-0.305,0.13,
3947,-0.32,0.125,
3948,-0.33,0.115,
3949,-0.315,0.12,
3950,-0.305,0.13,
3951,-0.285,0.14,
3952,-0.285,0.16,
3953,-0.285,0.155,
3954,-0.29,0.16,
3955,-0.285,0.16,
3956,-0.28,0.17,
3957,-0.26,0.175,
3958,-0.245,0.16,
3959,-0.24,0.135,
3960,-0.25,0.11,
3961,-0.255,0.115,
3962,-0.25,0.125,
3963,-0.225,0.125,
3964,-0.215,0.115,
3965,-0.215,0.085,
3966,-0.21,0.06,
3967,-0.22,0.07,
3968,-0.225,0.105,
3969,-0.215,0.12,
3970,-0.21,0.12,
3971,-0.22,0.115,
3972,-0.24,0.09,
3973,-0.24,0.11,
3974,-0.25,0.12,
3975,-0.23,0.135,
3976,-0.245,0.135,
3977,-0.255,0.115,
3978,-0.28,0.095,
3979,-0.29,0.095,
3980,-0.29,0.105,
3981,-0.27,0.115,
3982,-0.27,0.115,
3983,-0.265,0.1,
3984,-0.285,0.1,
3985,-0.275,0.1,
3986,-0.265,0.1,
3987,-0.26,0.135,
3988,-0.25,0.12,
3989,-0.26,0.12,
3990,-0.27,0.105,
3991,-0.29,0.095,
3992,-0.265,0.11,
3993,-0.245,0.115,
3994,-0.24,0.135,
3995,-0.25,0.115,
3996,-0.27,0.105,
3997,-0.25,0.12,
3998,-0.235,0.13,
3999,-0.22,0.17,
4000,-0.215,0.215,
4001,-0.22,0.22,
4002,-0.255,0.25,
4003,-0.28,0.29,
4004,-0.31,0.315,
4005,-0.315,0.31,
4006,-0.335,0.29,
4007,-0.35,0.235,
4008,-0.335,0.155,
4009,-0.26,0.06,
4010,-0.07,-0.025,
4011,0.24,-0.12,
4012,0.68,-0.21,
4013,1.145,-0.27,
4014,1.565,-0.265,
4015,1.875,-0.22,
4016,2.075,-0.115,N
4017,2.125,-0.025,
4018,1.935,0.05,
4019,1.425,0.065,
4020,0.785,0.05,
4021,0.145,0.07,
4022,-0.495,0.08,
4023,-0.535,0.1,
4024,-0.425,0.11,
4025,-0.36,0.125,
4026,-0.385,0.105,
4027,-0.425,0.12,
4028,-0.405,0.115,
4029,-0.375,0.125,
4030,-0.37,0.135,
4031,-0.345,0.115,
4032,-0.33,0.12,
4033,-0.29,0.14,
4034,-0.225,0.14,
4035,-0.195,0.14,
4036,-0.16,0.13,
4037,-0.18,0.12,
4038,-0.19,0.115,
4039,-0.19,0.13,
4040,-0.19,0.145,
4041,-0.165,0.14,
4042,-0.15,0.135,
4043,-0.17,0.125,
4044,-0.175,0.1,
4045,-0.165,0.105,
4046,-0.155,0.125,
4047,-0.135,0.12,
4048,-0.13,0.125,
4049,-0.13,0.12,
4050,-0.15,0.12,
4051,-0.155,0.115,
4052,-0.13,0.115,
4053,-0.115,0.13,
4054,-0.115,0.12,
4055,-0.13,0.11,
4056,-0.125,0.115,
4057,-0.145,0.105,
4058,-0.135,0.12,
4059,-0.11,0.13,
4060,-0.115,0.125,
4061,-0.105,0.115,
4062,-0.12,0.1,
4063,-0.125,0.11,
4064,-0.11,0.125,
4065,-0.085,0.13,
4066,-0.085,0.12,
4067,-0.08,0.115,
4068,-0.11,0.11,
4069,-0.1,0.1,
4070,-0.09,0.125,
4071,-0.075,0.12,
4072,-0.075,0.115,
4073,-0.08,0.105,
4074,-0.09,0.095,
4075,-0.085,0.095,
4076,-0.06,0.125,
4077,-0.055,0.125,
4078,-0.04,0.125,
4079,-0.045,0.11,
4080,-0.055,0.105,
4081,-0.055,0.09,
4082,-0.04,0.11,
4083,-0.02,0.125,
4084,-0.025,0.12,
4085,-0.015,0.095,
4086,-0.02,0.09,
4087,-0.03,0.095,
4088,-0.015,0.11,
4089,-0.005,0.12,
4090,0.015,0.105,
4091,0.015,0.095,
4092,0.015,0.09,
4093,0.015,0.095,
4094,0.015,0.11,
4095,0.055,0.125,
4096,0.07,0.11,
4097,0.065,0.095,
4098,0.065,0.085,
4099,0.065,0.105,
4100,0.09,0.105,
4101,0.105,0.115,
4102,0.14,0.115,
4103,0.12,0.09,
4104,0.135,0.08,
4105,0.12,0.09,
4106,0.155,0.095,
4107,0.165,0.115,
4108,0.19,0.1,
4109,0.2,0.095,
4110,0.195,0.08,
4111,0.2,0.08,
4112,0.25,0.1,
4113,0.265,0.105,
4114,0.295,0.095,
4115,0.3,0.085,
4116,0.325,0.07,
4117,0.345,0.08,
4118,0.385,0.09,
4119,0.415,0.085,
4120,0.44,0.085,
4121,0.48,0.075,
4122,0.485,0.07,
4123,0.5,0.065,
4124,0.54,0.075,
4125,0.58,0.08,
4126,0.615,0.075,
4127,0.64,0.06,
4128,0.65,0.06,
4129,0.67,0.05,
4130,0.705,0.07,
4131,0.735,0.065,
4132,0.77,0.065,
4133,0.78,0.045,
4134,0.795,0.03,
4135,0.805,0.035,
4136,0.835,0.045,
4137,0.875,0.06,
4138,0.915,0.05,
4139,0.925,0.055,
4140,0.92,0.035,
4141,0.91,0.045,
4142,0.925,0.07,
4143,0.93,0.09,
4144,0.9,0.08,
4145,0.855,0.09,
4146,0.83,0.085,
4147,0.77,0.085,
4148,0.735,0.1,
4149,0.7,0.12,
4150,0.65,0.11,
4151,0.585,0.105,
4152,0.505,0.1,
4153,0.44,0.1,
4154,0.395,0.115,
4155,0.34,0.12,
4156,0.27,0.135,
4157,0.2,0.12,
4158,0.135,0.12,
4159,0.075,0.12,
4160,0.035,0.13,
4161,0.005,0.145,
4162,-0.02,0.14,
4163,-0.065,0.12,
4164,-0.11,0.1,
4165,-0.14,0.115,
4166,-0.15,0.13,
4167,-0.16,0.13,
4168,-0.18,0.14,
4169,-0.21,0.125,
4170,-0.235,0.115,
4171,-0.24,0.12,
4172,-0.245,0.13,
4173,-0.235,0.155,
4174,-0.24,0.145,
4175,-0.25,0.135,
4176,-0.28,0.14,
4177,-0.275,0.125,
4178,-0.27,0.14,
4179,-0.26,0.155,
4180,-0.265,0.165,
4181,-0.28,0.14,
4182,-0.295,0.135,
4183,-0.295,0.135,
4184,-0.285,0.16,
4185,-0.28,0.165,
4186,-0.285,0.155,
4187,-0.285,0.145,
4188,-0.305,0.14,
4189,-0.305,0.15,
4190,-0.305,0.15,
4191,-0.29,0.17,
4192,-0.285,0.155,
4193,-0.295,0.145,
4194,-0.305,0.145,
4195,-0.315,0.155,
4196,-0.3,0.15,
4197,-0.285,0.165,
4198,-0.27,0.16,
4199,-0.29,0.16,
4200,-0.295,0.145,
4201,-0.3,0.16,
4202,-0.305,0.165,
4203,-0.285,0.175,
4204,-0.275,0.16,
4205,-0.275,0.155,
4206,-0.29,0.145,
4207,-0.29,0.145,
4208,-0.29,0.175,
4209,-0.275,0.17,
4210,-0.27,0.175,
4211,-0.285,0.17,
4212,-0.305,0.155,
4213,-0.29,0.155,
4214,-0.28,0.175,
4215,-0.27,0.195,
4216,-0.285,0.185,
4217,-0.28,0.17,
4218,-0.3,0.16,
4219,-0.295,0.17,
4220,-0.29,0.19,
4221,-0.27,0.19,
4222,-0.275,0.18,
4223,-0.285,0.18,
4224,-0.305,0.185,
4225,-0.305,0.19,
4226,-0.3,0.2,
4227,-0.28,0.205,
4228,-0.28,0.205,
4229,-0.295,0.19,
4230,-0.32,0.19,
4231,-0.325,0.19,
4232,-0.31,0.19,
4233,-0.3,0.21,
4234,-0.295,0.215,
4235,-0.305,0.19,
4236,-0.31,0.185,
4237,-0.32,0.195,
4238,-0.325,0.21,
4239,-0.32,0.23,
4240,-0.315,0.21,
4241,-0.315,0.21,
4242,-0.32,0.195,
4243,-0.345,0.195,
4244,-0.32,0.215,
4245,-0.315,0.23,
4246,-0.315,0.22,
4247,-0.325,0.205,
4248,-0.335,0.205,
4249,-0.34,0.205,
4250,-0.33,0.215,
4251,-0.31,0.225,
4252,-0.335,0.225,
4253,-0.335,0.22,
4254,-0.35,0.205,
4255,-0.355,0.22,
4256,-0.335,0.215,
4257,-0.335,0.245,
4258,-0.32,0.24,
4259,-0.33,0.22,
4260,-0.345,0.215,
4261,-0.35,0.215,
4262,-0.345,0.23,
4263,-0.335,0.245,
4264,-0.33,0.255,
4265,-0.34,0.235,
4266,-0.35,0.22,
4267,-0.34,0.22,
4268,-0.355,0.25,
4269,-0.33,0.26,
4270,-0.33,0.26,
4271,-0.34,0.245,
4272,-0.35,0.24,
4273,-0.36,0.24,
4274,-0.34,0.265,
4275,-0.34,0.265,
4276,-0.34,0.265,
4277,-0.335,0.245,
4278,-0.36,0.24,
4279,-0.36,0.25,
4280,-0.355,0.265,
4281,-0.335,0.295,
4282,-0.325,0.295,
4283,-0.34,0.285,
4284,-0.35,0.29,
4285,-0.34,0.305,
4286,-0.305,0.325,
4287,-0.29,0.345,
4288,-0.27,0.325,
4289,-0.28,0.295,
4290,-0.29,0.28,
4291,-0.29,0.275,
4292,-0.285,0.275,
4293,-0.26,0.27,
4294,-0.24,0.26,
4295,-0.24,0.25,
4296,-0.24,0.25,
4297,-0.23,0.26,
4298,-0.225,0.28,
4299,-0.21,0.29,
4300,-0.21,0.27,
4301,-0.24,0.27,
4302,-0.29,0.255,
4303,-0.29,0.29,
4304,-0.285,0.285,
4305,-0.28,0.31,
4306,-0.265,0.295,
4307,-0.275,0.29,
4308,-0.3,0.27,
4309,-0.32,0.27,
4310,-0.32,0.275,
4311,-0.32,0.29,
4312,-0.32,0.29,
4313,-0.355,0.275,
4314,-0.36,0.28,
4315,-0.34,0.285,
4316,-0.34,0.295,
4317,-0.33,0.315,
4318,-0.34,0.305,
4319,-0.335,0.295,
4320,-0.345,0.285,
4321,-0.345,0.29,
4322,-0.335,0.305,
4323,-0.32,0.315,
4324,-0.33,0.315,
4325,-0.33,0.305,
4326,-0.34,0.29,
4327,-0.345,0.3,
4328,-0.335,0.325,
4329,-0.32,0.335,
4330,-0.31,0.325,
4331,-0.315,0.33,
4332,-0.33,0.325,
4333,-0.325,0.35,
4334,-0.305,0.385,
4335,-0.3,0.415,
4336,-0.305,0.45,
4337,-0.32,0.485,
4338,-0.35,0.49,
4339,-0.395,0.515,
4340,-0.425,0.52,
4341,-0.44,0.505,
4342,-0.43,0.45,
4343,-0.39,0.365,
4344,-0.295,0.265,
4345,-0.075,0.175,
4346,0.255,0.075,
4347,0.71,0.01,
4348,1.16,-0.04,
4349,1.55,-0.04,
4350,1.83,-0.01,
4351,2.02,0.08,N
4352,2.08,0.17,
4353,1.975,0.27,
4354,1.575,0.31,
4355,0.935,0.305,
4356,0.295,0.285,
4357,-0.345,0.295,
4358,-0.66,0.34,
4359,-0.595,0.37,
4360,-0.5,0.395,
4361,-0.49,0.385,
4362,-0.535,0.37,
4363,-0.53,0.375,
4364,-0.51,0.385,
4365,-0.48,0.395,
4366,-0.47,0.395,
4367,-0.45,0.38,
4368,-0.405,0.385,
4369,-0.36,0.39,
4370,-0.325,0.405,
4371,-0.29,0.425,
4372,-0.3,0.415,
4373,-0.3,0.4,
4374,-0.31,0.385,
4375,-0.33,0.39,
4376,-0.305,0.405,
4377,-0.29,0.41,
4378,-0.295,0.4,
4379,-0.29,0.4,
4380,-0.3,0.395,
4381,-0.285,0.39,
4382,-0.285,0.405,
4383,-0.27,0.43,
4384,-0.265,0.415,
4385,-0.285,0.385,
4386,-0.295,0.39,
4387,-0.285,0.395,
4388,-0.27,0.42,
4389,-0.275,0.42,
4390,-0.265,0.425,
4391,-0.265,0.405,
4392,-0.285,0.4,
4393,-0.285,0.41,
4394,-0.26,0.415,
4395,-0.245,0.42,
4396,-0.23,0.42,
4397,-0.24,0.4,
4398,-0.265,0.4,
4399,-0.25,0.405,
4400,-0.26,0.425,
4401,-0.235,0.425,
4402,-0.235,0.43,
4403,-0.225,0.415,
4404,-0.245,0.405,
4405,-0.25,0.415,
4406,-0.235,0.425,
4407,-0.22,0.435,
4408,-0.215,0.42,
4409,-0.205,0.415,
4410,-0.21,0.41,
4411,-0.22,0.41,
4412,-0.205,0.425,
4413,-0.19,0.43,
4414,-0.18,0.435,
4415,-0.17,0.42,
4416,-0.2,0.415,
4417,-0.185,0.43,
4418,-0.185,0.425,
4419,-0.16,0.435,
4420,-0.15,0.435,
4421,-0.15,0.42,
4422,-0.155,0.41,
4423,-0.155,0.42,
4424,-0.14,0.435,
4425,-0.115,0.435,
4426,-0.1,0.435,
4427,-0.115,0.415,
4428,-0.12,0.415,
4429,-0.12,0.415,
4430,-0.115,0.43,
4431,-0.085,0.44,
4432,-0.065,0.445,
4433,-0.065,0.43,
4434,-0.065,0.42,
4435,-0.06,0.425,
4436,-0.045,0.435,
4437,-0.02,0.43,
4438,0.0,0.44,
4439,-0.005,0.425,
4440,0.01,0.415,
4441,0.015,0.43,
4442,0.035,0.44,
4443,0.05,0.45,
4444,0.07,0.435,
4445,0.08,0.425,
4446,0.09,0.415,
4447,0.11,0.41,
4448,0.135,0.415,
4449,0.165,0.445,
4450,0.19,0.43,
4451,0.21,0.42,
4452,0.21,0.42,
4453,0.245,0.42,
4454,0.27,0.43,
4455,0.31,0.425,
4456,0.34,0.42,
4457,0.38,0.415,
4458,0.385,0.4,
4459,0.405,0.405,
4460,0.435,0.43,
4461,0.47,0.445,
4462,0.53,0.42,
4463,0.56,0.4,
4464,0.57,0.39,
4465,0.605,0.395,
4466,0.645,0.415,
4467,0.68,0.435,
4468,0.715,0.42,
4469,0.735,0.4,
4470,0.735,0.395,
4471,0.755,0.395,
4472,0.8,0.41,
4473,0.825,0.42,
4474,0.86,0.425,
4475,0.845,0.405,
4476,0.845,0.415,
4477,0.83,0.42,
4478,0.815,0.44,
4479,0.81,0.455,
4480,0.78,0.455,
4481,0.72,0.445,
4482,0.655,0.43,
4483,0.595,0.455,
4484,0.525,0.46,
4485,0.475,0.49,
4486,0.405,0.47,
4487,0.33,0.47,
4488,0.245,0.465,
4489,0.165,0.47,
4490,0.11,0.485,
4491,0.06,0.49,
4492,0.015,0.49,
4493,-0.045,0.48,
4494,-0.095,0.465,
4495,-0.14,0.475,
4496,-0.185,0.485,
4497,-0.19,0.49,
4498,-0.22,0.49,
4499,-0.25,0.47,
4500,-0.29,0.445,
4501,-0.315,0.45,
4502,-0.315,0.485,
4503,-0.32,0.49,
4504,-0.325,0.48,
4505,-0.335,0.45,
4506,-0.375,0.445,
4507,-0.37,0.46,
4508,-0.37,0.465,
4509,-0.375,0.48,
4510,-0.37,0.475,
4511,-0.375,0.46,
4512,-0.395,0.45,
4513,-0.395,0.45,
4514,-0.39,0.48,
4515,-0.395,0.485,
4516,-0.39,0.485,
4517,-0.385,0.46,
4518,-0.4,0.455,
4519,-0.41,0.445,
4520,-0.4,0.465,
4521,-0.385,0.48,
4522,-0.375,0.47,
4523,-0.385,0.465,
4524,-0.39,0.46,
4525,-0.405,0.475,
4526,-0.4,0.47,
4527,-0.375,0.475,
4528,-0.38,0.485,
4529,-0.395,0.46,
4530,-0.385,0.46,
4531,-0.39,0.465,
4532,-0.385,0.47,
4533,-0.38,0.48,
4534,-0.37,0.485,
4535,-0.38,0.47,
4536,-0.385,0.47,
4537,-0.39,0.465,
4538,-0.375,0.48,
4539,-0.37,0.495,
4540,-0.36,0.48,
4541,-0.39,0.46,
4542,-0.39,0.46,
4543,-0.395,0.475,
4544,-0.375,0.48,
4545,-0.365,0.49,
4546,-0.36,0.475,
4547,-0.37,0.475,
4548,-0.38,0.465,
4549,-0.37,0.455,
4550,-0.375,0.47,
4551,-0.36,0.485,
4552,-0.355,0.475,
4553,-0.37,0.455,
4554,-0.375,0.465,
4555,-0.385,0.455,
4556,-0.385,0.46,
4557,-0.355,0.48,
4558,-0.365,0.485,
4559,-0.38,0.475,
4560,-0.405,0.445,
4561,-0.39,0.465,
4562,-0.39,0.48,
4563,-0.375,0.495,
4564,-0.385,0.485,
4565,-0.39,0.45,
4566,-0.405,0.45,
4567,-0.39,0.45,
4568,-0.39,0.485,
4569,-0.395,0.475,
4570,-0.38,0.47,
4571,-0.39,0.445,
4572,-0.405,0.45,
4573,-0.405,0.445,
4574,-0.395,0.47,
4575,-0.385,0.48,
4576,-0.385,0.465,
4577,-0.385,0.465,
4578,-0.405,0.44,
4579,-0.42,0.455,
4580,-0.415,0.46,
4581,-0.385,0.48,
4582,-0.375,0.465,
4583,-0.39,0.455,
4584,-0.41,0.445,
4585,-0.435,0.435,
4586,-0.415,0.455,
4587,-0.41,0.46,
4588,-0.385,0.45,
4589,-0.39,0.435,
4590,-0.41,0.435,
4591,-0.41,0.435,
4592,-0.4,0.45,
4593,-0.39,0.455,
4594,-0.395,0.45,
4595,-0.415,0.435,
4596,-0.43,0.435,
4597,-0.425,0.43,
4598,-0.42,0.445,
4599,-0.4,0.445,
4600,-0.395,0.445,
4601,-0.405,0.445,
4602,-0.42,0.425,
4603,-0.415,0.43,
4604,-0.425,0.435,
4605,-0.4,0.455,
4606,-0.4,0.45,
4607,-0.4,0.425,
4608,-0.41,0.415,
4609,-0.425,0.43,
4610,-0.395,0.43,
4611,-0.405,0.44,
4612,-0.385,0.445,
4613,-0.39,0.42,
4614,-0.4,0.415,
4615,-0.415,0.41,
4616,-0.395,0.425,
4617,-0.39,0.435,
4618,-0.385,0.43,
4619,-0.395,0.425,
4620,-0.42,0.405,
4621,-0.42,0.415,
4622,-0.405,0.425,
4623,-0.405,0.44,
4624,-0.4,0.435,
4625,-0.41,0.415,
4626,-0.41,0.395,
4627,-0.39,0.405,
4628,-0.395,0.43,
4629,-0.39,0.44,
4630,-0.385,0.43,
4631,-0.4,0.42,
4632,-0.395,0.415,
4633,-0.395,0.435,
4634,-0.385,0.45,
4635,-0.355,0.47,
4636,-0.34,0.475,
4637,-0.34,0.46,
4638,-0.335,0.455,
4639,-0.33,0.44,
4640,-0.33,0.44,
4641,-0.325,0.445,
4642,-0.32,0.435,
4643,-0.305,0.405,
4644,-0.31,0.39,
4645,-0.29,0.395,
4646,-0.295,0.41,
4647,-0.27,0.41,
4648,-0.25,0.405,
4649,-0.265,0.395,
4650,-0.285,0.38,
4651,-0.285,0.375,
4652,-0.285,0.4,
4653,-0.29,0.41,
4654,-0.295,0.395,
4655,-0.315,0.385,
4656,-0.335,0.375,
4657,-0.335,0.37,
4658,-0.36,0.38,
4659,-0.35,0.4,
4660,-0.355,0.385,
4661,-0.36,0.37,
4662,-0.39,0.365,
4663,-0.405,0.37,
4664,-0.38,0.385,
4665,-0.37,0.39,
4666,-0.375,0.385,
4667,-0.39,0.375,
4668,-0.4,0.375,
4669,-0.385,0.38,
4670,-0.37,0.385,
4671,-0.365,0.385,
4672,-0.365,0.385,
4673,-0.37,0.385,
4674,-0.38,0.365,
4675,-0.375,0.38,
4676,-0.36,0.385,
4677,-0.35,0.4,
4678,-0.35,0.38,
4679,-0.37,0.37,
4680,-0.36,0.365,
4681,-0.35,0.38,
4682,-0.34,0.395,
4683,-0.315,0.435,
4684,-0.315,0.475,
4685,-0.325,0.495,
4686,-0.35,0.525,
4687,-0.38,0.55,
4688,-0.39,0.58,
4689,-0.41,0.585,
4690,-0.425,0.555,
4691,-0.43,0.485,
4692,-0.405,0.39,
4693,-0.295,0.285,
4694,-0.06,0.185,
4695,0.31,0.075,
4696,0.825,-0.04,
4697,1.335,-0.08,
4698,1.75,-0.035,
4699,2.02,0.065,N
4700,2.13,0.195,
4701,1.99,0.295,
4702,1.51,0.325,
4703,0.87,0.315,
4704,0.23,0.295,
4705,-0.41,0.325,
4706,-0.68,0.35,
4707,-0.54,0.39,
4708,-0.47,0.39,
4709,-0.48,0.38,
4710,-0.51,0.355,
4711,-0.51,0.37,
4712,-0.48,0.38,
4713,-0.425,0.4,
4714,-0.39,0.395,
4715,-0.35,0.375,
4716,-0.32,0.37,
4717,-0.285,0.365,
4718,-0.285,0.385,
4719,-0.27,0.395,
4720,-0.275,0.385,
4721,-0.265,0.375,
4722,-0.285,0.365,
4723,-0.285,0.365,
4724,-0.295,0.38,
4725,-0.26,0.385,
4726,-0.25,0.385,
4727,-0.26,0.365,
4728,-0.27,0.35,
4729,-0.26,0.365,
4730,-0.26,0.365,
4731,-0.24,0.37,
4732,-0.24,0.37,
4733,-0.245,0.36,
4734,-0.24,0.35,
4735,-0.245,0.35,
4736,-0.235,0.365,
4737,-0.225,0.385,
4738,-0.225,0.365,
4739,-0.245,0.355,
4740,-0.24,0.335,
4741,-0.235,0.35,
4742,-0.24,0.345,
4743,-0.225,0.355,
4744,-0.21,0.35,
4745,-0.215,0.345,
4746,-0.22,0.33,
4747,-0.23,0.34,
4748,-0.22,0.34,
4749,-0.205,0.35,
4750,-0.19,0.345,
4751,-0.195,0.33,
4752,-0.205,0.325,
4753,-0.215,0.32,
4754,-0.19,0.345,
4755,-0.18,0.345,
4756,-0.165,0.355,
4757,-0.185,0.325,
4758,-0.18,0.315,
4759,-0.18,0.315,
4760,-0.17,0.33,
4761,-0.16,0.335,
4762,-0.14,0.33,
4763,-0.155,0.32,
4764,-0.155,0.305,
4765,-0.16,0.31,
4766,-0.14,0.33,
4767,-0.12,0.335,
4768,-0.11,0.315,
4769,-0.11,0.305,
4770,-0.13,0.29,
4771,-0.13,0.3,
4772,-0.105,0.315,
4773,-0.08,0.315,
4774,-0.075,0.305,
4775,-0.08,0.31,
4776,-0.075,0.295,
4777,-0.075,0.295,
4778,-0.05,0.305,
4779,-0.025,0.305,
4780,-0.015,0.295,
4781,-0.01,0.28,
4782,-0.01,0.27,
4783,0.005,0.28,
4784,0.025,0.28,
4785,0.05,0.29,
4786,0.065,0.285,
4787,0.07,0.27,
4788,0.075,0.27,
4789,0.08,0.27,
4790,0.105,0.28,
4791,0.13,0.29,
4792,0.14,0.28,
4793,0.165,0.255,
4794,0.175,0.25,
4795,0.18,0.26,
4796,0.215,0.26,
4797,0.25,0.27,
4798,0.275,0.26,
4799,0.3,0.25,
4800,0.31,0.235,
4801,0.325,0.235,
4802,0.37,0.255,
4803,0.41,0.255,
4804,0.445,0.24,
4805,0.47,0.245,
4806,0.48,0.235,
4807,0.515,0.23,
4808,0.535,0.24,
4809,0.575,0.235,
4810,0.625,0.25,
4811,0.635,0.23,
4812,0.64,0.21,
4813,0.67,0.215,
4814,0.7,0.225,
4815,0.73,0.225,
4816,0.765,0.225,
4817,0.79,0.21,
4818,0.775,0.2,
4819,0.805,0.205,
4820,0.825,0.225,
4821,0.845,0.23,
4822,0.85,0.23,
4823,0.83,0.225,
4824,0.8,0.21,
4825,0.77,0.23,
4826,0.755,0.24,
4827,0.72,0.25,
4828,0.685,0.245,
4829,0.62,0.23,
4830,0.555,0.235,
4831,0.495,0.25,
4832,0.425,0.25,
4833,0.385,0.275,
4834,0.32,0.25,
4835,0.245,0.24,
4836,0.17,0.225,
4837,0.12,0.24,
4838,0.05,0.25,
4839,0.035,0.265,
4840,-0.015,0.26,
4841,-0.065,0.245,
4842,-0.115,0.235,
4843,-0.145,0.235,
4844,-0.17,0.245,
4845,-0.175,0.255,
4846,-0.21,0.24,
4847,-0.235,0.235,
4848,-0.265,0.22,
4849,-0.275,0.235,
4850,-0.295,0.24,
4851,-0.29,0.25,
4852,-0.295,0.24,
4853,-0.315,0.23,
4854,-0.325,0.21,
4855,-0.345,0.215,
4856,-0.335,0.22,
4857,-0.33,0.245,
4858,-0.33,0.25,
4859,-0.34,0.215,
4860,-0.36,0.2,
4861,-0.36,0.21,
4862,-0.36,0.225,
4863,-0.345,0.235,
4864,-0.35,0.24,
4865,-0.355,0.215,
4866,-0.365,0.2,
4867,-0.385,0.205,
4868,-0.375,0.22,
4869,-0.34,0.23,
4870,-0.35,0.23,
4871,-0.355,0.215,
4872,-0.355,0.19,
4873,-0.375,0.205,
4874,-0.35,0.215,
4875,-0.35,0.225,
4876,-0.34,0.22,
4877,-0.35,0.205,
4878,-0.35,0.2,
4879,-0.37,0.2,
4880,-0.34,0.215,
4881,-0.335,0.22,
4882,-0.335,0.215,
4883,-0.33,0.21,
4884,-0.35,0.195,
4885,-0.34,0.21,
4886,-0.34,0.205,
4887,-0.33,0.225,
4888,-0.325,0.205,
4889,-0.34,0.2,
4890,-0.36,0.19,
4891,-0.355,0.2,
4892,-0.355,0.22,
4893,-0.33,0.22,
4894,-0.33,0.205,
4895,-0.34,0.2,
4896,-0.35,0.195,
4897,-0.355,0.205,
4898,-0.335,0.205,
4899,-0.325,0.22,
4900,-0.32,0.205,
4901,-0.34,0.195,
4902,-0.36,0.195,
4903,-0.35,0.2,
4904,-0.335,0.2,
4905,-0.325,0.2,
4906,-0.325,0.2,
4907,-0.335,0.185,
4908,-0.345,0.175,
4909,-0.35,0.185,
4910,-0.34,0.19,
4911,-0.34,0.19,
4912,-0.33,0.18,
4913,-0.35,0.18,
4914,-0.365,0.165,
4915,-0.365,0.18,
4916,-0.36,0.195,
4917,-0.355,0.2,
4918,-0.35,0.185,
4919,-0.36,0.175,
4920,-0.36,0.17,
4921,-0.37,0.175,
4922,-0.365,0.19,
4923,-0.365,0.2,
4924,-0.365,0.18,
4925,-0.36,0.17,
4926,-0.36,0.15,
4927,-0.37,0.16,
4928,-0.37,0.18,
4929,-0.355,0.195,
4930,-0.375,0.175,
4931,-0.375,0.16,
4932,-0.38,0.15,
4933,-0.39,0.15,
4934,-0.375,0.175,
4935,-0.36,0.17,
4936,-0.35,0.175,
4937,-0.365,0.15,
4938,-0.37,0.145,
4939,-0.385,0.15,
4940,-0.38,0.155,
4941,-0.355,0.17,
4942,-0.365,0.16,
4943,-0.365,0.145,
4944,-0.375,0.13,
4945,-0.395,0.15,
4946,-0.385,0.16,
4947,-0.38,0.155,
4948,-0.36,0.155,
4949,-0.365,0.15,
4950,-0.375,0.135,
4951,-0.385,0.14,
4952,-0.395,0.15,
4953,-0.385,0.15,
4954,-0.36,0.155,
4955,-0.38,0.135,
4956,-0.39,0.12,
4957,-0.385,0.13,
4958,-0.375,0.145,
4959,-0.37,0.16,
4960,-0.375,0.155,
4961,-0.39,0.135,
4962,-0.385,0.11,
4963,-0.39,0.125,
4964,-0.38,0.135,
4965,-0.365,0.14,
4966,-0.355,0.145,
4967,-0.38,0.13,
4968,-0.38,0.115,
4969,-0.39,0.12,
4970,-0.375,0.125,
4971,-0.37,0.14,
4972,-0.36,0.12,
4973,-0.375,0.115,
4974,-0.37,0.1,
4975,-0.38,0.13,
4976,-0.375,0.125,
4977,-0.365,0.14,
4978,-0.36,0.12,
4979,-0.375,0.115,
4980,-0.385,0.1,
4981,-0.39,0.11,
4982,-0.375,0.125,
4983,-0.36,0.13,
4984,-0.36,0.125,
4985,-0.36,0.105,
4986,-0.37,0.095,
4987,-0.38,0.095,
4988,-0.375,0.115,
4989,-0.365,0.12,
4990,-0.36,0.12,
4991,-0.365,0.1,
4992,-0.37,0.1,
4993,-0.38,0.095,
4994,-0.37,0.115,
4995,-0.36,0.11,
4996,-0.34,0.115,
4997,-0.36,0.1,
4998,-0.39,0.085,
4999,-0.39,0.095,
5000,-0.37,0.11,
5001,-0.37,0.115,
5002,-0.36,0.105,
5003,-0.365,0.095,
5004,-0.38,0.09,
5005,-0.37,0.09,
5006,-0.36,0.105,
5007,-0.355,0.11,
5008,-0.35,0.105,
5009,-0.37,0.1,
5010,-0.39,0.08,
5011,-0.385,0.095,
5012,-0.375,0.1,
5013,-0.35,0.105,
5014,-0.345,0.105,
5015,-0.35,0.085,
5016,-0.36,0.085,
5017,-0.365,0.08,
5018,-0.35,0.095,
5019,-0.34,0.11,
5020,-0.335,0.105,
5021,-0.335,0.095,
5022,-0.355,0.08,
5023,-0.365,0.105,
5024,-0.335,0.11,
5025,-0.325,0.13,
5026,-0.31,0.13,
5027,-0.315,0.125,
5028,-0.325,0.1,
5029,-0.31,0.105,
5030,-0.29,0.1,
5031,-0.26,0.105,
5032,-0.27,0.09,
5033,-0.285,0.075,
5034,-0.29,0.05,
5035,-0.28,0.05,
5036,-0.255,0.05,
5037,-0.24,0.065,
5038,-0.25,0.06,
5039,-0.275,0.05,
5040,-0.285,0.035,
5041,-0.29,0.055,
5042,-0.285,0.065,
5043,-0.255,0.075,
5044,-0.27,0.065,
5045,-0.275,0.055,
5046,-0.315,0.05,
5047,-0.32,0.055,
5048,-0.325,0.075,
5049,-0.305,0.07,
5050,-0.32,0.065,
5051,-0.33,0.05,
5052,-0.34,0.045,
5053,-0.34,0.03,
5054,-0.34,0.055,
5055,-0.325,0.07,
5056,-0.315,0.055,
5057,-0.325,0.06,
5058,-0.33,0.04,
5059,-0.34,0.05,
5060,-0.325,0.06,
5061,-0.32,0.065,
5062,-0.31,0.065,
5063,-0.31,0.05,
5064,-0.33,0.035,
5065,-0.33,0.04,
5066,-0.32,0.055,
5067,-0.295,0.07,
5068,-0.295,0.07,
5069,-0.295,0.06,
5070,-0.3,0.085,
5071,-0.295,0.125,
5072,-0.29,0.195,
5073,-0.3,0.235,
5074,-0.345,0.265,
5075,-0.375,0.245,
5076,-0.41,0.2,
5077,-0.41,0.12,
5078,-0.355,0.045,
5079,-0.19,-0.095,
5080,0.15,-0.255,
5081,0.635,-0.39,
5082,1.185,-0.45,
5083,1.665,-0.4,
5084,2.005,-0.3,
5085,2.14,-0.17,N
5086,1.995,-0.06,
5087,1.535,-0.03,
5088,0.895,-0.045,
5089,0.255,-0.055,
5090,-0.385,-0.005,
5091,-0.625,0.025,
5092,-0.48,0.055,
5093,-0.415,0.04,
5094,-0.445,0.03,
5095,-0.47,0.025,
5096,-0.46,0.04,
5097,-0.425,0.05,
5098,-0.385,0.05,
5099,-0.345,0.06,
5100,-0.32,0.04,
5101,-0.28,0.045,
5102,-0.25,0.05,
5103,-0.24,0.08,
5104,-0.245,0.06,
5105,-0.25,0.04,
5106,-0.28,0.03,
5107,-0.265,0.03,
5108,-0.255,0.05,
5109,-0.245,0.065,
5110,-0.225,0.05,
5111,-0.235,0.03,
5112,-0.24,0.025,
5113,-0.24,0.035,
5114,-0.225,0.05,
5115,-0.22,0.045,
5116,-0.21,0.045,
5117,-0.225,0.035,
5118,-0.23,0.02,
5119,-0.235,0.03,
5120,-0.215,0.045,
5121,-0.215,0.045,
5122,-0.2,0.03,
5123,-0.2,0.025,
5124,-0.215,0.01,
5125,-0.215,0.02,
5126,-0.21,0.035,
5127,-0.205,0.045,
5128,-0.185,0.045,
5129,-0.2,0.025,
5130,-0.205,0.015,
5131,-0.21,0.015,
5132,-0.195,0.025,
5133,-0.19,0.04,
5134,-0.17,0.035,
5135,-0.18,0.015,
5136,-0.18,0.01,
5137,-0.195,0.005,
5138,-0.175,0.03,
5139,-0.15,0.03,
5140,-0.145,0.025,
5141,-0.16,0.01,
5142,-0.17,0.0,
5143,-0.17,0.015,
5144,-0.15,0.02,
5145,-0.14,0.035,
5146,-0.125,0.015,
5147,-0.13,0.005,
5148,-0.145,0.0,
5149,-0.14,0.005,
5150,-0.125,0.02,
5151,-0.11,0.035,
5152,-0.105,0.015,
5153,-0.1,0.0,
5154,-0.12,-0.01,
5155,-0.105,0.0,
5156,-0.095,0.0,
5157,-0.075,0.02,
5158,-0.08,0.015,
5159,-0.065,0.005,
5160,-0.065,-0.01,
5161,-0.07,-0.005,
5162,-0.05,0.015,
5163,-0.02,0.01,
5164,-0.02,0.01,
5165,-0.015,-0.015,
5166,-0.015,-0.005,
5167,-0.01,-0.015,
5168,0.01,0.0,
5169,0.025,0.005,
5170,0.045,-0.01,
5171,0.04,-0.02,
5172,0.045,-0.035,
5173,0.055,-0.025,
5174,0.085,-0.02,
5175,0.12,-0.005,
5176,0.13,-0.01,
5177,0.135,-0.03,
5178,0.12,-0.045,
5179,0.14,-0.03,
5180,0.185,-0.02,
5181,0.22,-0.015,
5182,0.235,-0.03,
5183,0.25,-0.045,
5184,0.265,-0.045,
5185,0.3,-0.05,
5186,0.335,-0.035,
5187,0.375,-0.02,
5188,0.405,-0.04,
5189,0.425,-0.05,
5190,0.445,-0.055,
5191,0.455,-0.06,
5192,0.51,-0.045,
5193,0.545,-0.03,
5194,0.58,-0.05,
5195,0.605,-0.065,
5196,0.615,-0.07,
5197,0.65,-0.065,
5198,0.69,-0.06,
5199,0.72,-0.065,
5200,0.75,-0.065,
5201,0.755,-0.075,
5202,0.76,-0.08,
5203,0.785,-0.08,
5204,0.8,-0.07,
5205,0.835,-0.06,
5206,0.85,-0.065,
5207,0.84,-0.07,
5208,0.805,-0.08,
5209,0.795,-0.055,
5210,0.75,-0.05,
5211,0.76,-0.035,
5212,0.72,-0.04,
5213,0.665,-0.045,
5214,0.58,-0.045,
5215,0.535,-0.04,
5216,0.48,-0.03,
5217,0.42,-0.015,
5218,0.355,-0.015,
5219,0.285,-0.03,
5220,0.185,-0.035,
5221,0.125,-0.035,
5222,0.075,-0.03,
5223,0.03,-0.025,
5224,-0.02,-0.025,
5225,-0.085,-0.035,
5226,-0.135,-0.055,
5227,-0.165,-0.035,
5228,-0.18,-0.04,
5229,-0.195,-0.025,
5230,-0.205,-0.03,
5231,-0.245,-0.045,
5232,-0.275,-0.05,
5233,-0.29,-0.04,
5234,-0.305,-0.025,
5235,-0.29,-0.025,
5236,-0.285,-0.035,
5237,-0.3,-0.035,
5238,-0.325,-0.06,
5239,-0.335,-0.06,
5240,-0.335,-0.04,
5241,-0.335,-0.04,
5242,-0.32,-0.04,
5243,-0.34,-0.05,
5244,-0.35,-0.06,
5245,-0.355,-0.055,
5246,-0.34,-0.04,
5247,-0.345,-0.03,
5248,-0.335,-0.04,
5249,-0.36,-0.06,
5250,-0.36,-0.055,
5251,-0.36,-0.07,
5252,-0.355,-0.045,
5253,-0.345,-0.015,
5254,-0.355,-0.025,
5255,-0.35,-0.04,
5256,-0.365,-0.06,
5257,-0.37,-0.06,
5258,-0.365,-0.045,
5259,-0.33,-0.03,
5260,-0.34,-0.045,
5261,-0.355,-0.05,
5262,-0.365,-0.07,
5263,-0.36,-0.065,
5264,-0.37,-0.04,
5265,-0.355,-0.03,
5266,-0.365,-0.03,
5267,-0.355,-0.045,
5268,-0.36,-0.065,
5269,-0.36,-0.055,
5270,-0.36,-0.045,
5271,-0.345,-0.04,
5272,-0.34,-0.04,
5273,-0.36,-0.065,
5274,-0.365,-0.055,
5275,-0.375,-0.05,
5276,-0.36,-0.045,
5277,-0.345,-0.035,
5278,-0.335,-0.04,
5279,-0.35,-0.05,
5280,-0.37,-0.06,
5281,-0.375,-0.06,
5282,-0.35,-0.05,
5283,-0.36,-0.04,
5284,-0.345,-0.05,
5285,-0.355,-0.04,
5286,-0.38,-0.07,
5287,-0.375,-0.055,
5288,-0.355,-0.055,
5289,-0.36,-0.05,
5290,-0.34,-0.055,
5291,-0.36,-0.065,
5292,-0.37,-0.075,
5293,-0.38,-0.07,
5294,-0.37,-0.06,
5295,-0.35,-0.06,
5296,-0.36,-0.075,
5297,-0.37,-0.08,
5298,-0.395,-0.085,
5299,-0.405,-0.07,
5300,-0.375,-0.07,
5301,-0.36,-0.055,
5302,-0.35,-0.075,
5303,-0.37,-0.08,
5304,-0.38,-0.085,
5305,-0.39,-0.07,
5306,-0.375,-0.065,
5307,-0.36,-0.065,
5308,-0.365,-0.07,
5309,-0.375,-0.09,
5310,-0.38,-0.075,
5311,-0.4,-0.09,
5312,-0.375,-0.07,
5313,-0.375,-0.065,
5314,-0.37,-0.075,
5315,-0.39,-0.09,
5316,-0.405,-0.09,
5317,-0.41,-0.08,
5318,-0.4,-0.07,
5319,-0.38,-0.055,
5320,-0.365,-0.07,
5321,-0.385,-0.09,
5322,-0.385,-0.11,
5323,-0.4,-0.09,
5324,-0.395,-0.075,
5325,-0.38,-0.065,
5326,-0.38,-0.075,
5327,-0.385,-0.085,
5328,-0.42,-0.11,
5329,-0.41,-0.105,
5330,-0.4,-0.085,
5331,-0.385,-0.08,
5332,-0.385,-0.075,
5333,-0.395,-0.1,
5334,-0.395,-0.1,
5335,-0.41,-0.09,
5336,-0.39,-0.07,
5337,-0.385,-0.07,
5338,-0.375,-0.075,
5339,-0.385,-0.09,
5340,-0.4,-0.1,
5341,-0.405,-0.09,
5342,-0.39,-0.08,
5343,-0.39,-0.06,
5344,-0.385,-0.065,
5345,-0.39,-0.095,
5346,-0.41,-0.1,
5347,-0.42,-0.085,
5348,-0.405,-0.085,
5349,-0.39,-0.075,
5350,-0.395,-0.075,
5351,-0.41,-0.095,
5352,-0.415,-0.1,
5353,-0.405,-0.095,
5354,-0.41,-0.085,
5355,-0.39,-0.085,
5356,-0.39,-0.09,
5357,-0.4,-0.095,
5358,-0.41,-0.105,
5359,-0.42,-0.095,
5360,-0.415,-0.085,
5361,-0.39,-0.085,
5362,-0.375,-0.085,
5363,-0.38,-0.09,
5364,-0.395,-0.105,
5365,-0.385,-0.105,
5366,-0.38,-0.1,
5367,-0.37,-0.085,
5368,-0.375,-0.08,
5369,-0.375,-0.1,
5370,-0.4,-0.11,
5371,-0.4,-0.11,
5372,-0.39,-0.105,
5373,-0.375,-0.095,
5374,-0.385,-0.1,
5375,-0.39,-0.105,
5376,-0.4,-0.105,
5377,-0.395,-0.1,
5378,-0.385,-0.075,
5379,-0.385,-0.075,
5380,-0.375,-0.085,
5381,-0.39,-0.1,
5382,-0.42,-0.105,
5383,-0.395,-0.105,
5384,-0.395,-0.105,
5385,-0.37,-0.095,
5386,-0.375,-0.085,
5387,-0.375,-0.09,
5388,-0.4,-0.105,
5389,-0.395,-0.09,
5390,-0.385,-0.075,
5391,-0.36,-0.045,
5392,-0.36,-0.065,
5393,-0.355,-0.065,
5394,-0.355,-0.075,
5395,-0.365,-0.065,
5396,-0.325,-0.07,
5397,-0.32,-0.06,
5398,-0.31,-0.07,
5399,-0.305,-0.085,
5400,-0.325,-0.105,
5401,-0.32,-0.1,
5402,-0.31,-0.105,
5403,-0.28,-0.115,
5404,-0.285,-0.115,
5405,-0.29,-0.135,
5406,-0.315,-0.125,
5407,-0.315,-0.12,
5408,-0.31,-0.11,
5409,-0.295,-0.1,
5410,-0.285,-0.11,
5411,-0.305,-0.13,
5412,-0.335,-0.125,
5413,-0.34,-0.11,
5414,-0.335,-0.11,
5415,-0.34,-0.09,
5416,-0.345,-0.1,
5417,-0.355,-0.125,
5418,-0.36,-0.125,
5419,-0.375,-0.12,
5420,-0.37,-0.115,
5421,-0.355,-0.1,
5422,-0.34,-0.11,
5423,-0.355,-0.105,
5424,-0.37,-0.12,
5425,-0.375,-0.115,
5426,-0.375,-0.105,
5427,-0.355,-0.095,
5428,-0.34,-0.1,
5429,-0.355,-0.105,
5430,-0.37,-0.11,
5431,-0.39,-0.11,
5432,-0.36,-0.105,
5433,-0.355,-0.08,
5434,-0.335,-0.09,
5435,-0.335,-0.085,
5436,-0.34,-0.09,
5437,-0.335,-0.05,
5438,-0.325,-0.005,
5439,-0.315,0.035,
5440,-0.335,0.075,
5441,-0.38,0.09,
5442,-0.435,0.075,
5443,-0.46,0.05,
5444,-0.46,0.015,
5445,-0.41,-0.03,
5446,-0.31,-0.14,
5447,-0.125,-0.27,
5448,0.19,-0.375,
5449,0.655,-0.48,
5450,1.175,-0.5,
5451,1.62,-0.465,
5452,1.92,-0.395,
5453,2.025,-0.305,N
5454,1.945,-0.225,
5455,1.62,-0.155,
5456,1.01,-0.135,
5457,0.37,-0.125,
5458,-0.27,-0.125,
5459,-0.66,-0.13,
5460,-0.635,-0.13,
5461,-0.535,-0.105,
5462,-0.495,-0.095,
5463,-0.495,-0.07,
5464,-0.505,-0.085,
5465,-0.525,-0.095,
5466,-0.51,-0.115,
5467,-0.495,-0.095,
5468,-0.45,-0.085,
5469,-0.39,-0.06,
5470,-0.325,-0.075,
5471,-0.3,-0.095,
5472,-0.3,-0.105,
5473,-0.305,-0.1,
5474,-0.305,-0.09,
5475,-0.29,-0.075,
5476,-0.285,-0.075,
5477,-0.285,-0.1,
5478,-0.29,-0.11,
5479,-0.3,-0.08,
5480,-0.29,-0.09,
5481,-0.265,-0.065,
5482,-0.26,-0.09,
5483,-0.27,-0.09,
5484,-0.26,-0.1,
5485,-0.27,-0.09,
5486,-0.26,-0.075,
5487,-0.25,-0.075,
5488,-0.23,-0.085,
5489,-0.23,-0.11,
5490,-0.24,-0.115,
5491,-0.25,-0.105,
5492,-0.24,-0.09,
5493,-0.21,-0.085,
5494,-0.21,-0.085,
5495,-0.215,-0.1,
5496,-0.225,-0.11,
5497,-0.23,-0.09,
5498,-0.215,-0.09,
5499,-0.21,-0.075,
5500,-0.215,-0.09,
5501,-0.225,-0.115,
5502,-0.21,-0.12,
5503,-0.21,-0.1,
5504,-0.19,-0.1,
5505,-0.185,-0.09,
5506,-0.19,-0.095,
5507,-0.19,-0.11,
5508,-0.185,-0.13,
5509,-0.195,-0.12,
5510,-0.175,-0.1,
5511,-0.16,-0.085,
5512,-0.165,-0.1,
5513,-0.165,-0.1,
5514,-0.16,-0.12,
5515,-0.155,-0.12,
5516,-0.145,-0.105,
5517,-0.135,-0.085,
5518,-0.135,-0.11,
5519,-0.125,-0.12,
5520,-0.12,-0.12,
5521,-0.13,-0.12,
5522,-0.105,-0.1,
5523,-0.095,-0.1,
5524,-0.085,-0.11,
5525,-0.075,-0.125,
5526,-0.08,-0.13,
5527,-0.08,-0.115,
5528,-0.06,-0.11,
5529,-0.035,-0.105,
5530,-0.015,-0.12,
5531,-0.02,-0.13,
5532,-0.015,-0.135,
5533,0.0,-0.135,
5534,0.025,-0.115,
5535,0.04,-0.1,
5536,0.07,-0.115,
5537,0.065,-0.135,
5538,0.075,-0.145,
5539,0.095,-0.13,
5540,0.13,-0.115,
5541,0.15,-0.11,
5542,0.18,-0.135,
5543,0.195,-0.145,
5544,0.195,-0.155,
5545,0.22,-0.155,
5546,0.265,-0.13,
5547,0.31,-0.13,
5548,0.33,-0.15,
5549,0.365,-0.16,
5550,0.375,-0.175,
5551,0.4,-0.155,
5552,0.43,-0.145,
5553,0.475,-0.14,
5554,0.52,-0.155,
5555,0.545,-0.17,
5556,0.555,-0.175,
5557,0.58,-0.185,
5558,0.615,-0.16,
5559,0.655,-0.155,
5560,0.685,-0.165,
5561,0.71,-0.185,
5562,0.72,-0.195,
5563,0.745,-0.185,
5564,0.765,-0.175,
5565,0.8,-0.16,
5566,0.81,-0.165,
5567,0.8,-0.165,
5568,0.79,-0.165,
5569,0.77,-0.145,
5570,0.755,-0.135,
5571,0.73,-0.115,
5572,0.69,-0.125,
5573,0.635,-0.135,
5574,0.545,-0.135,
5575,0.495,-0.12,
5576,0.43,-0.11,
5577,0.375,-0.09,
5578,0.295,-0.105,
5579,0.21,-0.115,
5580,0.145,-0.115,
5581,0.07,-0.11,
5582,0.0,-0.095,
5583,-0.035,-0.085,
5584,-0.08,-0.095,
5585,-0.13,-0.11,
5586,-0.18,-0.115,
5587,-0.23,-0.115,
5588,-0.24,-0.105,
5589,-0.245,-0.085,
5590,-0.25,-0.09,
5591,-0.285,-0.1,
5592,-0.305,-0.115,
5593,-0.325,-0.11,
5594,-0.32,-0.105,
5595,-0.32,-0.095,
5596,-0.32,-0.1,
5597,-0.36,-0.105,
5598,-0.38,-0.115,
5599,-0.37,-0.1,
5600,-0.38,-0.085,
5601,-0.37,-0.085,
5602,-0.36,-0.095,
5603,-0.37,-0.11,
5604,-0.38,-0.12,
5605,-0.39,-0.105,
5606,-0.38,-0.095,
5607,-0.365,-0.09,
5608,-0.36,-0.09,
5609,-0.375,-0.105,
5610,-0.375,-0.12,
5611,-0.395,-0.115,
5612,-0.39,-0.095,
5613,-0.375,-0.09,
5614,-0.375,-0.09,
5615,-0.38,-0.105,
5616,-0.39,-0.125,
5617,-0.39,-0.1,
5618,-0.395,-0.1,
5619,-0.355,-0.09,
5620,-0.355,-0.095,
5621,-0.36,-0.1,
5622,-0.38,-0.105,
5623,-0.38,-0.105,
5624,-0.36,-0.09,
5625,-0.35,-0.085,
5626,-0.335,-0.095,
5627,-0.355,-0.115,
5628,-0.36,-0.11,
5629,-0.37,-0.095,
5630,-0.35,-0.08,
5631,-0.345,-0.095,
5632,-0.34,-0.095,
5633,-0.35,-0.105,
5634,-0.36,-0.125,
5635,-0.37,-0.115,
5636,-0.355,-0.095,
5637,-0.34,-0.09,
5638,-0.335,-0.1,
5639,-0.34,-0.1,
5640,-0.36,-0.105,
5641,-0.37,-0.11,
5642,-0.38,-0.095,
5643,-0.36,-0.08,
5644,-0.345,-0.09,
5645,-0.355,-0.1,
5646,-0.38,-0.115,
5647,-0.375,-0.105,
5648,-0.375,-0.1,
5649,-0.365,-0.075,
5650,-0.36,-0.085,
5651,-0.37,-0.095,
5652,-0.39,-0.11,
5653,-0.395,-0.115,
5654,-0.385,-0.105,
5655,-0.365,-0.1,
5656,-0.36,-0.105,
5657,-0.38,-0.11,
5658,-0.39,-0.125,
5659,-0.39,-0.11,
5660,-0.39,-0.09,
5661,-0.365,-0.08,
5662,-0.36,-0.095,
5663,-0.365,-0.115,
5664,-0.375,-0.115,
5665,-0.39,-0.115,
5666,-0.375,-0.11,
5667,-0.37,-0.09,
5668,-0.365,-0.1,
5669,-0.385,-0.11,
5670,-0.395,-0.12,
5671,-0.4,-0.125,
5672,-0.385,-0.115,
5673,-0.375,-0.095,
5674,-0.385,-0.1,
5675,-0.375,-0.115,
5676,-0.395,-0.12,
5677,-0.39,-0.115,
5678,-0.395,-0.095,
5679,-0.38,-0.09,
5680,-0.375,-0.105,
5681,-0.41,-0.12,
5682,-0.405,-0.13,
5683,-0.4,-0.125,
5684,-0.385,-0.115,
5685,-0.375,-0.1,
5686,-0.38,-0.1,
5687,-0.39,-0.11,
5688,-0.4,-0.125,
5689,-0.4,-0.11,
5690,-0.39,-0.11,
5691,-0.375,-0.1,
5692,-0.385,-0.1,
5693,-0.385,-0.12,
5694,-0.4,-0.125,
5695,-0.395,-0.115,
5696,-0.39,-0.105,
5697,-0.37,-0.1,
5698,-0.37,-0.115,
5699,-0.385,-0.135,
5700,-0.405,-0.13,
5701,-0.4,-0.125,
5702,-0.38,-0.115,
5703,-0.375,-0.095,
5704,-0.38,-0.1,
5705,-0.37,-0.11,
5706,-0.405,-0.125,
5707,-0.41,-0.12,
5708,-0.39,-0.1,
5709,-0.365,-0.085,
5710,-0.355,-0.08,
5711,-0.355,-0.07,
5712,-0.365,-0.075,
5713,-0.36,-0.055,
5714,-0.34,-0.05,
5715,-0.31,-0.05,
5716,-0.3,-0.08,
5717,-0.315,-0.11,
5718,-0.325,-0.11,
5719,-0.32,-0.115,
5720,-0.305,-0.12,
5721,-0.285,-0.11,
5722,-0.27,-0.12,
5723,-0.27,-0.125,
5724,-0.275,-0.14,
5725,-0.29,-0.125,
5726,-0.275,-0.12,
5727,-0.29,-0.1,
5728,-0.29,-0.115,
5729,-0.32,-0.12,
5730,-0.34,-0.125,
5731,-0.335,-0.12,
5732,-0.335,-0.105,
5733,-0.33,-0.1,
5734,-0.34,-0.12,
5735,-0.36,-0.13,
5736,-0.385,-0.145,
5737,-0.38,-0.135,
5738,-0.4,-0.12,
5739,-0.38,-0.11,
5740,-0.39,-0.115,
5741,-0.39,-0.13,
5742,-0.385,-0.125,
5743,-0.41,-0.13,
5744,-0.395,-0.115,
5745,-0.365,-0.105,
5746,-0.365,-0.115,
5747,-0.37,-0.125,
5748,-0.38,-0.135,
5749,-0.385,-0.135,
5750,-0.375,-0.115,
5751,-0.365,-0.11,
5752,-0.355,-0.115,
5753,-0.365,-0.13,
5754,-0.38,-0.135,
5755,-0.36,-0.12,
5756,-0.355,-0.095,
5757,-0.335,-0.075,
5758,-0.34,-0.04,
5759,-0.325,-0.02,
5760,-0.36,0.015,
5761,-0.395,0.06,
5762,-0.415,0.095,
5763,-0.435,0.1,
5764,-0.46,0.065,
5765,-0.46,0.01,
5766,-0.45,-0.075,
5767,-0.355,-0.16,
5768,-0.14,-0.255,
5769,0.215,-0.35,
5770,0.715,-0.47,
5771,1.215,-0.52,
5772,1.64,-0.5,
5773,1.91,-0.41,
5774,2.035,-0.305,N
5775,1.92,-0.205,
5776,1.46,-0.15,
5777,0.82,-0.17,
5778,0.18,-0.185,
5779,-0.46,-0.16,
5780,-0.7,-0.11,
5781,-0.555,-0.08,
5782,-0.47,-0.075,
5783,-0.485,-0.085,
5784,-0.53,-0.1,
5785,-0.535,-0.095,
5786,-0.51,-0.09,
5787,-0.465,-0.075,
5788,-0.415,-0.07,
5789,-0.375,-0.08,
5790,-0.345,-0.1,
5791,-0.32,-0.09,
5792,-0.305,-0.075,
5793,-0.3,-0.08,
5794,-0.295,-0.08,
5795,-0.295,-0.095,
5796,-0.31,-0.1,
5797,-0.315,-0.1,
5798,-0.315,-0.08,
5799,-0.28,-0.075,
5800,-0.27,-0.095,
5801,-0.28,-0.09,
5802,-0.3,-0.105,
5803,-0.295,-0.09,
5804,-0.29,-0.085,
5805,-0.265,-0.085,
5806,-0.26,-0.09,
5807,-0.27,-0.09,
5808,-0.285,-0.095,
5809,-0.285,-0.1,
5810,-0.275,-0.085,
5811,-0.25,-0.055,
5812,-0.245,-0.075,
5813,-0.245,-0.085,
5814,-0.255,-0.1,
5815,-0.255,-0.1,
5816,-0.265,-0.085,
5817,-0.235,-0.07,
5818,-0.225,-0.075,
5819,-0.245,-0.09,
5820,-0.235,-0.09,
5821,-0.235,-0.08,
5822,-0.23,-0.085,
5823,-0.22,-0.075,
5824,-0.195,-0.075,
5825,-0.2,-0.09,
5826,-0.205,-0.095,
5827,-0.22,-0.1,
5828,-0.21,-0.07,
5829,-0.2,-0.075,
5830,-0.19,-0.085,
5831,-0.19,-0.1,
5832,-0.205,-0.105,
5833,-0.19,-0.08,
5834,-0.19,-0.085,
5835,-0.17,-0.08,
5836,-0.155,-0.085,
5837,-0.155,-0.105,
5838,-0.17,-0.105,
5839,-0.165,-0.1,
5840,-0.155,-0.095,
5841,-0.13,-0.07,
5842,-0.12,-0.075,
5843,-0.11,-0.09,
5844,-0.145,-0.105,
5845,-0.125,-0.095,
5846,-0.095,-0.095,
5847,-0.08,-0.085,
5848,-0.07,-0.08,
5849,-0.07,-0.1,
5850,-0.075,-0.105,
5851,-0.06,-0.095,
5852,-0.035,-0.1,
5853,0.0,-0.085,
5854,0.005,-0.105,
5855,0.015,-0.1,
5856,0.02,-0.11,
5857,0.04,-0.115,
5858,0.06,-0.1,
5859,0.095,-0.085,
5860,0.1,-0.105,
5861,0.135,-0.115,
5862,0.135,-0.125,
5863,0.145,-0.125,
5864,0.195,-0.105,
5865,0.225,-0.105,
5866,0.26,-0.11,
5867,0.295,-0.125,
5868,0.29,-0.145,
5869,0.325,-0.14,
5870,0.385,-0.125,
5871,0.42,-0.115,
5872,0.445,-0.125,
5873,0.46,-0.145,
5874,0.475,-0.16,
5875,0.515,-0.15,
5876,0.555,-0.145,
5877,0.605,-0.14,
5878,0.62,-0.145,
5879,0.65,-0.155,
5880,0.665,-0.17,
5881,0.685,-0.165,
5882,0.72,-0.15,
5883,0.765,-0.15,
5884,0.775,-0.155,
5885,0.78,-0.17,
5886,0.785,-0.165,
5887,0.78,-0.15,
5888,0.79,-0.14,
5889,0.775,-0.14,
5890,0.75,-0.135,
5891,0.705,-0.14,
5892,0.65,-0.14,
5893,0.595,-0.13,
5894,0.55,-0.11,
5895,0.49,-0.095,
5896,0.435,-0.1,
5897,0.36,-0.1,
5898,0.275,-0.125,
5899,0.21,-0.115,
5900,0.145,-0.09,
5901,0.105,-0.085,
5902,0.055,-0.09,
5903,-0.02,-0.1,
5904,-0.065,-0.105,
5905,-0.12,-0.105,
5906,-0.155,-0.075,
5907,-0.175,-0.08,
5908,-0.2,-0.1,
5909,-0.23,-0.11,
5910,-0.27,-0.12,
5911,-0.3,-0.11,
5912,-0.305,-0.09,
5913,-0.305,-0.08,
5914,-0.325,-0.09,
5915,-0.34,-0.105,
5916,-0.37,-0.105,
5917,-0.375,-0.11,
5918,-0.375,-0.095,
5919,-0.36,-0.09,
5920,-0.365,-0.105,
5921,-0.375,-0.115,
5922,-0.385,-0.11,
5923,-0.405,-0.105,
5924,-0.39,-0.095,
5925,-0.385,-0.08,
5926,-0.385,-0.085,
5927,-0.405,-0.095,
5928,-0.41,-0.11,
5929,-0.415,-0.1,
5930,-0.41,-0.09,
5931,-0.395,-0.075,
5932,-0.395,-0.075,
5933,-0.405,-0.09,
5934,-0.41,-0.095,
5935,-0.41,-0.095,
5936,-0.395,-0.085,
5937,-0.4,-0.07,
5938,-0.385,-0.09,
5939,-0.385,-0.09,
5940,-0.395,-0.105,
5941,-0.41,-0.09,
5942,-0.395,-0.08,
5943,-0.375,-0.075,
5944,-0.385,-0.08,
5945,-0.375,-0.09,
5946,-0.395,-0.095,
5947,-0.405,-0.09,
5948,-0.385,-0.085,
5949,-0.375,-0.065,
5950,-0.36,-0.07,
5951,-0.375,-0.085,
5952,-0.38,-0.105,
5953,-0.385,-0.08,
5954,-0.38,-0.08,
5955,-0.38,-0.065,
5956,-0.375,-0.085,
5957,-0.385,-0.095,
5958,-0.395,-0.095,
5959,-0.395,-0.09,
5960,-0.4,-0.075,
5961,-0.375,-0.07,
5962,-0.365,-0.08,
5963,-0.37,-0.095,
5964,-0.39,-0.105,
5965,-0.39,-0.095,
5966,-0.395,-0.08,
5967,-0.39,-0.075,
5968,-0.375,-0.08,
5969,-0.385,-0.09,
5970,-0.41,-0.1,
5971,-0.405,-0.095,
5972,-0.405,-0.085,
5973,-0.4,-0.065,
5974,-0.395,-0.085,
5975,-0.385,-0.095,
5976,-0.41,-0.1,
5977,-0.4,-0.095,
5978,-0.405,-0.08,
5979,-0.39,-0.075,
5980,-0.39,-0.085,
5981,-0.38,-0.11,
5982,-0.405,-0.1,
5983,-0.4,-0.09,
5984,-0.405,-0.085,
5985,-0.385,-0.07,
5986,-0.39,-0.075,
5987,-0.395,-0.09,
5988,-0.405,-0.1,
5989,-0.415,-0.09,
5990,-0.41,-0.07,
5991,-0.4,-0.075,
5992,-0.39,-0.08,
5993,-0.405,-0.09,
5994,-0.425,-0.1,
5995,-0.415,-0.095,
5996,-0.42,-0.08,
5997,-0.4,-0.07,
5998,-0.4,-0.075,
5999,-0.415,-0.095,
6000,-0.42,-0.085,
6001,-0.42,-0.095,
6002,-0.415,-0.065,
6003,-0.395,-0.065,
6004,-0.395,-0.075,
6005,-0.41,-0.08,
6006,-0.415,-0.105,
6007,-0.415,-0.085,
6008,-0.4,-0.07,
6009,-0.385,-0.07,
6010,-0.395,-0.075,
6011,-0.4,-0.09,
6012,-0.41,-0.095,
6013,-0.425,-0.095,
6014,-0.41,-0.08,
6015,-0.4,-0.065,
6016,-0.415,-0.07,
6017,-0.415,-0.08,
6018,-0.43,-0.1,
6019,-0.435,-0.085,
6020,-0.42,-0.08,
6021,-0.415,-0.065,
6022,-0.41,-0.07,
6023,-0.41,-0.085,
6024,-0.435,-0.095,
6025,-0.43,-0.085,
6026,-0.415,-0.08,
6027,-0.41,-0.07,
6028,-0.4,-0.075,
6029,-0.41,-0.09,
6030,-0.415,-0.095,
6031,-0.415,-0.1,
6032,-0.405,-0.07,
6033,-0.39,-0.06,
6034,-0.39,-0.065,
6035,-0.42,-0.09,
6036,-0.415,-0.1,
6037,-0.415,-0.095,
6038,-0.41,-0.08,
6039,-0.415,-0.075,
6040,-0.415,-0.08,
6041,-0.395,-0.095,
6042,-0.405,-0.095,
6043,-0.405,-0.1,
6044,-0.405,-0.075,
6045,-0.41,-0.07,
6046,-0.385,-0.09,
6047,-0.395,-0.095,
6048,-0.4,-0.1,
6049,-0.415,-0.085,
6050,-0.415,-0.08,
6051,-0.39,-0.075,
6052,-0.385,-0.065,
6053,-0.4,-0.1,
6054,-0.405,-0.1,
6055,-0.415,-0.085,
6056,-0.405,-0.08,
6057,-0.405,-0.065,
6058,-0.4,-0.075,
6059,-0.4,-0.095,
6060,-0.415,-0.105,
6061,-0.44,-0.105,
6062,-0.415,-0.075,
6063,-0.4,-0.06,
6064,-0.39,-0.08,
6065,-0.42,-0.085,
6066,-0.415,-0.1,
6067,-0.41,-0.105,
6068,-0.4,-0.09,
6069,-0.405,-0.08,
6070,-0.395,-0.08,
6071,-0.405,-0.095,
6072,-0.41,-0.11,
6073,-0.425,-0.1,
6074,-0.41,-0.095,
6075,-0.395,-0.075,
6076,-0.39,-0.08,
6077,-0.395,-0.095,
6078,-0.4,-0.1,
6079,-0.4,-0.095,
6080,-0.405,-0.08,
6081,-0.405,-0.07,
6082,-0.385,-0.08,
6083,-0.41,-0.1,
6084,-0.4,-0.095,
6085,-0.415,-0.09,
6086,-0.405,-0.085,
6087,-0.39,-0.07,
6088,-0.385,-0.075,
6089,-0.4,-0.09,
6090,-0.405,-0.1,
6091,-0.4,-0.08,
6092,-0.395,-0.085,
6093,-0.38,-0.075,
6094,-0.37,-0.065,
6095,-0.375,-0.075,
6096,-0.385,-0.08,
6097,-0.385,-0.06,
6098,-0.37,-0.04,
6099,-0.335,-0.03,
6100,-0.33,-0.05,
6101,-0.33,-0.075,
6102,-0.325,-0.09,
6103,-0.335,-0.085,
6104,-0.34,-0.1,
6105,-0.32,-0.1,
6106,-0.305,-0.11,
6107,-0.315,-0.125,
6108,-0.335,-0.125,
6109,-0.345,-0.11,
6110,-0.34,-0.095,
6111,-0.315,-0.08,
6112,-0.295,-0.095,
6113,-0.325,-0.1,
6114,-0.345,-0.1,
6115,-0.355,-0.095,
6116,-0.365,-0.085,
6117,-0.36,-0.075,
6118,-0.37,-0.08,
6119,-0.38,-0.09,
6120,-0.385,-0.115,
6121,-0.395,-0.105,
6122,-0.385,-0.08,
6123,-0.38,-0.07,
6124,-0.375,-0.08,
6125,-0.375,-0.085,
6126,-0.39,-0.115,
6127,-0.38,-0.09,
6128,-0.375,-0.08,
6129,-0.365,-0.07,
6130,-0.35,-0.07,
6131,-0.35,-0.075,
6132,-0.37,-0.09,
6133,-0.37,-0.09,
6134,-0.365,-0.07,
6135,-0.34,-0.045,
6136,-0.335,-0.06,
6137,-0.34,-0.04,
6138,-0.365,-0.01,
6139,-0.355,0.03,
6140,-0.365,0.09,
6141,-0.36,0.14,
6142,-0.405,0.15,
6143,-0.45,0.115,
6144,-0.475,0.07,
6145,-0.47,0.0,
6146,-0.37,-0.09,
6147,-0.185,-0.2,
6148,0.135,-0.34,
6149,0.55,-0.46,
6150,1.04,-0.525,
6151,1.5,-0.5,
6152,1.85,-0.4,
6153,2.01,-0.29,N
6154,1.965,-0.205,
6155,1.615,-0.15,
6156,0.975,-0.16,
6157,0.335,-0.16,
6158,-0.305,-0.135,
6159,-0.72,-0.095,
6160,-0.605,-0.065,
6161,-0.5,-0.06,
6162,-0.51,-0.085,
6163,-0.525,-0.07,
6164,-0.535,-0.06,
6165,-0.505,-0.04,
6166,-0.455,-0.045,
6167,-0.43,-0.04,
6168,-0.38,-0.055,
6169,-0.345,-0.055,
6170,-0.32,-0.035,
6171,-0.315,-0.04,
6172,-0.31,-0.04,
6173,-0.325,-0.05,
6174,-0.335,-0.055,
6175,-0.335,-0.05,
6176,-0.325,-0.035,
6177,-0.305,-0.04,
6178,-0.295,-0.04,
6179,-0.305,-0.045,
6180,-0.33,-0.055,
6181,-0.335,-0.04,
6182,-0.315,-0.04,
6183,-0.305,-0.025,
6184,-0.3,-0.04,
6185,-0.315,-0.035,
6186,-0.315,-0.05,
6187,-0.305,-0.045,
6188,-0.295,-0.04,
6189,-0.28,-0.025,
6190,-0.275,-0.04,
6191,-0.305,-0.045,
6192,-0.295,-0.065,
6193,-0.295,-0.05,
6194,-0.295,-0.04,
6195,-0.275,-0.035,
6196,-0.27,-0.04,
6197,-0.285,-0.07,
6198,-0.29,-0.06,
6199,-0.29,-0.05,
6200,-0.28,-0.035,
6201,-0.25,-0.04,
6202,-0.245,-0.03,
6203,-0.25,-0.055,
6204,-0.265,-0.055,
6205,-0.255,-0.055,
6206,-0.245,-0.055,
6207,-0.22,-0.025,
6208,-0.225,-0.035,
6209,-0.23,-0.045,
6210,-0.25,-0.06,
6211,-0.245,-0.045,
6212,-0.22,-0.04,
6213,-0.2,-0.035,
6214,-0.19,-0.05,
6215,-0.215,-0.06,
6216,-0.215,-0.06,
6217,-0.21,-0.05,
6218,-0.19,-0.045,
6219,-0.165,-0.035,
6220,-0.165,-0.04,
6221,-0.17,-0.055,
6222,-0.19,-0.06,
6223,-0.18,-0.055,
6224,-0.175,-0.035,
6225,-0.135,-0.025,
6226,-0.14,-0.04,
6227,-0.125,-0.05,
6228,-0.14,-0.065,
6229,-0.14,-0.05,
6230,-0.105,-0.035,
6231,-0.1,-0.035,
6232,-0.08,-0.045,
6233,-0.08,-0.06,
6234,-0.07,-0.06,
6235,-0.08,-0.06,
6236,-0.04,-0.05,
6237,-0.02,-0.05,
6238,0.0,-0.045,
6239,0.005,-0.06,
6240,0.0,-0.065,
6241,0.02,-0.07,
6242,0.04,-0.06,
6243,0.08,-0.045,
6244,0.1,-0.05,
6245,0.11,-0.065,
6246,0.11,-0.07,
6247,0.125,-0.065,
6248,0.17,-0.05,
6249,0.195,-0.055,
6250,0.225,-0.04,
6251,0.24,-0.065,
6252,0.26,-0.07,
6253,0.27,-0.075,
6254,0.305,-0.07,
6255,0.345,-0.05,
6256,0.375,-0.07,
6257,0.395,-0.085,
6258,0.41,-0.09,
6259,0.43,-0.08,
6260,0.465,-0.075,
6261,0.515,-0.065,
6262,0.54,-0.08,
6263,0.545,-0.1,
6264,0.565,-0.105,
6265,0.57,-0.1,
6266,0.605,-0.095,
6267,0.655,-0.075,
6268,0.68,-0.085,
6269,0.69,-0.095,
6270,0.7,-0.105,
6271,0.7,-0.1,
6272,0.72,-0.08,
6273,0.735,-0.065,
6274,0.765,-0.075,
6275,0.745,-0.085,
6276,0.715,-0.095,
6277,0.685,-0.065,
6278,0.65,-0.065,
6279,0.635,-0.05,
6280,0.605,-0.055,
6281,0.55,-0.065,
6282,0.48,-0.07,
6283,0.43,-0.06,
6284,0.37,-0.05,
6285,0.33,-0.045,
6286,0.265,-0.04,
6287,0.2,-0.045,
6288,0.115,-0.065,
6289,0.06,-0.055,
6290,0.025,-0.035,
6291,-0.02,-0.025,
6292,-0.06,-0.045,
6293,-0.105,-0.055,
6294,-0.155,-0.055,
6295,-0.215,-0.055,
6296,-0.23,-0.05,
6297,-0.24,-0.025,
6298,-0.265,-0.04,
6299,-0.285,-0.06,
6300,-0.315,-0.06,
6301,-0.335,-0.06,
6302,-0.35,-0.04,
6303,-0.35,-0.025,
6304,-0.37,-0.035,
6305,-0.38,-0.045,
6306,-0.4,-0.065,
6307,-0.41,-0.06,
6308,-0.405,-0.06,
6309,-0.395,-0.04,
6310,-0.41,-0.055,
6311,-0.42,-0.06,
6312,-0.43,-0.06,
6313,-0.44,-0.055,
6314,-0.43,-0.05,
6315,-0.42,-0.035,
6316,-0.425,-0.035,
6317,-0.445,-0.06,
6318,-0.455,-0.06,
6319,-0.44,-0.06,
6320,-0.43,-0.045,
6321,-0.42,-0.03,
6322,-0.42,-0.04,
6323,-0.425,-0.055,
6324,-0.45,-0.065,
6325,-0.45,-0.045,
6326,-0.43,-0.035,
6327,-0.43,-0.03,
6328,-0.425,-0.05,
6329,-0.435,-0.055,
6330,-0.45,-0.065,
6331,-0.445,-0.05,
6332,-0.445,-0.04,
6333,-0.435,-0.035,
6334,-0.43,-0.025,
6335,-0.445,-0.055,
6336,-0.45,-0.055,
6337,-0.445,-0.045,
6338,-0.43,-0.03,
6339,-0.43,-0.02,
6340,-0.43,-0.03,
6341,-0.44,-0.055,
6342,-0.445,-0.05,
6343,-0.445,-0.06,
6344,-0.44,-0.035,
6345,-0.43,-0.03,
6346,-0.43,-0.035,
6347,-0.435,-0.055,
6348,-0.455,-0.055,
6349,-0.445,-0.05,
6350,-0.435,-0.04,
6351,-0.425,-0.025,
6352,-0.415,-0.04,
6353,-0.435,-0.05,
6354,-0.455,-0.055,
6355,-0.465,-0.05,
6356,-0.445,-0.035,
6357,-0.435,-0.03,
6358,-0.435,-0.04,
6359,-0.44,-0.055,
6360,-0.45,-0.06,
6361,-0.45,-0.06,
6362,-0.445,-0.045,
6363,-0.44,-0.025,
6364,-0.44,-0.045,
6365,-0.445,-0.065,
6366,-0.475,-0.065,
6367,-0.47,-0.055,
6368,-0.455,-0.04,
6369,-0.45,-0.04,
6370,-0.45,-0.04,
6371,-0.445,-0.06,
6372,-0.48,-0.065,
6373,-0.48,-0.07,
6374,-0.465,-0.04,
6375,-0.465,-0.05,
6376,-0.455,-0.045,
6377,-0.475,-0.06,
6378,-0.485,-0.06,
6379,-0.485,-0.055,
6380,-0.47,-0.04,
6381,-0.46,-0.035,
6382,-0.46,-0.035,
6383,-0.46,-0.06,
6384,-0.465,-0.06,
6385,-0.46,-0.06,
6386,-0.465,-0.05,
6387,-0.455,-0.055,
6388,-0.45,-0.045,
6389,-0.45,-0.06,
6390,-0.475,-0.065,
6391,-0.485,-0.06,
6392,-0.465,-0.045,
6393,-0.455,-0.045,
6394,-0.455,-0.06,
6395,-0.47,-0.065,
6396,-0.485,-0.065,
6397,-0.475,-0.065,
6398,-0.475,-0.045,
6399,-0.46,-0.045,
6400,-0.455,-0.05,
6401,-0.48,-0.065,
6402,-0.49,-0.08,
6403,-0.48,-0.07,
6404,-0.47,-0.06,
6405,-0.465,-0.045,
6406,-0.465,-0.07,
6407,-0.46,-0.065,
6408,-0.47,-0.075,
6409,-0.475,-0.065,
6410,-0.475,-0.06,
6411,-0.455,-0.04,
6412,-0.455,-0.055,
6413,-0.47,-0.06,
6414,-0.485,-0.08,
6415,-0.47,-0.07,
6416,-0.48,-0.055,
6417,-0.455,-0.05,
6418,-0.455,-0.06,
6419,-0.465,-0.07,
6420,-0.48,-0.08,
6421,-0.48,-0.06,
6422,-0.47,-0.05,
6423,-0.47,-0.04,
6424,-0.46,-0.05,
6425,-0.47,-0.065,
6426,-0.485,-0.07,
6427,-0.485,-0.065,
6428,-0.475,-0.065,
6429,-0.46,-0.04,
6430,-0.46,-0.05,
6431,-0.465,-0.065,
6432,-0.48,-0.07,
6433,-0.5,-0.055,
6434,-0.475,-0.06,
6435,-0.475,-0.05,
6436,-0.475,-0.06,
6437,-0.475,-0.065,
6438,-0.475,-0.075,
6439,-0.465,-0.065,
6440,-0.465,-0.06,
6441,-0.455,-0.055,
6442,-0.455,-0.045,
6443,-0.465,-0.065,
6444,-0.48,-0.08,
6445,-0.48,-0.065,
6446,-0.475,-0.045,
6447,-0.475,-0.045,
6448,-0.47,-0.05,
6449,-0.465,-0.065,
6450,-0.47,-0.065,
6451,-0.48,-0.065,
6452,-0.465,-0.055,
6453,-0.45,-0.045,
6454,-0.455,-0.04,
6455,-0.455,-0.055,
6456,-0.465,-0.065,
6457,-0.46,-0.055,
6458,-0.455,-0.045,
6459,-0.44,-0.04,
6460,-0.445,-0.055,
6461,-0.445,-0.06,
6462,-0.465,-0.065,
6463,-0.455,-0.055,
6464,-0.465,-0.05,
6465,-0.445,-0.04,
6466,-0.445,-0.05,
6467,-0.45,-0.055,
6468,-0.46,-0.08,
6469,-0.475,-0.07,
6470,-0.455,-0.05,
6471,-0.44,-0.035,
6472,-0.44,-0.04,
6473,-0.455,-0.06,
6474,-0.475,-0.065,
6475,-0.475,-0.065,
6476,-0.47,-0.05,
6477,-0.445,-0.035,
6478,-0.45,-0.04,
6479,-0.445,-0.055,
6480,-0.465,-0.07,
6481,-0.475,-0.05,
6482,-0.455,-0.05,
6483,-0.44,-0.045,
6484,-0.44,-0.045,
6485,-0.45,-0.055,
6486,-0.45,-0.065,
6487,-0.47,-0.06,
6488,-0.445,-0.045,
6489,-0.43,-0.045,
6490,-0.435,-0.04,
6491,-0.455,-0.055,
6492,-0.455,-0.05,
6493,-0.465,-0.055,
6494,-0.44,-0.035,
6495,-0.435,-0.045,
6496,-0.43,-0.05,
6497,-0.44,-0.06,
6498,-0.46,-0.065,
6499,-0.455,-0.055,
6500,-0.435,-0.05,
6501,-0.425,-0.05,
6502,-0.435,-0.04,
6503,-0.44,-0.06,
6504,-0.47,-0.05,
6505,-0.46,-0.05,
6506,-0.445,-0.045,
6507,-0.425,-0.04,
6508,-0.425,-0.035,
6509,-0.44,-0.06,
6510,-0.455,-0.065,
6511,-0.465,-0.06,
6512,-0.44,-0.025,
6513,-0.435,-0.035,
6514,-0.43,-0.025,
6515,-0.42,-0.035,
6516,-0.44,-0.05,
6517,-0.445,-0.03,
6518,-0.42,-0.02,
6519,-0.41,0.015,
6520,-0.405,0.005,
6521,-0.395,-0.005,
6522,-0.4,-0.02,
6523,-0.39,-0.025,
6524,-0.375,-0.01,
6525,-0.365,-0.005,
6526,-0.355,-0.015,
6527,-0.36,-0.04,
6528,-0.375,-0.055,
6529,-0.375,-0.06,
6530,-0.36,-0.06,
6531,-0.36,-0.06,
6532,-0.35,-0.065,
6533,-0.345,-0.085,
6534,-0.365,-0.075,
6535,-0.39,-0.065,
6536,-0.37,-0.055,
6537,-0.34,-0.045,
6538,-0.335,-0.04,
6539,-0.36,-0.065,
6540,-0.37,-0.06,
6541,-0.39,-0.065,
6542,-0.375,-0.045,
6543,-0.365,-0.035,
6544,-0.38,-0.04,
6545,-0.4,-0.06,
6546,-0.425,-0.06,
6547,-0.425,-0.06,
6548,-0.41,-0.045,
6549,-0.4,-0.03,
6550,-0.405,-0.03,
6551,-0.415,-0.055,
6552,-0.415,-0.06,
6553,-0.42,-0.05,
6554,-0.41,-0.035,
6555,-0.39,-0.02,
6556,-0.385,-0.04,
6557,-0.395,-0.065,
6558,-0.4,-0.05,
6559,-0.42,-0.05,
6560,-0.38,-0.04,
6561,-0.38,-0.02,
6562,-0.375,-0.03,
6563,-0.38,-0.04,
6564,-0.395,-0.045,
6565,-0.395,-0.05,
6566,-0.38,-0.005,
6567,-0.355,0.015,
6568,-0.35,0.04,
6569,-0.36,0.075,
6570,-0.395,0.11,
6571,-0.415,0.165,
6572,-0.445,0.185,
6573,-0.46,0.205,
6574,-0.485,0.17,
6575,-0.485,0.12,
6576,-0.48,0.045,
6577,-0.4,-0.045,
6578,-0.24,-0.14,
6579,0.035,-0.23,
6580,0.445,-0.34,
6581,0.895,-0.435,
6582,1.33,-0.475,
6583,1.72,-0.425,
6584,1.975,-0.34,
6585,2.1,-0.24,N
6586,2.035,-0.15,
6587,1.72,-0.115,
6588,1.16,-0.1,
6589,0.52,-0.11,
6590,-0.12,-0.095,
6591,-0.605,-0.075,
6592,-0.64,-0.055,
6593,-0.575,-0.05,
6594,-0.545,-0.04,
6595,-0.57,-0.025,
6596,-0.565,-0.005,
6597,-0.55,0.0,
6598,-0.515,-0.01,
6599,-0.52,-0.01,
6600,-0.49,-0.02,
6601,-0.45,0.015,
6602,-0.395,0.015,
6603,-0.345,0.025,
6604,-0.325,0.01,
6605,-0.31,-0.005,
6606,-0.33,-0.005,
6607,-0.325,-0.005,
6608,-0.32,0.02,
6609,-0.305,0.02,
6610,-0.295,0.02,
6611,-0.31,0.0,
6612,-0.3,-0.015,
6613,-0.32,0.0,
6614,-0.29,0.0,
6615,-0.275,0.02,
6616,-0.285,0.01,
6617,-0.3,-0.01,
6618,-0.29,-0.01,
6619,-0.3,0.0,
6620,-0.3,0.005,
6621,-0.27,0.025,
6622,-0.265,0.015,
6623,-0.265,0.0,
6624,-0.29,-0.005,
6625,-0.29,0.01,
6626,-0.27,0.01,
6627,-0.26,0.025,
6628,-0.255,0.02,
6629,-0.27,0.01,
6630,-0.27,-0.005,
6631,-0.26,0.0,
6632,-0.26,0.01,
6633,-0.235,0.03,
6634,-0.235,0.015,
6635,-0.24,0.01,
6636,-0.255,-0.005,
6637,-0.255,0.005,
6638,-0.23,0.025,
6639,-0.22,0.02,
6640,-0.23,0.015,
6641,-0.23,-0.005,
6642,-0.23,-0.005,
6643,-0.23,0.005,
6644,-0.22,0.02,
6645,-0.21,0.015,
6646,-0.2,0.02,
6647,-0.205,0.005,
6648,-0.215,-0.005,
6649,-0.215,0.0,
6650,-0.185,0.01,
6651,-0.185,0.02,
6652,-0.175,0.015,
6653,-0.185,0.0,
6654,-0.19,-0.01,
6655,-0.175,0.0,
6656,-0.16,0.01,
6657,-0.145,0.02,
6658,-0.135,0.01,
6659,-0.15,-0.005,
6660,-0.155,-0.01,
6661,-0.155,-0.005,
6662,-0.145,0.015,
6663,-0.12,0.02,
6664,-0.105,0.005,
6665,-0.115,-0.015,
6666,-0.11,-0.015,
6667,-0.095,0.0,
6668,-0.075,0.005,
6669,-0.055,0.02,
6670,-0.05,0.015,
6671,-0.05,0.005,
6672,-0.055,0.0,
6673,-0.045,0.005,
6674,-0.03,0.005,
6675,-0.015,0.02,
6676,0.01,0.01,
6677,0.025,-0.01,
6678,0.03,-0.015,
6679,0.03,-0.005,
6680,0.05,0.01,
6681,0.07,0.01,
6682,0.095,0.005,
6683,0.105,0.0,
6684,0.13,-0.01,
6685,0.155,-0.01,
6686,0.185,0.0,
6687,0.225,0.0,
6688,0.24,0.01,
6689,0.26,-0.025,
6690,0.275,-0.03,
6691,0.295,-0.01,
6692,0.33,-0.005,
6693,0.37,0.0,
6694,0.395,-0.01,
6695,0.41,-0.03,
6696,0.425,-0.04,
