,V5,MLII,symbol
0,-0.045,0.015,
1,-0.045,0.015,
2,-0.045,0.015,
3,-0.045,0.015,
4,-0.045,0.015,
5,-0.045,0.015,
6,-0.045,0.015,
7,-0.045,0.015,
8,-0.045,0.015,
9,-0.045,0.04,
10,-0.01,0.065,
11,0.0,0.07,
12,-0.015,0.075,
13,-0.025,0.08,
14,-0.01,0.105,
15,0.0,0.135,
16,0.02,0.16,
17,0.02,0.16,
18,0.01,0.165,
19,-0.005,0.17,
20,0.0,0.205,
21,-0.005,0.21,+
22,0.0,0.225,
23,0.005,0.22,
24,-0.01,0.21,
25,-0.04,0.185,
26,-0.045,0.19,
27,-0.055,0.195,
28,-0.045,0.195,
29,-0.065,0.18,
30,-0.075,0.145,
31,-0.1,0.125,
32,-0.11,0.115,
33,-0.125,0.13,
34,-0.105,0.125,
35,-0.13,0.1,
36,-0.145,0.075,
37,-0.155,0.055,
38,-0.175,0.06,
39,-0.165,0.06,
40,-0.165,0.06,
41,-0.175,0.05,
42,-0.18,0.02,
43,-0.2,0.025,
44,-0.225,0.02,
45,-0.21,0.025,
46,-0.205,0.04,
47,-0.225,0.02,
48,-0.22,0.015,
49,-0.235,-0.005,
50,-0.235,0.0,
51,-0.225,0.015,
52,-0.23,0.025,
53,-0.215,0.02,
54,-0.215,0.015,
55,-0.255,-0.005,
56,-0.245,0.0,
57,-0.24,0.005,
58,-0.24,0.015,
59,-0.235,0.005,
60,-0.245,0.0,
61,-0.26,-0.005,
62,-0.245,0.0,
63,-0.245,0.01,
64,-0.23,0.02,
65,-0.23,-0.01,
66,-0.23,-0.02,
67,-0.245,-0.02,
68,-0.25,-0.03,
69,-0.235,0.0,
70,-0.23,0.01,
71,-0.235,-0.01,
72,-0.235,-0.02,
73,-0.26,-0.035,
74,-0.27,-0.025,
75,-0.255,-0.025,
76,-0.23,-0.005,
77,-0.235,-0.01,
78,-0.23,-0.025,
79,-0.255,-0.04,
80,-0.255,-0.03,
81,-0.255,-0.015,
82,-0.24,-0.025,
83,-0.235,-0.02,
84,-0.25,-0.04,
85,-0.26,-0.04,
86,-0.26,-0.035,
87,-0.26,-0.025,
88,-0.24,-0.015,
89,-0.225,-0.03,
90,-0.235,-0.04,
91,-0.255,-0.045,
92,-0.255,-0.025,
93,-0.245,-0.02,
94,-0.225,-0.005,
95,-0.235,-0.01,
96,-0.235,-0.025,
97,-0.25,-0.035,
98,-0.26,-0.02,
99,-0.24,-0.005,
100,-0.215,-0.005,
101,-0.22,-0.01,
102,-0.235,-0.015,
103,-0.245,-0.02,
104,-0.235,-0.015,
105,-0.235,0.0,
106,-0.23,0.005,
107,-0.225,-0.005,
108,-0.23,-0.015,
109,-0.245,-0.015,
110,-0.255,-0.015,
111,-0.25,0.01,
112,-0.225,0.005,
113,-0.23,0.0,
114,-0.245,-0.025,
115,-0.265,-0.02,
116,-0.255,-0.015,
117,-0.25,0.0,
118,-0.245,0.005,
119,-0.23,0.0,
120,-0.24,-0.015,
121,-0.27,-0.02,
122,-0.27,-0.03,
123,-0.25,0.0,
124,-0.24,0.01,
125,-0.245,0.0,
126,-0.255,-0.015,
127,-0.275,-0.02,
128,-0.27,-0.025,
129,-0.285,-0.01,
130,-0.265,0.005,
131,-0.255,0.0,
132,-0.27,-0.015,
133,-0.285,-0.02,
134,-0.285,-0.02,
135,-0.275,-0.005,
136,-0.265,-0.005,
137,-0.28,-0.015,
138,-0.27,-0.025,
139,-0.285,-0.035,
140,-0.29,-0.015,
141,-0.285,-0.015,
142,-0.265,-0.01,
143,-0.27,-0.015,
144,-0.27,-0.02,
145,-0.285,-0.03,
146,-0.285,-0.04,
147,-0.275,-0.03,
148,-0.265,-0.02,
149,-0.27,-0.02,
150,-0.29,-0.03,
151,-0.285,-0.04,
152,-0.3,-0.03,
153,-0.285,-0.025,
154,-0.275,-0.02,
155,-0.265,-0.03,
156,-0.275,-0.035,
157,-0.295,-0.035,
158,-0.29,-0.035,
159,-0.275,-0.03,
160,-0.27,-0.015,
161,-0.27,-0.025,
162,-0.285,-0.04,
163,-0.295,-0.055,
164,-0.295,-0.03,
165,-0.285,-0.03,
166,-0.285,-0.015,
167,-0.28,-0.03,
168,-0.285,-0.045,
169,-0.295,-0.045,
170,-0.31,-0.04,
171,-0.29,-0.04,
172,-0.275,-0.015,
173,-0.265,-0.03,
174,-0.285,-0.04,
175,-0.3,-0.045,
176,-0.29,-0.03,
177,-0.29,-0.02,
178,-0.28,-0.015,
179,-0.275,-0.03,
180,-0.285,-0.045,
181,-0.295,-0.045,
182,-0.285,-0.03,
183,-0.285,-0.035,
184,-0.285,-0.025,
185,-0.285,-0.035,
186,-0.285,-0.03,
187,-0.29,-0.055,
188,-0.295,-0.04,
189,-0.295,-0.025,
190,-0.27,-0.015,
191,-0.265,-0.015,
192,-0.275,-0.03,
193,-0.285,-0.045,
194,-0.295,-0.04,
195,-0.28,-0.03,
196,-0.27,-0.025,
197,-0.265,-0.03,
198,-0.27,-0.035,
199,-0.285,-0.05,
200,-0.285,-0.055,
201,-0.27,-0.04,
202,-0.26,-0.02,
203,-0.265,-0.025,
204,-0.265,-0.04,
205,-0.305,-0.05,
206,-0.295,-0.03,
207,-0.27,-0.02,
208,-0.27,-0.015,
209,-0.265,-0.015,
210,-0.275,-0.05,
211,-0.29,-0.05,
212,-0.295,-0.025,
213,-0.28,-0.015,
214,-0.265,-0.01,
215,-0.26,-0.02,
216,-0.265,-0.03,
217,-0.295,-0.03,
218,-0.29,-0.03,
219,-0.285,-0.02,
220,-0.28,0.0,
221,-0.245,-0.01,
222,-0.27,-0.025,
223,-0.265,-0.04,
224,-0.27,-0.015,
225,-0.255,-0.01,
226,-0.24,0.005,
227,-0.225,0.01,
228,-0.235,0.005,
229,-0.245,0.0,
230,-0.24,0.01,
231,-0.225,0.035,
232,-0.195,0.035,
233,-0.195,0.02,
234,-0.195,0.025,
235,-0.205,0.01,
236,-0.205,0.035,
237,-0.2,0.045,
238,-0.18,0.055,
239,-0.2,0.05,
240,-0.22,0.025,
241,-0.23,0.02,
242,-0.23,0.02,
243,-0.23,0.015,
244,-0.235,0.025,
245,-0.24,0.015,
246,-0.245,0.005,
247,-0.255,-0.005,
248,-0.26,0.015,
249,-0.245,0.03,
250,-0.23,0.03,
251,-0.24,0.035,
252,-0.245,0.03,
253,-0.265,0.025,
254,-0.24,0.035,
255,-0.225,0.055,
256,-0.225,0.06,
257,-0.22,0.03,
258,-0.225,0.005,
259,-0.26,-0.005,
260,-0.265,-0.005,
261,-0.28,0.005,
262,-0.275,0.02,
263,-0.285,0.005,
264,-0.3,-0.005,
265,-0.29,-0.005,
266,-0.29,-0.015,
267,-0.28,-0.005,
268,-0.26,0.005,
269,-0.26,-0.005,
270,-0.3,-0.02,
271,-0.295,-0.02,
272,-0.305,-0.015,
273,-0.295,-0.005,
274,-0.285,0.0,
275,-0.275,-0.015,
276,-0.295,-0.025,
277,-0.31,-0.03,
278,-0.305,-0.015,
279,-0.285,-0.005,
280,-0.275,0.005,
281,-0.285,-0.005,
282,-0.29,-0.025,
283,-0.29,-0.03,
284,-0.315,-0.015,
285,-0.29,-0.01,
286,-0.28,0.005,
287,-0.27,0.0,
288,-0.29,-0.005,
289,-0.295,-0.02,
290,-0.3,-0.005,
291,-0.295,0.015,
292,-0.28,0.025,
293,-0.28,0.025,
294,-0.275,0.02,
295,-0.295,0.03,
296,-0.29,0.065,
297,-0.255,0.11,
298,-0.24,0.14,
299,-0.215,0.19,
300,-0.195,0.235,
301,-0.175,0.285,
302,-0.165,0.355,
303,-0.175,0.485,
304,-0.235,0.635,
305,-0.305,0.8,
306,-0.35,0.965,
307,-0.405,1.125,
308,-0.485,1.325,
309,-0.54,1.535,
310,-0.545,1.76,N
311,-0.47,1.98,
312,-0.34,2.05,
313,-0.18,1.88,
314,-0.06,1.4,
315,-0.045,0.77,
316,-0.215,0.28,
317,-0.515,0.01,
318,-0.725,-0.07,
319,-0.77,-0.055,
320,-0.69,-0.025,
321,-0.53,-0.005,
322,-0.385,0.0,
323,-0.305,-0.005,
324,-0.29,-0.04,
325,-0.285,-0.065,
326,-0.275,-0.075,
327,-0.27,-0.06,
328,-0.245,-0.07,
329,-0.25,-0.07,
330,-0.25,-0.09,
331,-0.245,-0.11,
332,-0.235,-0.095,
333,-0.225,-0.09,
334,-0.2,-0.075,
335,-0.21,-0.08,
336,-0.2,-0.095,
337,-0.22,-0.105,
338,-0.215,-0.08,
339,-0.21,-0.09,
340,-0.19,-0.085,
341,-0.19,-0.09,
342,-0.19,-0.105,
343,-0.205,-0.105,
344,-0.205,-0.105,
345,-0.2,-0.09,
346,-0.175,-0.085,
347,-0.175,-0.1,
348,-0.185,-0.125,
349,-0.205,-0.135,
350,-0.2,-0.115,
351,-0.19,-0.11,
352,-0.165,-0.095,
353,-0.17,-0.12,
354,-0.18,-0.145,
355,-0.195,-0.125,
356,-0.195,-0.12,
357,-0.18,-0.125,
358,-0.18,-0.105,
359,-0.17,-0.115,
360,-0.175,-0.135,
361,-0.185,-0.145,
362,-0.18,-0.125,
363,-0.17,-0.125,
364,-0.16,-0.115,
365,-0.16,-0.115,
366,-0.185,-0.13,
367,-0.17,-0.13,
368,-0.18,-0.12,
369,-0.165,-0.125,
370,-0.14,-0.11,
371,-0.13,-0.115,
372,-0.125,-0.125,
373,-0.14,-0.125,
374,-0.145,-0.105,
375,-0.135,-0.105,
376,-0.13,-0.095,
377,-0.115,-0.105,
378,-0.125,-0.125,
379,-0.12,-0.115,
380,-0.12,-0.11,
381,-0.12,-0.095,
382,-0.11,-0.085,
383,-0.095,-0.085,
384,-0.1,-0.105,
385,-0.105,-0.1,
386,-0.11,-0.095,
387,-0.1,-0.06,
388,-0.075,-0.06,
389,-0.075,-0.055,
390,-0.085,-0.06,
391,-0.07,-0.07,
392,-0.08,-0.04,
393,-0.06,-0.025,
394,-0.04,-0.005,
395,-0.03,0.0,
396,-0.035,-0.005,
397,-0.04,0.005,
398,-0.03,0.03,
399,-0.01,0.055,
400,-0.005,0.095,
401,0.005,0.09,
402,0.005,0.095,
403,-0.005,0.1,
404,-0.005,0.13,
405,0.01,0.16,
406,0.025,0.19,
407,0.025,0.19,
408,0.0,0.18,
409,-0.01,0.185,
410,-0.01,0.205,
411,-0.02,0.23,
412,0.01,0.24,
413,0.01,0.235,
414,-0.01,0.22,
415,-0.03,0.215,
416,-0.035,0.215,
417,-0.04,0.215,
418,-0.035,0.225,
419,-0.055,0.21,
420,-0.065,0.18,
421,-0.08,0.155,
422,-0.1,0.16,
423,-0.095,0.16,
424,-0.095,0.155,
425,-0.115,0.135,
426,-0.13,0.11,
427,-0.15,0.095,
428,-0.165,0.09,
429,-0.165,0.1,
430,-0.165,0.09,
431,-0.18,0.075,
432,-0.18,0.065,
433,-0.21,0.04,
434,-0.2,0.055,
435,-0.2,0.06,
436,-0.19,0.07,
437,-0.195,0.05,
438,-0.215,0.035,
439,-0.22,0.025,
440,-0.22,0.04,
441,-0.215,0.045,
442,-0.21,0.045,
443,-0.215,0.035,
444,-0.225,0.02,
445,-0.23,0.015,
446,-0.25,0.015,
447,-0.235,0.03,
448,-0.22,0.05,
449,-0.225,0.03,
450,-0.235,0.02,
451,-0.245,0.01,
452,-0.245,0.025,
453,-0.24,0.035,
454,-0.225,0.025,
455,-0.22,0.015,
456,-0.245,0.015,
457,-0.265,0.0,
458,-0.245,0.015,
459,-0.245,0.015,
460,-0.235,0.02,
461,-0.235,0.01,
462,-0.24,-0.005,
463,-0.265,-0.005,
464,-0.265,-0.005,
465,-0.255,0.01,
466,-0.235,0.03,
467,-0.225,0.005,
468,-0.245,-0.01,
469,-0.26,-0.005,
470,-0.26,-0.015,
471,-0.255,0.0,
472,-0.24,0.005,
473,-0.245,0.0,
474,-0.25,-0.02,
475,-0.265,-0.02,
476,-0.255,-0.01,
477,-0.255,0.015,
478,-0.245,0.015,
479,-0.235,-0.005,
480,-0.25,-0.005,
481,-0.265,-0.01,
482,-0.26,-0.01,
483,-0.25,0.01,
484,-0.235,0.02,
485,-0.23,0.01,
486,-0.24,0.0,
487,-0.255,-0.01,
488,-0.25,0.0,
489,-0.24,0.015,
490,-0.22,0.015,
491,-0.22,0.005,
492,-0.24,0.0,
493,-0.24,0.0,
494,-0.24,0.015,
495,-0.24,0.025,
496,-0.225,0.02,
497,-0.225,0.01,
498,-0.235,-0.005,
499,-0.235,0.0,
500,-0.245,0.01,
501,-0.23,0.03,
502,-0.22,0.03,
503,-0.215,0.02,
504,-0.23,0.015,
505,-0.24,0.01,
506,-0.255,0.01,
507,-0.245,0.035,
508,-0.22,0.035,
509,-0.23,0.03,
510,-0.24,0.02,
511,-0.255,0.005,
512,-0.26,0.015,
513,-0.245,0.025,
514,-0.24,0.03,
515,-0.235,0.02,
516,-0.255,0.005,
517,-0.265,-0.005,
518,-0.27,0.005,
519,-0.25,0.01,
520,-0.235,0.02,
521,-0.24,0.015,
522,-0.25,0.0,
523,-0.26,-0.01,
524,-0.26,-0.005,
525,-0.25,0.01,
526,-0.24,0.03,
527,-0.24,0.0,
528,-0.255,0.005,
529,-0.265,-0.015,
530,-0.27,-0.005,
531,-0.265,0.015,
532,-0.25,0.03,
533,-0.255,0.01,
534,-0.28,-0.005,
535,-0.29,-0.02,
536,-0.28,-0.005,
537,-0.28,0.0,
538,-0.26,0.015,
539,-0.265,0.005,
540,-0.275,-0.01,
541,-0.285,-0.015,
542,-0.285,-0.01,
543,-0.265,0.0,
544,-0.25,0.015,
545,-0.255,-0.005,
546,-0.27,-0.02,
547,-0.28,-0.03,
548,-0.28,-0.005,
549,-0.265,0.0,
550,-0.245,-0.005,
551,-0.26,0.0,
552,-0.265,-0.005,
553,-0.27,-0.015,
554,-0.27,-0.01,
555,-0.26,-0.01,
556,-0.255,0.005,
557,-0.25,-0.005,
558,-0.27,-0.01,
559,-0.27,-0.01,
560,-0.28,-0.005,
561,-0.27,-0.005,
562,-0.265,-0.005,
563,-0.26,-0.01,
564,-0.285,-0.025,
565,-0.285,-0.02,
566,-0.285,-0.02,
567,-0.285,-0.01,
568,-0.26,-0.005,
569,-0.275,-0.005,
570,-0.275,-0.02,
571,-0.28,-0.03,
572,-0.275,-0.015,
573,-0.275,-0.01,
574,-0.265,0.005,
575,-0.25,0.0,
576,-0.27,-0.02,
577,-0.275,-0.01,
578,-0.29,-0.02,
579,-0.27,0.0,
580,-0.265,0.0,
581,-0.265,-0.005,
582,-0.27,-0.02,
583,-0.295,-0.03,
584,-0.295,-0.015,
585,-0.285,0.0,
586,-0.265,0.0,
587,-0.26,-0.005,
588,-0.27,-0.01,
589,-0.285,-0.025,
590,-0.31,-0.025,
591,-0.29,-0.015,
592,-0.27,-0.005,
593,-0.27,-0.005,
594,-0.28,-0.025,
595,-0.295,-0.03,
596,-0.295,-0.01,
597,-0.285,0.005,
598,-0.275,-0.005,
599,-0.27,-0.01,
600,-0.28,-0.025,
601,-0.285,-0.035,
602,-0.3,-0.01,
603,-0.27,0.0,
604,-0.275,0.0,
605,-0.28,-0.005,
606,-0.275,-0.025,
607,-0.28,-0.03,
608,-0.285,-0.025,
609,-0.27,-0.01,
610,-0.255,0.0,
611,-0.255,-0.005,
612,-0.265,-0.02,
613,-0.27,-0.02,
614,-0.29,-0.02,
615,-0.26,0.0,
616,-0.245,0.0,
617,-0.255,-0.005,
618,-0.265,-0.025,
619,-0.285,-0.03,
620,-0.285,-0.02,
621,-0.265,-0.005,
622,-0.245,0.01,
623,-0.255,-0.005,
624,-0.27,-0.015,
625,-0.275,-0.03,
626,-0.285,-0.005,
627,-0.27,-0.01,
628,-0.255,0.0,
629,-0.25,0.0,
630,-0.26,-0.015,
631,-0.27,-0.02,
632,-0.27,0.005,
633,-0.26,0.005,
634,-0.23,0.0,
635,-0.24,0.0,
636,-0.245,-0.01,
637,-0.245,-0.01,
638,-0.24,0.025,
639,-0.215,0.025,
640,-0.195,0.04,
641,-0.2,0.04,
642,-0.21,0.02,
643,-0.21,0.015,
644,-0.205,0.03,
645,-0.195,0.045,
646,-0.18,0.05,
647,-0.175,0.06,
648,-0.175,0.045,
649,-0.19,0.03,
650,-0.2,0.05,
651,-0.195,0.055,
652,-0.185,0.07,
653,-0.185,0.045,
654,-0.215,0.015,
655,-0.22,0.0,
656,-0.235,0.025,
657,-0.23,0.025,
658,-0.22,0.025,
659,-0.225,0.04,
660,-0.24,0.03,
661,-0.245,0.02,
662,-0.235,0.03,
663,-0.245,0.05,
664,-0.21,0.055,
665,-0.22,0.055,
666,-0.23,0.03,
667,-0.24,0.025,
668,-0.235,0.04,
669,-0.225,0.045,
670,-0.21,0.035,
671,-0.21,0.01,
672,-0.225,-0.015,
673,-0.245,-0.01,
674,-0.28,-0.005,
675,-0.27,0.01,
676,-0.26,0.01,
677,-0.275,0.0,
678,-0.28,-0.005,
679,-0.285,-0.01,
680,-0.28,0.005,
681,-0.265,0.01,
682,-0.26,0.0,
683,-0.255,0.0,
684,-0.28,-0.015,
685,-0.275,-0.025,
686,-0.28,-0.015,
687,-0.265,0.0,
688,-0.255,0.0,
689,-0.26,-0.015,
690,-0.275,-0.01,
691,-0.28,-0.01,
692,-0.28,-0.005,
693,-0.27,0.0,
694,-0.25,0.01,
695,-0.255,-0.01,
696,-0.27,-0.025,
697,-0.285,-0.02,
698,-0.285,-0.01,
699,-0.27,0.01,
700,-0.25,0.005,
701,-0.25,0.0,
702,-0.265,0.0,
703,-0.27,-0.015,
704,-0.275,-0.015,
705,-0.26,0.015,
706,-0.255,0.025,
707,-0.245,0.02,
708,-0.245,0.015,
709,-0.245,0.035,
710,-0.24,0.08,
711,-0.225,0.125,
712,-0.2,0.155,
713,-0.18,0.21,
714,-0.17,0.24,
715,-0.15,0.3,
716,-0.14,0.385,
717,-0.165,0.49,
718,-0.215,0.625,
719,-0.25,0.765,
720,-0.305,0.895,
721,-0.355,1.035,
722,-0.405,1.2,
723,-0.46,1.35,
724,-0.505,1.515,
725,-0.505,1.685,
726,-0.46,1.865,N
727,-0.405,2.015,
728,-0.295,2.03,
729,-0.15,1.915,
730,-0.025,1.625,
731,0.025,1.15,
732,-0.035,0.695,
733,-0.205,0.335,
734,-0.43,0.11,
735,-0.6,0.005,
736,-0.67,-0.045,
737,-0.675,-0.065,
738,-0.63,-0.07,
739,-0.585,-0.045,
740,-0.5,-0.03,
741,-0.365,-0.015,
742,-0.275,-0.015,
743,-0.26,-0.03,
744,-0.25,-0.065,
745,-0.25,-0.08,
746,-0.24,-0.085,
747,-0.23,-0.09,
748,-0.205,-0.09,
749,-0.21,-0.09,
750,-0.21,-0.11,
751,-0.23,-0.12,
752,-0.215,-0.1,
753,-0.195,-0.11,
754,-0.18,-0.1,
755,-0.18,-0.115,
756,-0.175,-0.115,
757,-0.185,-0.12,
758,-0.185,-0.11,
759,-0.165,-0.095,
760,-0.155,-0.105,
761,-0.155,-0.115,
762,-0.165,-0.135,
763,-0.17,-0.135,
764,-0.17,-0.125,
765,-0.155,-0.11,
766,-0.155,-0.115,
767,-0.13,-0.12,
768,-0.155,-0.125,
769,-0.165,-0.135,
770,-0.17,-0.14,
771,-0.15,-0.12,
772,-0.13,-0.125,
773,-0.14,-0.14,
774,-0.15,-0.15,
775,-0.165,-0.16,
776,-0.165,-0.145,
777,-0.155,-0.13,
778,-0.14,-0.135,
779,-0.14,-0.14,
780,-0.145,-0.17,
781,-0.15,-0.165,
782,-0.155,-0.16,
783,-0.14,-0.15,
784,-0.12,-0.14,
785,-0.13,-0.15,
786,-0.135,-0.165,
787,-0.135,-0.165,
788,-0.155,-0.16,
789,-0.14,-0.15,
790,-0.11,-0.15,
791,-0.13,-0.155,
792,-0.135,-0.165,
793,-0.125,-0.16,
794,-0.125,-0.15,
795,-0.115,-0.14,
796,-0.1,-0.14,
797,-0.105,-0.15,
798,-0.105,-0.165,
799,-0.12,-0.17,
800,-0.115,-0.155,
801,-0.115,-0.13,
802,-0.095,-0.12,
803,-0.08,-0.135,
804,-0.11,-0.145,
805,-0.105,-0.155,
806,-0.11,-0.14,
807,-0.09,-0.12,
808,-0.07,-0.13,
809,-0.065,-0.135,
810,-0.075,-0.14,
811,-0.08,-0.135,
812,-0.085,-0.13,
813,-0.055,-0.105,
814,-0.045,-0.105,
815,-0.04,-0.105,
816,-0.04,-0.11,
817,-0.04,-0.11,
818,-0.05,-0.105,
819,-0.02,-0.07,
820,-0.005,-0.06,
821,0.0,-0.06,
822,-0.005,-0.065,
823,-0.015,-0.05,
824,-0.01,-0.03,
825,0.0,0.0,
826,0.025,0.01,
827,0.025,0.015,
828,0.02,0.01,
829,0.01,0.02,
830,0.01,0.05,
831,0.03,0.065,
832,0.05,0.085,
833,0.04,0.1,
834,0.03,0.1,
835,0.025,0.115,
836,0.04,0.135,
837,0.06,0.165,
838,0.08,0.17,
839,0.07,0.185,
840,0.055,0.18,
841,0.035,0.175,
842,0.05,0.2,
843,0.045,0.2,
844,0.045,0.22,
845,0.035,0.21,
846,0.02,0.195,
847,-0.005,0.18,
848,-0.015,0.18,
849,-0.005,0.185,
850,-0.005,0.165,
851,-0.02,0.15,
852,-0.035,0.135,
853,-0.065,0.105,
854,-0.085,0.11,
855,-0.08,0.115,
856,-0.07,0.095,
857,-0.095,0.085,
858,-0.11,0.06,
859,-0.14,0.05,
860,-0.135,0.04,
861,-0.13,0.055,
862,-0.125,0.055,
863,-0.14,0.045,
864,-0.15,0.03,
865,-0.15,0.015,
866,-0.155,0.03,
867,-0.145,0.035,
868,-0.15,0.03,
869,-0.145,0.025,
870,-0.175,0.005,
871,-0.17,0.01,
872,-0.175,0.015,
873,-0.155,0.025,
874,-0.15,0.015,
875,-0.16,0.005,
876,-0.165,-0.005,
877,-0.175,-0.005,
878,-0.185,0.0,
879,-0.18,0.015,
880,-0.17,0.015,
881,-0.16,0.015,
882,-0.185,-0.01,
883,-0.19,-0.015,
884,-0.2,-0.01,
885,-0.2,-0.015,
886,-0.175,0.0,
887,-0.185,-0.01,
888,-0.195,-0.02,
889,-0.2,-0.015,
890,-0.2,-0.02,
891,-0.175,0.005,
892,-0.17,-0.005,
893,-0.195,-0.015,
894,-0.185,-0.04,
895,-0.19,-0.03,
896,-0.195,-0.025,
897,-0.195,-0.01,
898,-0.17,-0.01,
899,-0.175,-0.025,
900,-0.18,-0.035,
901,-0.19,-0.03,
902,-0.195,-0.035,
903,-0.195,-0.02,
904,-0.19,-0.02,
905,-0.185,-0.025,
906,-0.195,-0.04,
907,-0.215,-0.055,
908,-0.215,-0.035,
909,-0.205,-0.015,
910,-0.19,-0.03,
911,-0.205,-0.035,
912,-0.215,-0.055,
913,-0.22,-0.04,
914,-0.215,-0.03,
915,-0.205,-0.02,
916,-0.185,-0.01,
917,-0.19,-0.015,
918,-0.195,-0.03,
919,-0.2,-0.035,
920,-0.215,-0.03,
921,-0.205,-0.02,
922,-0.19,-0.005,
923,-0.185,-0.02,
924,-0.195,-0.04,
925,-0.2,-0.03,
926,-0.21,-0.025,
927,-0.19,0.0,
928,-0.17,-0.01,
929,-0.18,-0.015,
930,-0.2,-0.025,
931,-0.2,-0.025,
932,-0.21,-0.01,
933,-0.215,-0.005,
934,-0.185,0.0,
935,-0.195,-0.005,
936,-0.2,-0.025,
937,-0.225,-0.02,
938,-0.225,-0.01,
939,-0.215,-0.01,
940,-0.205,-0.005,
941,-0.21,0.0,
942,-0.23,-0.015,
943,-0.235,-0.025,
944,-0.23,-0.015,
945,-0.21,0.0,
946,-0.205,-0.01,
947,-0.21,-0.015,
948,-0.23,-0.02,
949,-0.24,-0.025,
950,-0.235,-0.015,
951,-0.22,0.0,
952,-0.205,0.0,
953,-0.215,-0.02,
954,-0.22,-0.03,
955,-0.23,-0.035,
956,-0.245,-0.02,
957,-0.225,-0.01,
958,-0.225,-0.005,
959,-0.23,-0.01,
960,-0.235,-0.04,
961,-0.245,-0.04,
962,-0.255,-0.04,
963,-0.255,-0.025,
964,-0.245,-0.015,
965,-0.25,-0.025,
966,-0.255,-0.04,
967,-0.27,-0.035,
968,-0.265,-0.025,
969,-0.255,-0.015,
970,-0.235,-0.025,
971,-0.245,-0.03,
972,-0.25,-0.05,
973,-0.265,-0.045,
974,-0.26,-0.035,
975,-0.25,-0.025,
976,-0.25,-0.03,
977,-0.26,-0.02,
978,-0.27,-0.055,
979,-0.27,-0.055,
980,-0.275,-0.04,
981,-0.255,-0.03,
982,-0.245,-0.035,
983,-0.255,-0.05,
984,-0.265,-0.04,
985,-0.29,-0.05,
986,-0.28,-0.035,
987,-0.27,-0.015,
988,-0.26,-0.025,
989,-0.27,-0.035,
990,-0.28,-0.05,
991,-0.285,-0.045,
992,-0.295,-0.04,
993,-0.27,-0.015,
994,-0.255,-0.02,
995,-0.27,-0.025,
996,-0.275,-0.04,
997,-0.29,-0.055,
998,-0.28,-0.04,
999,-0.245,-0.04,
1000,-0.27,-0.04,
1001,-0.285,-0.045,
1002,-0.28,-0.05,
1003,-0.29,-0.04,
1004,-0.265,-0.025,
1005,-0.255,-0.03,
1006,-0.26,-0.025,
1007,-0.275,-0.04,
1008,-0.29,-0.04,
1009,-0.275,-0.04,
1010,-0.28,-0.01,
1011,-0.275,-0.015,
1012,-0.265,-0.03,
1013,-0.275,-0.045,
1014,-0.29,-0.04,
1015,-0.29,-0.03,
1016,-0.29,-0.02,
1017,-0.27,-0.025,
1018,-0.265,-0.03,
1019,-0.29,-0.035,
1020,-0.295,-0.045,
1021,-0.29,-0.025,
1022,-0.28,-0.005,
1023,-0.26,-0.01,
1024,-0.265,-0.025,
1025,-0.275,-0.035,
1026,-0.3,-0.03,
1027,-0.29,-0.03,
1028,-0.27,-0.02,
1029,-0.27,-0.015,
1030,-0.275,-0.035,
1031,-0.28,-0.04,
1032,-0.285,-0.04,
1033,-0.305,-0.025,
1034,-0.27,-0.005,
1035,-0.25,-0.015,
1036,-0.265,-0.02,
1037,-0.28,-0.04,
1038,-0.295,-0.05,
1039,-0.29,-0.04,
1040,-0.285,-0.015,
1041,-0.27,-0.01,
1042,-0.26,-0.02,
1043,-0.28,-0.025,
1044,-0.295,-0.045,
1045,-0.29,-0.03,
1046,-0.28,-0.01,
1047,-0.25,0.0,
1048,-0.265,-0.015,
1049,-0.27,-0.03,
1050,-0.28,-0.02,
1051,-0.28,-0.015,
1052,-0.25,-0.005,
1053,-0.235,-0.005,
1054,-0.25,0.0,
1055,-0.255,-0.01,
1056,-0.25,-0.005,
1057,-0.24,0.015,
1058,-0.22,0.02,
1059,-0.2,0.025,
1060,-0.235,0.03,
1061,-0.225,0.01,
1062,-0.245,0.005,
1063,-0.235,0.03,
1064,-0.215,0.04,
1065,-0.195,0.045,
1066,-0.19,0.04,
1067,-0.2,0.035,
1068,-0.225,0.03,
1069,-0.225,0.035,
1070,-0.23,0.045,
1071,-0.215,0.035,
1072,-0.235,0.015,
1073,-0.24,0.015,
1074,-0.255,0.005,
1075,-0.265,0.02,
1076,-0.25,0.035,
1077,-0.245,0.04,
1078,-0.23,0.015,
1079,-0.24,0.02,
1080,-0.255,0.015,
1081,-0.24,0.04,
1082,-0.245,0.05,
1083,-0.22,0.04,
1084,-0.225,0.04,
1085,-0.225,0.025,
1086,-0.23,0.005,
1087,-0.235,0.0,
1088,-0.235,0.005,
1089,-0.245,0.005,
1090,-0.27,-0.02,
1091,-0.285,-0.02,
1092,-0.305,-0.02,
1093,-0.305,-0.015,
1094,-0.28,0.0,
1095,-0.27,-0.005,
1096,-0.28,-0.005,
1097,-0.28,-0.015,
1098,-0.295,-0.03,
1099,-0.29,-0.015,
1100,-0.28,0.0,
1101,-0.27,0.0,
1102,-0.285,-0.01,
1103,-0.29,-0.025,
1104,-0.29,-0.03,
1105,-0.285,-0.015,
1106,-0.285,-0.005,
1107,-0.27,-0.005,
1108,-0.26,-0.005,
1109,-0.27,-0.02,
1110,-0.29,-0.015,
1111,-0.29,-0.015,
1112,-0.28,-0.01,
1113,-0.26,0.005,
1114,-0.27,-0.025,
1115,-0.28,-0.025,
1116,-0.295,-0.03,
1117,-0.285,-0.015,
1118,-0.28,0.0,
1119,-0.26,-0.005,
1120,-0.285,-0.005,
1121,-0.28,-0.025,
1122,-0.28,-0.02,
1123,-0.275,-0.015,
1124,-0.26,0.025,
1125,-0.245,0.03,
1126,-0.25,0.04,
1127,-0.255,0.05,
1128,-0.245,0.075,
1129,-0.23,0.12,
1130,-0.2,0.19,
1131,-0.17,0.23,
1132,-0.14,0.275,
1133,-0.15,0.31,
1134,-0.165,0.38,
1135,-0.235,0.515,
1136,-0.29,0.675,
1137,-0.31,0.815,
1138,-0.365,0.95,
1139,-0.425,1.075,
1140,-0.525,1.205,
1141,-0.59,1.365,
1142,-0.595,1.56,
1143,-0.545,1.775,N
1144,-0.445,1.925,
1145,-0.335,1.94,
1146,-0.215,1.825,
1147,-0.095,1.545,
1148,-0.025,1.155,
1149,-0.035,0.73,
1150,-0.17,0.375,
1151,-0.375,0.13,
1152,-0.59,0.0,
1153,-0.68,-0.05,
1154,-0.685,-0.06,
1155,-0.645,-0.05,
1156,-0.6,-0.035,
1157,-0.535,-0.045,
1158,-0.445,-0.05,
1159,-0.36,-0.045,
1160,-0.3,-0.045,
1161,-0.27,-0.025,
1162,-0.27,-0.055,
1163,-0.27,-0.075,
1164,-0.265,-0.09,
1165,-0.26,-0.105,
1166,-0.245,-0.085,
1167,-0.235,-0.09,
1168,-0.235,-0.11,
1169,-0.25,-0.11,
1170,-0.245,-0.115,
1171,-0.23,-0.11,
1172,-0.24,-0.085,
1173,-0.2,-0.085,
1174,-0.2,-0.12,
1175,-0.215,-0.12,
1176,-0.215,-0.13,
1177,-0.23,-0.11,
1178,-0.195,-0.11,
1179,-0.19,-0.1,
1180,-0.18,-0.11,
1181,-0.2,-0.125,
1182,-0.215,-0.125,
1183,-0.195,-0.12,
1184,-0.185,-0.12,
1185,-0.175,-0.12,
1186,-0.165,-0.11,
1187,-0.185,-0.13,
1188,-0.205,-0.145,
1189,-0.185,-0.13,
1190,-0.18,-0.12,
1191,-0.17,-0.115,
1192,-0.165,-0.135,
1193,-0.18,-0.145,
1194,-0.195,-0.15,
1195,-0.195,-0.13,
1196,-0.175,-0.12,
1197,-0.16,-0.125,
1198,-0.17,-0.14,
1199,-0.165,-0.145,
1200,-0.19,-0.145,
1201,-0.18,-0.145,
1202,-0.17,-0.12,
1203,-0.165,-0.135,
1204,-0.145,-0.13,
1205,-0.17,-0.15,
1206,-0.185,-0.145,
1207,-0.175,-0.135,
1208,-0.17,-0.12,
1209,-0.15,-0.13,
1210,-0.15,-0.135,
1211,-0.16,-0.15,
1212,-0.17,-0.155,
1213,-0.16,-0.145,
1214,-0.155,-0.135,
1215,-0.13,-0.115,
1216,-0.135,-0.125,
1217,-0.15,-0.145,
1218,-0.145,-0.15,
1219,-0.15,-0.145,
1220,-0.13,-0.13,
1221,-0.125,-0.12,
1222,-0.12,-0.12,
1223,-0.125,-0.135,
1224,-0.13,-0.13,
1225,-0.13,-0.115,
1226,-0.125,-0.1,
1227,-0.1,-0.105,
1228,-0.1,-0.115,
1229,-0.11,-0.12,
1230,-0.12,-0.12,
1231,-0.11,-0.1,
1232,-0.095,-0.09,
1233,-0.085,-0.08,
1234,-0.08,-0.085,
1235,-0.085,-0.08,
1236,-0.09,-0.08,
1237,-0.08,-0.07,
1238,-0.065,-0.055,
1239,-0.05,-0.05,
1240,-0.04,-0.05,
1241,-0.04,-0.045,
1242,-0.055,-0.03,
1243,-0.04,-0.02,
1244,-0.025,0.005,
1245,-0.02,0.015,
1246,-0.02,0.02,
1247,-0.015,0.03,
1248,-0.015,0.035,
1249,-0.01,0.06,
1250,-0.005,0.09,
1251,0.02,0.105,
1252,0.005,0.1,
1253,-0.015,0.12,
1254,-0.02,0.12,
1255,-0.01,0.15,
1256,0.0,0.18,
1257,0.005,0.195,
1258,0.01,0.185,
1259,0.005,0.19,
1260,-0.015,0.195,
1261,-0.005,0.21,
1262,0.0,0.22,
1263,-0.015,0.21,
1264,-0.02,0.215,
1265,-0.035,0.195,
1266,-0.065,0.18,
1267,-0.08,0.2,
1268,-0.07,0.18,
1269,-0.07,0.175,
1270,-0.08,0.16,
1271,-0.09,0.135,
1272,-0.12,0.12,
1273,-0.125,0.13,
1274,-0.115,0.125,
1275,-0.115,0.125,
1276,-0.135,0.1,
1277,-0.15,0.075,
1278,-0.18,0.065,
1279,-0.185,0.07,
1280,-0.17,0.08,
1281,-0.165,0.08,
1282,-0.17,0.065,
1283,-0.185,0.04,
1284,-0.195,0.045,
1285,-0.195,0.05,
1286,-0.185,0.055,
1287,-0.185,0.055,
1288,-0.18,0.04,
1289,-0.205,0.02,
1290,-0.225,0.035,
1291,-0.215,0.05,
1292,-0.195,0.05,
1293,-0.185,0.055,
1294,-0.19,0.03,
1295,-0.21,0.015,
1296,-0.23,0.015,
1297,-0.22,0.025,
1298,-0.205,0.05,
1299,-0.19,0.04,
1300,-0.195,0.035,
1301,-0.215,0.015,
1302,-0.22,0.015,
1303,-0.23,0.015,
1304,-0.225,0.025,
1305,-0.21,0.025,
1306,-0.215,0.015,
1307,-0.22,0.01,
1308,-0.225,0.0,
1309,-0.225,0.0,
1310,-0.215,0.025,
1311,-0.21,0.015,
1312,-0.22,0.005,
1313,-0.22,-0.015,
1314,-0.24,-0.025,
1315,-0.235,0.005,
1316,-0.235,0.01,
1317,-0.19,0.02,
1318,-0.215,0.0,
1319,-0.22,-0.01,
1320,-0.235,-0.03,
1321,-0.21,-0.02,
1322,-0.225,-0.005,
1323,-0.22,0.0,
1324,-0.2,-0.015,
1325,-0.22,-0.025,
1326,-0.235,-0.01,
1327,-0.225,-0.01,
1328,-0.215,0.005,
1329,-0.195,-0.005,
1330,-0.185,-0.02,
1331,-0.205,-0.015,
1332,-0.22,-0.02,
1333,-0.21,-0.01,
1334,-0.205,0.01,
1335,-0.185,0.02,
1336,-0.195,0.01,
1337,-0.21,-0.005,
1338,-0.225,-0.005,
1339,-0.22,0.0,
1340,-0.22,0.01,
1341,-0.205,0.02,
1342,-0.2,0.015,
1343,-0.21,0.0,
1344,-0.21,-0.005,
1345,-0.21,0.005,
1346,-0.205,0.025,
1347,-0.19,0.02,
1348,-0.2,0.01,
1349,-0.21,-0.005,
1350,-0.225,-0.005,
1351,-0.22,0.01,
1352,-0.205,0.03,
1353,-0.2,0.02,
1354,-0.195,0.01,
1355,-0.215,-0.01,
1356,-0.22,0.005,
1357,-0.24,-0.005,
1358,-0.23,0.01,
1359,-0.215,0.015,
1360,-0.215,0.0,
1361,-0.235,-0.01,
1362,-0.245,-0.005,
1363,-0.245,0.0,
1364,-0.225,0.01,
1365,-0.225,0.005,
1366,-0.23,-0.005,
1367,-0.235,-0.02,
1368,-0.245,-0.015,
1369,-0.245,-0.015,
1370,-0.22,0.0,
1371,-0.23,0.005,
1372,-0.22,-0.01,
1373,-0.24,-0.025,
1374,-0.25,-0.02,
1375,-0.25,-0.005,
1376,-0.24,0.005,
1377,-0.235,-0.01,
1378,-0.235,-0.01,
1379,-0.255,-0.035,
1380,-0.245,-0.03,
1381,-0.26,-0.035,
1382,-0.245,-0.015,
1383,-0.24,-0.015,
1384,-0.245,-0.02,
1385,-0.26,-0.045,
1386,-0.27,-0.04,
1387,-0.28,-0.03,
1388,-0.255,-0.015,
1389,-0.245,-0.015,
1390,-0.245,-0.04,
1391,-0.265,-0.04,
1392,-0.29,-0.04,
1393,-0.275,-0.025,
1394,-0.27,-0.02,
1395,-0.25,-0.015,
1396,-0.255,-0.025,
1397,-0.26,-0.035,
1398,-0.27,-0.04,
1399,-0.275,-0.03,
1400,-0.27,-0.02,
1401,-0.25,-0.025,
1402,-0.25,-0.025,
1403,-0.27,-0.04,
1404,-0.29,-0.035,
1405,-0.275,-0.025,
1406,-0.26,-0.02,
1407,-0.245,-0.015,
1408,-0.25,-0.02,
1409,-0.265,-0.045,
1410,-0.295,-0.05,
1411,-0.29,-0.03,
1412,-0.265,-0.015,
1413,-0.255,-0.01,
1414,-0.265,-0.03,
1415,-0.285,-0.055,
1416,-0.3,-0.035,
1417,-0.295,-0.035,
1418,-0.265,-0.02,
1419,-0.26,-0.025,
1420,-0.255,-0.02,
1421,-0.26,-0.035,
1422,-0.27,-0.05,
1423,-0.27,-0.03,
1424,-0.26,-0.02,
1425,-0.25,-0.025,
1426,-0.255,-0.02,
1427,-0.255,-0.035,
1428,-0.265,-0.035,
1429,-0.28,-0.025,
1430,-0.26,-0.015,
1431,-0.24,-0.015,
1432,-0.245,-0.025,
1433,-0.255,-0.04,
1434,-0.28,-0.045,
1435,-0.275,-0.03,
1436,-0.27,-0.015,
1437,-0.255,-0.01,
1438,-0.24,-0.02,
1439,-0.26,-0.035,
1440,-0.27,-0.045,
1441,-0.275,-0.035,
1442,-0.265,-0.015,
1443,-0.255,-0.01,
1444,-0.26,-0.01,
1445,-0.27,-0.03,
1446,-0.27,-0.035,
1447,-0.27,-0.025,
1448,-0.27,-0.02,
1449,-0.245,-0.015,
1450,-0.245,-0.02,
1451,-0.255,-0.05,
1452,-0.265,-0.035,
1453,-0.265,-0.025,
1454,-0.255,-0.025,
1455,-0.23,-0.015,
1456,-0.25,-0.035,
1457,-0.25,-0.04,
1458,-0.255,-0.045,
1459,-0.27,-0.025,
1460,-0.255,-0.01,
1461,-0.245,-0.01,
1462,-0.245,-0.025,
1463,-0.26,-0.04,
1464,-0.275,-0.035,
1465,-0.275,-0.02,
1466,-0.255,-0.015,
1467,-0.24,-0.005,
1468,-0.25,-0.02,
1469,-0.25,-0.02,
1470,-0.26,-0.025,
1471,-0.27,-0.01,
1472,-0.24,-0.01,
1473,-0.215,0.005,
1474,-0.21,-0.005,
1475,-0.215,-0.005,
1476,-0.215,0.01,
1477,-0.22,0.015,
1478,-0.2,0.035,
1479,-0.185,0.025,
1480,-0.185,0.01,
1481,-0.195,0.025,
1482,-0.19,0.02,
1483,-0.195,0.02,
1484,-0.175,0.035,
1485,-0.175,0.035,
1486,-0.18,0.035,
1487,-0.2,0.015,
1488,-0.205,0.0,
1489,-0.215,0.01,
1490,-0.225,0.01,
1491,-0.215,0.015,
1492,-0.235,0.01,
1493,-0.235,-0.01,
1494,-0.24,0.0,
1495,-0.245,0.005,
1496,-0.225,0.035,
1497,-0.225,0.035,
1498,-0.215,0.025,
1499,-0.205,0.015,
1500,-0.215,0.0,
1501,-0.21,-0.005,
1502,-0.21,-0.005,
1503,-0.225,-0.03,
1504,-0.245,-0.025,
1505,-0.27,-0.04,
1506,-0.29,-0.03,
1507,-0.275,-0.025,
1508,-0.27,-0.02,
1509,-0.245,-0.03,
1510,-0.255,-0.04,
1511,-0.265,-0.045,
1512,-0.28,-0.04,
1513,-0.28,-0.035,
1514,-0.27,-0.015,
1515,-0.255,-0.02,
1516,-0.255,-0.025,
1517,-0.275,-0.05,
1518,-0.28,-0.045,
1519,-0.28,-0.035,
1520,-0.275,-0.02,
1521,-0.26,-0.025,
1522,-0.265,-0.025,
1523,-0.275,-0.045,
1524,-0.28,-0.05,
1525,-0.28,-0.03,
1526,-0.26,-0.02,
1527,-0.25,-0.025,
1528,-0.25,-0.03,
1529,-0.275,-0.035,
1530,-0.275,-0.045,
1531,-0.275,-0.03,
1532,-0.26,-0.015,
1533,-0.245,-0.01,
1534,-0.255,-0.005,
1535,-0.255,-0.02,
1536,-0.275,-0.005,
1537,-0.26,0.035,
1538,-0.235,0.065,
1539,-0.21,0.11,
1540,-0.195,0.145,
1541,-0.195,0.2,
1542,-0.185,0.265,
1543,-0.145,0.335,
1544,-0.155,0.455,
1545,-0.19,0.61,
1546,-0.26,0.765,
1547,-0.315,0.905,
1548,-0.355,1.08,
1549,-0.415,1.245,
1550,-0.465,1.415,
1551,-0.5,1.575,
1552,-0.49,1.78,
1553,-0.425,1.945,N
1554,-0.335,2.035,
1555,-0.19,1.985,
1556,-0.065,1.735,
1557,0.015,1.3,
1558,-0.01,0.78,
1559,-0.155,0.385,
1560,-0.375,0.13,
1561,-0.575,0.01,
1562,-0.665,-0.04,
1563,-0.655,-0.045,
1564,-0.63,-0.055,
1565,-0.575,-0.055,
1566,-0.51,-0.04,
1567,-0.375,-0.045,
1568,-0.295,-0.035,
1569,-0.265,-0.05,
1570,-0.255,-0.06,
1571,-0.255,-0.11,
1572,-0.27,-0.12,
1573,-0.27,-0.125,
1574,-0.25,-0.11,
1575,-0.23,-0.11,
1576,-0.22,-0.13,
1577,-0.225,-0.135,
1578,-0.235,-0.14,
1579,-0.235,-0.13,
1580,-0.205,-0.12,
1581,-0.195,-0.13,
1582,-0.195,-0.145,
1583,-0.2,-0.16,
1584,-0.205,-0.145,
1585,-0.2,-0.145,
1586,-0.185,-0.13,
1587,-0.17,-0.13,
1588,-0.175,-0.14,
1589,-0.185,-0.15,
1590,-0.2,-0.15,
1591,-0.195,-0.145,
1592,-0.19,-0.13,
1593,-0.17,-0.14,
1594,-0.18,-0.145,
1595,-0.2,-0.16,
1596,-0.2,-0.175,
1597,-0.185,-0.16,
1598,-0.18,-0.155,
1599,-0.16,-0.15,
1600,-0.165,-0.175,
1601,-0.18,-0.175,
1602,-0.185,-0.175,
1603,-0.17,-0.165,
1604,-0.16,-0.155,
1605,-0.15,-0.15,
1606,-0.15,-0.17,
1607,-0.16,-0.19,
1608,-0.165,-0.185,
1609,-0.17,-0.175,
1610,-0.155,-0.17,
1611,-0.135,-0.16,
1612,-0.145,-0.165,
1613,-0.155,-0.175,
1614,-0.16,-0.19,
1615,-0.15,-0.17,
1616,-0.145,-0.155,
1617,-0.135,-0.155,
1618,-0.135,-0.15,
1619,-0.155,-0.18,
1620,-0.14,-0.18,
1621,-0.14,-0.17,
1622,-0.13,-0.155,
1623,-0.12,-0.16,
1624,-0.125,-0.165,
1625,-0.13,-0.175,
1626,-0.14,-0.16,
1627,-0.135,-0.155,
1628,-0.105,-0.145,
1629,-0.08,-0.135,
1630,-0.085,-0.145,
1631,-0.105,-0.16,
1632,-0.105,-0.16,
1633,-0.1,-0.14,
1634,-0.1,-0.13,
1635,-0.065,-0.12,
1636,-0.06,-0.12,
1637,-0.075,-0.15,
1638,-0.08,-0.13,
1639,-0.07,-0.115,
1640,-0.06,-0.105,
1641,-0.035,-0.105,
1642,-0.04,-0.11,
1643,-0.045,-0.11,
1644,-0.06,-0.085,
1645,-0.035,-0.08,
1646,-0.02,-0.045,
1647,-0.005,-0.045,
1648,-0.01,-0.045,
1649,0.0,-0.05,
1650,0.0,-0.025,
1651,-0.005,0.0,
1652,0.025,0.035,
1653,0.035,0.045,
1654,0.04,0.045,
1655,0.035,0.05,
1656,0.025,0.065,
1657,0.025,0.095,
1658,0.04,0.13,
1659,0.055,0.14,
1660,0.06,0.145,
1661,0.04,0.14,
1662,0.05,0.165,
1663,0.045,0.185,
1664,0.06,0.205,
1665,0.06,0.21,
1666,0.05,0.21,
1667,0.03,0.18,
1668,0.01,0.19,
1669,0.005,0.195,
1670,0.015,0.195,
1671,0.005,0.19,
1672,0.0,0.18,
1673,-0.035,0.15,
1674,-0.05,0.14,
1675,-0.06,0.135,
1676,-0.05,0.135,
1677,-0.05,0.125,
1678,-0.07,0.11,
1679,-0.09,0.085,
1680,-0.1,0.07,
1681,-0.125,0.08,
1682,-0.1,0.07,
1683,-0.105,0.07,
1684,-0.12,0.04,
1685,-0.14,0.03,
1686,-0.15,0.03,
1687,-0.16,0.02,
1688,-0.135,0.04,
1689,-0.14,0.035,
1690,-0.15,0.01,
1691,-0.16,0.015,
1692,-0.17,0.0,
1693,-0.175,0.01,
1694,-0.18,0.03,
1695,-0.15,0.025,
1696,-0.155,0.01,
1697,-0.165,-0.005,
1698,-0.185,0.0,
1699,-0.18,0.01,
1700,-0.17,0.015,
1701,-0.18,0.015,
1702,-0.165,0.0,
1703,-0.185,-0.015,
1704,-0.195,-0.005,
1705,-0.19,0.01,
1706,-0.185,0.025,
1707,-0.16,0.015,
1708,-0.175,0.005,
1709,-0.185,-0.015,
1710,-0.205,-0.015,
1711,-0.185,0.0,
1712,-0.165,-0.005,
1713,-0.17,-0.005,
1714,-0.175,-0.01,
1715,-0.18,-0.025,
1716,-0.195,-0.025,
1717,-0.18,-0.025,
1718,-0.18,-0.02,
1719,-0.17,-0.015,
1720,-0.185,-0.03,
1721,-0.195,-0.03,
1722,-0.195,-0.035,
1723,-0.185,-0.035,
1724,-0.175,-0.01,
1725,-0.175,-0.02,
1726,-0.175,-0.035,
1727,-0.195,-0.04,
1728,-0.215,-0.04,
1729,-0.195,-0.035,
1730,-0.175,-0.025,
1731,-0.17,-0.03,
1732,-0.185,-0.035,
1733,-0.195,-0.04,
1734,-0.2,-0.04,
1735,-0.195,-0.03,
1736,-0.17,-0.02,
1737,-0.17,-0.03,
1738,-0.17,-0.035,
1739,-0.18,-0.04,
1740,-0.19,-0.045,
1741,-0.185,-0.02,
1742,-0.175,-0.015,
1743,-0.16,-0.025,
1744,-0.17,-0.03,
1745,-0.165,-0.04,
1746,-0.185,-0.035,
1747,-0.19,-0.025,
1748,-0.165,-0.005,
1749,-0.16,-0.005,
1750,-0.165,-0.015,
1751,-0.175,-0.03,
1752,-0.19,-0.025,
1753,-0.185,-0.02,
1754,-0.18,0.0,
1755,-0.16,0.01,
1756,-0.165,-0.005,
1757,-0.175,-0.02,
1758,-0.19,-0.015,
1759,-0.18,-0.01,
1760,-0.16,0.01,
1761,-0.15,0.005,
1762,-0.16,-0.005,
1763,-0.175,-0.02,
1764,-0.19,-0.02,
1765,-0.19,-0.005,
1766,-0.185,0.01,
1767,-0.17,0.01,
1768,-0.17,0.01,
1769,-0.195,-0.01,
1770,-0.2,-0.015,
1771,-0.195,-0.01,
1772,-0.2,0.0,
1773,-0.18,0.0,
1774,-0.185,0.005,
1775,-0.195,-0.015,
1776,-0.215,-0.02,
1777,-0.2,-0.01,
1778,-0.2,-0.005,
1779,-0.185,-0.005,
1780,-0.205,-0.005,
1781,-0.195,-0.01,
1782,-0.22,-0.025,
1783,-0.23,-0.015,
1784,-0.21,0.0,
1785,-0.2,-0.005,
1786,-0.205,-0.01,
1787,-0.21,-0.025,
1788,-0.22,-0.01,
1789,-0.21,-0.02,
1790,-0.195,0.005,
1791,-0.185,-0.01,
1792,-0.205,-0.01,
1793,-0.215,-0.025,
1794,-0.225,-0.03,
1795,-0.22,-0.02,
1796,-0.195,-0.01,
1797,-0.2,-0.01,
1798,-0.2,-0.015,
1799,-0.23,-0.025,
1800,-0.23,-0.045,
1801,-0.225,-0.01,
1802,-0.225,-0.015,
1803,-0.225,-0.02,
1804,-0.205,-0.02,
1805,-0.22,-0.03,
1806,-0.245,-0.04,
1807,-0.23,-0.005,
1808,-0.23,0.0,
1809,-0.22,0.0,
1810,-0.21,-0.01,
1811,-0.22,-0.035,
1812,-0.235,-0.025,
1813,-0.225,-0.02,
1814,-0.22,0.005,
1815,-0.205,-0.005,
1816,-0.205,-0.005,
1817,-0.22,-0.02,
1818,-0.225,-0.03,
1819,-0.24,-0.005,
1820,-0.21,0.0,
1821,-0.205,0.0,
1822,-0.215,-0.005,
1823,-0.215,-0.03,
1824,-0.225,-0.025,
1825,-0.22,-0.01,
1826,-0.21,0.0,
1827,-0.215,0.005,
1828,-0.205,-0.015,
1829,-0.23,-0.02,
1830,-0.235,-0.03,
1831,-0.235,-0.01,
1832,-0.22,0.005,
1833,-0.21,0.0,
1834,-0.215,0.005,
1835,-0.215,-0.02,
1836,-0.23,-0.02,
1837,-0.235,-0.015,
1838,-0.225,0.005,
1839,-0.21,0.0,
1840,-0.21,-0.005,
1841,-0.22,-0.02,
1842,-0.235,-0.03,
1843,-0.235,-0.005,
1844,-0.235,0.01,
1845,-0.215,-0.01,
1846,-0.215,-0.02,
1847,-0.24,-0.015,
1848,-0.245,-0.02,
1849,-0.24,0.0,
1850,-0.225,0.005,
1851,-0.21,0.005,
1852,-0.205,-0.01,
1853,-0.23,-0.025,
1854,-0.23,-0.015,
1855,-0.235,-0.02,
1856,-0.205,0.005,
1857,-0.2,0.005,
1858,-0.22,-0.005,
1859,-0.22,-0.02,
1860,-0.24,-0.02,
1861,-0.225,0.0,
1862,-0.2,0.0,
1863,-0.21,0.0,
1864,-0.205,-0.005,
1865,-0.22,-0.03,
1866,-0.235,-0.02,
1867,-0.225,-0.005,
1868,-0.23,-0.005,
1869,-0.22,-0.01,
1870,-0.205,-0.025,
1871,-0.22,-0.03,
1872,-0.22,-0.025,
1873,-0.2,-0.005,
1874,-0.185,0.015,
1875,-0.17,0.015,
1876,-0.17,0.01,
1877,-0.175,0.01,
1878,-0.175,0.01,
1879,-0.17,0.02,
1880,-0.15,0.04,
1881,-0.13,0.05,
1882,-0.145,0.03,
1883,-0.16,0.03,
1884,-0.16,0.04,
1885,-0.155,0.04,
1886,-0.145,0.06,
1887,-0.13,0.06,
1888,-0.135,0.045,
1889,-0.15,0.035,
1890,-0.16,0.03,
1891,-0.165,0.05,
1892,-0.15,0.055,
1893,-0.15,0.045,
1894,-0.17,0.02,
1895,-0.185,-0.005,
1896,-0.21,0.0,
1897,-0.205,0.015,
1898,-0.19,0.015,
1899,-0.175,0.025,
1900,-0.18,0.025,
1901,-0.205,0.01,
1902,-0.21,0.02,
1903,-0.21,0.03,
1904,-0.19,0.065,
1905,-0.17,0.045,
1906,-0.165,0.04,
1907,-0.18,0.025,
1908,-0.185,0.035,
1909,-0.18,0.02,
1910,-0.165,0.015,
1911,-0.17,0.005,
1912,-0.2,-0.015,
1913,-0.23,-0.015,
1914,-0.235,-0.015,
1915,-0.23,-0.005,
1916,-0.215,0.015,
1917,-0.205,0.02,
1918,-0.215,0.01,
1919,-0.23,-0.01,
1920,-0.255,-0.015,
1921,-0.255,-0.01,
1922,-0.245,0.005,
1923,-0.21,0.01,
1924,-0.21,0.0,
1925,-0.235,-0.015,
1926,-0.245,-0.02,
1927,-0.24,-0.02,
1928,-0.24,-0.005,
1929,-0.21,0.0,
1930,-0.22,-0.01,
1931,-0.24,-0.025,
1932,-0.235,-0.02,
1933,-0.235,-0.015,
1934,-0.21,-0.01,
1935,-0.21,0.0,
1936,-0.215,-0.005,
1937,-0.23,-0.03,
1938,-0.235,-0.02,
1939,-0.24,0.0,
1940,-0.225,0.01,
1941,-0.215,0.005,
1942,-0.22,0.005,
1943,-0.22,0.0,
1944,-0.23,-0.005,
1945,-0.23,0.005,
1946,-0.205,0.035,
1947,-0.2,0.05,
1948,-0.195,0.065,
1949,-0.195,0.08,
1950,-0.2,0.11,
1951,-0.185,0.165,
1952,-0.145,0.235,
1953,-0.105,0.29,
1954,-0.08,0.315,
1955,-0.09,0.375,
1956,-0.13,0.495,
1957,-0.185,0.65,
1958,-0.225,0.815,
1959,-0.235,0.97,
1960,-0.275,1.11,
1961,-0.34,1.245,
1962,-0.415,1.38,
1963,-0.455,1.54,
1964,-0.45,1.755,
1965,-0.385,1.955,N
1966,-0.295,2.065,
1967,-0.18,2.06,
1968,-0.085,1.895,
1969,0.025,1.55,
1970,0.075,1.1,
1971,0.01,0.635,
1972,-0.19,0.275,
1973,-0.425,0.07,
1974,-0.595,-0.03,
1975,-0.645,-0.05,
1976,-0.615,-0.035,
1977,-0.56,-0.025,
1978,-0.5,-0.035,
1979,-0.425,-0.04,
1980,-0.33,-0.035,
1981,-0.24,-0.035,
1982,-0.205,-0.035,
1983,-0.19,-0.04,
1984,-0.18,-0.075,
1985,-0.185,-0.085,
1986,-0.2,-0.1,
1987,-0.195,-0.105,
1988,-0.17,-0.095,
1989,-0.17,-0.11,
1990,-0.145,-0.115,
1991,-0.165,-0.125,
1992,-0.16,-0.12,
1993,-0.155,-0.11,
1994,-0.135,-0.105,
1995,-0.115,-0.115,
1996,-0.12,-0.12,
1997,-0.13,-0.125,
1998,-0.15,-0.135,
1999,-0.14,-0.11,
2000,-0.13,-0.1,
2001,-0.115,-0.105,
2002,-0.105,-0.115,
2003,-0.115,-0.135,
2004,-0.13,-0.13,
2005,-0.125,-0.125,
2006,-0.105,-0.11,
2007,-0.095,-0.115,
2008,-0.1,-0.135,
2009,-0.12,-0.145,
2010,-0.12,-0.14,
2011,-0.125,-0.12,
2012,-0.1,-0.11,
2013,-0.095,-0.125,
2014,-0.1,-0.145,
2015,-0.1,-0.15,
2016,-0.12,-0.15,
2017,-0.1,-0.13,
2018,-0.1,-0.13,
2019,-0.08,-0.115,
2020,-0.09,-0.145,
2021,-0.115,-0.15,
2022,-0.12,-0.135,
2023,-0.095,-0.135,
2024,-0.085,-0.12,
2025,-0.095,-0.13,
2026,-0.09,-0.135,
2027,-0.105,-0.14,
2028,-0.1,-0.145,
2029,-0.095,-0.13,
2030,-0.075,-0.125,
2031,-0.075,-0.125,
2032,-0.07,-0.13,
2033,-0.095,-0.155,
2034,-0.095,-0.145,
2035,-0.075,-0.12,
2036,-0.065,-0.12,
2037,-0.055,-0.12,
2038,-0.06,-0.12,
2039,-0.08,-0.14,
2040,-0.095,-0.135,
2041,-0.075,-0.12,
2042,-0.05,-0.1,
2043,-0.04,-0.115,
2044,-0.03,-0.115,
2045,-0.035,-0.12,
2046,-0.06,-0.115,
2047,-0.045,-0.105,
2048,-0.045,-0.09,
2049,-0.025,-0.095,
2050,-0.01,-0.095,
2051,-0.02,-0.1,
2052,-0.03,-0.105,
2053,-0.02,-0.085,
2054,-0.005,-0.07,
2055,0.025,-0.075,
2056,-0.005,-0.07,
2057,0.005,-0.07,
2058,0.01,-0.06,
2059,0.01,-0.04,
2060,0.035,-0.005,
2061,0.04,0.005,
2062,0.045,0.0,
2063,0.035,0.0,
2064,0.045,0.02,
2065,0.06,0.045,
2066,0.075,0.08,
2067,0.09,0.075,
2068,0.09,0.095,
2069,0.08,0.095,
2070,0.075,0.125,
2071,0.08,0.16,
2072,0.1,0.17,
2073,0.115,0.185,
2074,0.105,0.195,
2075,0.1,0.21,
2076,0.09,0.215,
2077,0.085,0.235,
2078,0.1,0.265,
2079,0.1,0.255,
2080,0.095,0.25,
2081,0.07,0.235,
2082,0.05,0.235,
2083,0.055,0.235,
2084,0.06,0.24,
2085,0.065,0.23,
2086,0.035,0.21,
2087,0.02,0.18,
2088,-0.005,0.17,
2089,-0.01,0.165,
2090,-0.01,0.18,
2091,-0.025,0.155,
2092,-0.035,0.13,
2093,-0.06,0.105,
2094,-0.08,0.095,
2095,-0.09,0.1,
2096,-0.085,0.095,
2097,-0.085,0.085,
2098,-0.09,0.07,
2099,-0.115,0.055,
2100,-0.13,0.06,
2101,-0.12,0.065,
2102,-0.115,0.075,
2103,-0.105,0.06,
2104,-0.12,0.05,
2105,-0.135,0.035,
2106,-0.135,0.05,
2107,-0.14,0.045,
2108,-0.14,0.065,
2109,-0.13,0.055,
2110,-0.12,0.055,
2111,-0.15,0.045,
2112,-0.155,0.03,
2113,-0.165,0.05,
2114,-0.15,0.05,
2115,-0.135,0.05,
2116,-0.15,0.05,
2117,-0.165,0.025,
2118,-0.165,0.02,
2119,-0.175,0.035,
2120,-0.16,0.035,
2121,-0.155,0.035,
2122,-0.14,0.025,
2123,-0.17,0.005,
2124,-0.185,0.015,
2125,-0.175,0.03,
2126,-0.155,0.04,
2127,-0.145,0.03,
2128,-0.155,0.015,
2129,-0.17,-0.005,
2130,-0.175,0.005,
2131,-0.165,0.01,
2132,-0.16,0.035,
2133,-0.14,0.03,
2134,-0.16,0.015,
2135,-0.165,-0.005,
2136,-0.175,0.005,
2137,-0.18,0.01,
2138,-0.15,0.02,
2139,-0.145,0.025,
2140,-0.155,0.01,
2141,-0.17,-0.01,
2142,-0.185,0.0,
2143,-0.175,0.005,
2144,-0.155,0.015,
2145,-0.15,0.02,
2146,-0.15,0.02,
2147,-0.17,0.01,
2148,-0.165,0.02,
2149,-0.16,0.025,
2150,-0.155,0.04,
2151,-0.15,0.03,
2152,-0.145,0.025,
2153,-0.16,0.005,
2154,-0.175,0.015,
2155,-0.165,0.03,
2156,-0.15,0.05,
2157,-0.145,0.03,
2158,-0.14,0.03,
2159,-0.16,0.005,
2160,-0.16,0.02,
2161,-0.165,0.03,
2162,-0.155,0.035,
2163,-0.135,0.025,
2164,-0.155,0.025,
2165,-0.16,0.015,
2166,-0.18,0.015,
2167,-0.175,0.015,
2168,-0.18,0.035,
2169,-0.16,0.03,
2170,-0.17,0.02,
2171,-0.17,0.01,
2172,-0.18,0.015,
2173,-0.175,0.025,
2174,-0.16,0.025,
2175,-0.16,0.025,
2176,-0.175,0.02,
2177,-0.18,0.015,
2178,-0.205,0.01,
2179,-0.2,0.015,
2180,-0.185,0.03,
2181,-0.17,0.035,
2182,-0.18,0.005,
2183,-0.19,0.0,
2184,-0.21,0.005,
2185,-0.205,0.015,
2186,-0.19,0.025,
2187,-0.18,0.02,
2188,-0.17,0.015,
2189,-0.195,0.005,
2190,-0.205,0.0,
2191,-0.205,0.015,
2192,-0.205,0.02,
2193,-0.185,0.01,
2194,-0.19,0.015,
2195,-0.195,-0.005,
2196,-0.205,0.005,
2197,-0.2,0.01,
2198,-0.195,0.025,
2199,-0.18,0.02,
2200,-0.19,0.005,
2201,-0.21,-0.01,
2202,-0.21,0.0,
2203,-0.205,0.0,
2204,-0.2,0.02,
2205,-0.185,0.015,
2206,-0.185,0.01,
2207,-0.21,-0.015,
2208,-0.225,-0.015,
2209,-0.195,0.005,
2210,-0.19,0.015,
2211,-0.18,0.01,
2212,-0.195,0.015,
2213,-0.2,-0.01,
2214,-0.22,-0.005,
2215,-0.21,0.005,
2216,-0.205,0.01,
2217,-0.19,0.0,
2218,-0.2,-0.005,
2219,-0.22,-0.01,
2220,-0.23,0.0,
2221,-0.22,0.0,
2222,-0.205,0.015,
2223,-0.19,0.025,
2224,-0.2,-0.005,
2225,-0.21,-0.01,
2226,-0.22,-0.02,
2227,-0.225,0.0,
2228,-0.22,0.015,
2229,-0.21,0.01,
2230,-0.205,0.01,
2231,-0.215,-0.005,
2232,-0.225,-0.005,
2233,-0.23,0.0,
2234,-0.205,0.015,
2235,-0.195,0.01,
2236,-0.21,-0.005,
2237,-0.21,-0.015,
2238,-0.235,-0.005,
2239,-0.22,0.01,
2240,-0.205,0.015,
2241,-0.215,0.025,
2242,-0.23,0.015,
2243,-0.225,-0.01,
2244,-0.245,-0.01,
2245,-0.235,0.005,
2246,-0.215,0.015,
2247,-0.205,0.02,
2248,-0.215,0.0,
2249,-0.225,-0.005,
2250,-0.235,-0.005,
2251,-0.24,0.01,
2252,-0.22,0.02,
2253,-0.2,0.01,
2254,-0.215,0.01,
2255,-0.23,0.0,
2256,-0.225,0.005,
2257,-0.225,0.005,
2258,-0.215,0.02,
2259,-0.2,0.02,
2260,-0.21,0.01,
2261,-0.215,-0.01,
2262,-0.22,0.0,
2263,-0.225,0.015,
2264,-0.205,0.02,
2265,-0.2,0.025,
2266,-0.205,0.01,
2267,-0.205,0.0,
2268,-0.24,0.005,
2269,-0.21,0.02,
2270,-0.205,0.045,
2271,-0.18,0.03,
2272,-0.175,0.02,
2273,-0.18,0.01,
2274,-0.185,0.035,
2275,-0.18,0.055,
2276,-0.165,0.065,
2277,-0.14,0.065,
2278,-0.15,0.055,
2279,-0.165,0.045,
2280,-0.17,0.055,
2281,-0.16,0.07,
2282,-0.125,0.085,
2283,-0.12,0.085,
2284,-0.12,0.075,
2285,-0.14,0.07,
2286,-0.145,0.075,
2287,-0.15,0.09,
2288,-0.145,0.095,
2289,-0.145,0.08,
2290,-0.15,0.055,
2291,-0.175,0.05,
2292,-0.195,0.045,
2293,-0.2,0.05,
2294,-0.195,0.075,
2295,-0.18,0.08,
2296,-0.19,0.085,
2297,-0.205,0.05,
2298,-0.215,0.07,
2299,-0.2,0.06,
2300,-0.19,0.08,
2301,-0.16,0.075,
2302,-0.155,0.07,
2303,-0.175,0.06,
2304,-0.175,0.06,
2305,-0.185,0.055,
2306,-0.16,0.055,
2307,-0.16,0.045,
2308,-0.19,0.02,
2309,-0.22,0.005,
2310,-0.225,0.01,
2311,-0.23,0.025,
2312,-0.215,0.035,
2313,-0.2,0.025,
2314,-0.21,0.02,
2315,-0.21,0.005,
2316,-0.23,0.005,
2317,-0.24,0.015,
2318,-0.22,0.025,
2319,-0.215,0.02,
2320,-0.23,0.005,
2321,-0.255,-0.005,
2322,-0.25,0.0,
2323,-0.24,0.015,
2324,-0.215,0.03,
2325,-0.21,0.015,
2326,-0.22,0.0,
2327,-0.235,-0.005,
2328,-0.245,-0.005,
2329,-0.235,0.025,
2330,-0.22,0.03,
2331,-0.21,0.015,
2332,-0.215,0.005,
2333,-0.24,-0.005,
2334,-0.24,0.005,
2335,-0.245,0.02,
2336,-0.22,0.04,
2337,-0.21,0.03,
2338,-0.215,0.03,
2339,-0.24,0.035,
2340,-0.235,0.035,
2341,-0.22,0.05,
2342,-0.21,0.08,
2343,-0.19,0.105,
2344,-0.19,0.14,
2345,-0.195,0.18,
2346,-0.175,0.245,
2347,-0.12,0.31,
2348,-0.075,0.38,
2349,-0.075,0.46,
2350,-0.14,0.58,
2351,-0.215,0.74,
2352,-0.28,0.9,
2353,-0.32,1.09,
2354,-0.345,1.25,
2355,-0.415,1.39,
2356,-0.48,1.545,
2357,-0.5,1.74,
2358,-0.455,1.96,N
2359,-0.355,2.095,
2360,-0.205,2.065,
2361,-0.065,1.82,
2362,0.015,1.38,
2363,0.0,0.845,
2364,-0.14,0.41,
2365,-0.37,0.155,
2366,-0.575,0.035,
2367,-0.655,-0.02,
2368,-0.645,-0.045,
2369,-0.615,-0.04,
2370,-0.55,-0.005,
2371,-0.435,0.0,
2372,-0.325,-0.005,
2373,-0.25,-0.01,
2374,-0.235,-0.02,
2375,-0.235,-0.04,
2376,-0.235,-0.05,
2377,-0.23,-0.055,
2378,-0.21,-0.05,
2379,-0.21,-0.065,
2380,-0.185,-0.075,
2381,-0.2,-0.1,
2382,-0.205,-0.095,
2383,-0.19,-0.08,
2384,-0.18,-0.055,
2385,-0.165,-0.065,
2386,-0.165,-0.08,
2387,-0.16,-0.1,
2388,-0.175,-0.09,
2389,-0.155,-0.085,
2390,-0.14,-0.08,
2391,-0.13,-0.075,
2392,-0.14,-0.085,
2393,-0.15,-0.09,
2394,-0.155,-0.1,
2395,-0.14,-0.09,
2396,-0.125,-0.085,
2397,-0.12,-0.085,
2398,-0.14,-0.095,
2399,-0.145,-0.1,
2400,-0.14,-0.1,
2401,-0.14,-0.1,
2402,-0.12,-0.085,
2403,-0.115,-0.095,
2404,-0.125,-0.11,
2405,-0.13,-0.125,
2406,-0.155,-0.115,
2407,-0.13,-0.095,
2408,-0.115,-0.075,
2409,-0.115,-0.085,
2410,-0.11,-0.105,
2411,-0.12,-0.12,
2412,-0.125,-0.12,
2413,-0.115,-0.105,
2414,-0.115,-0.09,
2415,-0.095,-0.09,
2416,-0.1,-0.105,
2417,-0.11,-0.1,
2418,-0.12,-0.095,
2419,-0.11,-0.09,
2420,-0.105,-0.09,
2421,-0.085,-0.085,
2422,-0.08,-0.1,
2423,-0.11,-0.11,
2424,-0.115,-0.095,
2425,-0.09,-0.09,
2426,-0.07,-0.065,
2427,-0.06,-0.08,
2428,-0.065,-0.085,
2429,-0.08,-0.1,
2430,-0.075,-0.085,
2431,-0.07,-0.075,
2432,-0.04,-0.06,
2433,-0.035,-0.055,
2434,-0.045,-0.065,
2435,-0.06,-0.065,
2436,-0.07,-0.075,
2437,-0.045,-0.055,
2438,-0.035,-0.025,
2439,-0.03,-0.03,
2440,-0.03,-0.03,
2441,-0.035,-0.03,
2442,-0.035,-0.02,
2443,-0.025,-0.005,
2444,-0.005,0.005,
2445,0.02,0.01,
2446,0.02,0.015,
2447,0.0,0.03,
2448,0.005,0.05,
2449,0.015,0.06,
2450,0.03,0.095,
2451,0.06,0.095,
2452,0.055,0.105,
2453,0.045,0.115,
2454,0.05,0.14,
2455,0.055,0.17,
2456,0.075,0.2,
2457,0.09,0.2,
2458,0.08,0.215,
2459,0.07,0.215,
2460,0.055,0.235,
2461,0.055,0.265,
2462,0.07,0.29,
2463,0.075,0.28,
2464,0.06,0.275,
2465,0.03,0.255,
2466,0.025,0.245,
2467,0.005,0.255,
2468,0.015,0.25,
2469,0.015,0.245,
2470,-0.005,0.22,
2471,-0.025,0.185,
2472,-0.05,0.175,
2473,-0.065,0.165,
2474,-0.06,0.15,
2475,-0.07,0.14,
2476,-0.09,0.12,
2477,-0.12,0.1,
2478,-0.135,0.1,
2479,-0.14,0.1,
2480,-0.145,0.095,
2481,-0.135,0.085,
2482,-0.15,0.075,
2483,-0.16,0.06,
2484,-0.165,0.065,
2485,-0.17,0.065,
2486,-0.17,0.07,
2487,-0.16,0.07,
2488,-0.17,0.05,
2489,-0.185,0.035,
2490,-0.19,0.04,
2491,-0.19,0.06,
2492,-0.19,0.065,
2493,-0.185,0.055,
2494,-0.18,0.04,
2495,-0.19,0.02,
2496,-0.195,0.04,
2497,-0.2,0.03,
2498,-0.185,0.04,
2499,-0.175,0.035,
2500,-0.185,0.015,
2501,-0.19,0.015,
2502,-0.21,0.02,
2503,-0.21,0.02,
2504,-0.2,0.025,
2505,-0.2,0.015,
2506,-0.2,0.0,
2507,-0.205,0.0,
2508,-0.225,-0.005,
2509,-0.225,0.005,
2510,-0.2,0.025,
2511,-0.19,0.01,
2512,-0.2,-0.005,
2513,-0.205,-0.03,
2514,-0.23,-0.025,
2515,-0.215,-0.005,
2516,-0.22,0.005,
2517,-0.195,0.0,
2518,-0.19,0.0,
2519,-0.215,-0.01,
2520,-0.23,-0.01,
2521,-0.22,-0.005,
2522,-0.21,0.005,
2523,-0.19,0.01,
2524,-0.195,-0.005,
2525,-0.225,-0.015,
2526,-0.225,-0.005,
2527,-0.23,0.015,
2528,-0.2,0.015,
2529,-0.2,0.01,
2530,-0.21,-0.005,
2531,-0.235,-0.005,
2532,-0.23,0.0,
2533,-0.22,0.01,
2534,-0.22,0.015,
2535,-0.2,0.025,
2536,-0.215,0.0,
2537,-0.225,-0.005,
2538,-0.25,-0.01,
2539,-0.235,0.015,
2540,-0.225,0.03,
2541,-0.21,0.01,
2542,-0.195,-0.005,
2543,-0.225,0.0,
2544,-0.235,0.0,
2545,-0.225,0.0,
2546,-0.22,0.005,
2547,-0.225,0.005,
2548,-0.21,-0.01,
2549,-0.23,-0.01,
2550,-0.24,-0.02,
2551,-0.23,0.0,
2552,-0.225,-0.005,
2553,-0.23,-0.01,
2554,-0.25,-0.015,
2555,-0.26,-0.015,
2556,-0.26,-0.02,
2557,-0.25,0.0,
2558,-0.245,0.0,
2559,-0.23,-0.015,
2560,-0.245,-0.025,
2561,-0.255,-0.04,
2562,-0.27,-0.03,
2563,-0.27,-0.02,
2564,-0.25,0.0,
2565,-0.24,0.0,
2566,-0.255,-0.015,
2567,-0.26,-0.025,
2568,-0.255,-0.01,
2569,-0.26,-0.015,
2570,-0.25,0.0,
2571,-0.24,-0.005,
2572,-0.26,-0.01,
2573,-0.265,-0.03,
2574,-0.28,-0.01,
2575,-0.255,-0.015,
2576,-0.255,-0.005,
2577,-0.25,-0.01,
2578,-0.25,-0.025,
2579,-0.26,-0.05,
2580,-0.28,-0.025,
2581,-0.275,-0.03,
2582,-0.26,0.0,
2583,-0.25,-0.005,
2584,-0.255,-0.03,
2585,-0.29,-0.035,
2586,-0.28,-0.03,
2587,-0.28,-0.025,
2588,-0.26,-0.005,
2589,-0.25,-0.015,
2590,-0.25,-0.015,
2591,-0.27,-0.04,
2592,-0.275,-0.02,
2593,-0.27,-0.025,
2594,-0.255,-0.02,
2595,-0.255,-0.02,
2596,-0.25,-0.015,
2597,-0.28,-0.02,
2598,-0.285,-0.025,
2599,-0.27,-0.01,
2600,-0.265,0.0,
2601,-0.255,-0.015,
2602,-0.265,-0.035,
2603,-0.28,-0.04,
2604,-0.28,-0.035,
2605,-0.29,-0.02,
2606,-0.26,-0.015,
2607,-0.26,-0.015,
2608,-0.265,-0.03,
2609,-0.275,-0.03,
2610,-0.29,-0.03,
2611,-0.275,-0.015,
2612,-0.27,-0.02,
2613,-0.265,-0.015,
2614,-0.27,-0.025,
2615,-0.285,-0.035,
2616,-0.29,-0.03,
2617,-0.29,-0.03,
2618,-0.265,-0.005,
2619,-0.255,-0.01,
2620,-0.265,-0.02,
2621,-0.285,-0.04,
2622,-0.285,-0.025,
2623,-0.28,-0.02,
2624,-0.27,-0.005,
2625,-0.265,-0.005,
2626,-0.26,-0.025,
2627,-0.28,-0.03,
2628,-0.285,-0.025,
2629,-0.28,-0.025,
2630,-0.265,-0.01,
2631,-0.265,-0.02,
2632,-0.265,-0.025,
2633,-0.285,-0.035,
2634,-0.29,-0.025,
2635,-0.27,-0.02,
2636,-0.27,0.0,
2637,-0.26,-0.005,
2638,-0.26,-0.03,
2639,-0.285,-0.03,
2640,-0.29,-0.025,
2641,-0.275,-0.01,
2642,-0.265,0.0,
2643,-0.26,-0.015,
2644,-0.255,-0.025,
2645,-0.275,-0.04,
2646,-0.285,-0.025,
2647,-0.26,-0.015,
2648,-0.245,0.005,
2649,-0.23,0.005,
2650,-0.22,0.005,
2651,-0.23,0.005,
2652,-0.24,0.005,
2653,-0.235,0.025,
2654,-0.22,0.03,
2655,-0.21,0.03,
2656,-0.215,0.02,
2657,-0.225,0.02,
2658,-0.22,0.025,
2659,-0.205,0.035,
2660,-0.195,0.04,
2661,-0.195,0.04,
2662,-0.195,0.025,
2663,-0.205,0.015,
2664,-0.215,0.02,
2665,-0.21,0.02,
2666,-0.2,0.025,
2667,-0.195,0.015,
2668,-0.225,0.01,
2669,-0.25,0.0,
2670,-0.27,0.005,
2671,-0.26,0.015,
2672,-0.25,0.035,
2673,-0.235,0.025,
2674,-0.235,0.02,
2675,-0.26,0.01,
2676,-0.265,0.03,
2677,-0.255,0.035,
2678,-0.24,0.04,
2679,-0.22,0.03,
2680,-0.235,0.015,
2681,-0.235,-0.01,
2682,-0.235,-0.02,
2683,-0.235,-0.005,
2684,-0.23,-0.005,
2685,-0.24,-0.015,
2686,-0.25,-0.025,
2687,-0.29,-0.035,
2688,-0.31,-0.015,
2689,-0.295,-0.01,
2690,-0.275,-0.005,
2691,-0.275,-0.005,
2692,-0.275,-0.015,
2693,-0.29,-0.03,
2694,-0.295,-0.02,
2695,-0.285,-0.015,
2696,-0.275,-0.015,
2697,-0.265,-0.025,
2698,-0.28,-0.02,
2699,-0.295,-0.035,
2700,-0.31,-0.035,
2701,-0.3,-0.025,
2702,-0.285,-0.005,
2703,-0.285,-0.015,
2704,-0.285,-0.035,
2705,-0.295,-0.03,
2706,-0.315,-0.035,
2707,-0.3,-0.015,
2708,-0.29,-0.015,
2709,-0.275,-0.015,
2710,-0.29,-0.025,
2711,-0.31,-0.045,
2712,-0.3,-0.02,
2713,-0.29,-0.015,
2714,-0.28,0.01,
2715,-0.27,0.01,
2716,-0.275,0.0,
2717,-0.285,-0.02,
2718,-0.285,-0.015,
2719,-0.285,0.015,
2720,-0.28,0.025,
2721,-0.255,0.02,
2722,-0.27,0.025,
2723,-0.275,0.035,
2724,-0.28,0.06,
2725,-0.265,0.115,
2726,-0.225,0.145,
2727,-0.215,0.175,
2728,-0.18,0.235,
2729,-0.17,0.265,
2730,-0.17,0.29,
2731,-0.165,0.37,
2732,-0.19,0.465,
2733,-0.25,0.585,
2734,-0.31,0.7,
2735,-0.355,0.82,
2736,-0.41,0.96,
2737,-0.46,1.11,
2738,-0.54,1.26,
2739,-0.61,1.385,
2740,-0.64,1.52,
2741,-0.63,1.695,
2742,-0.57,1.875,N
2743,-0.48,2.0,
2744,-0.345,2.025,
2745,-0.21,1.86,
2746,-0.095,1.52,
2747,-0.065,1.06,
2748,-0.11,0.615,
2749,-0.265,0.315,
2750,-0.46,0.135,
2751,-0.605,0.02,
2752,-0.655,-0.04,
2753,-0.655,-0.04,
2754,-0.63,-0.03,
2755,-0.53,-0.01,
2756,-0.425,-0.005,
2757,-0.345,-0.02,
2758,-0.3,-0.03,
2759,-0.29,-0.05,
2760,-0.285,-0.06,
2761,-0.28,-0.06,
2762,-0.26,-0.065,
2763,-0.245,-0.095,
2764,-0.26,-0.105,
2765,-0.265,-0.12,
2766,-0.26,-0.12,
2767,-0.255,-0.105,
2768,-0.235,-0.09,
2769,-0.22,-0.1,
2770,-0.205,-0.12,
2771,-0.235,-0.14,
2772,-0.235,-0.125,
2773,-0.215,-0.115,
2774,-0.205,-0.1,
2775,-0.2,-0.1,
2776,-0.19,-0.12,
2777,-0.205,-0.14,
2778,-0.195,-0.135,
2779,-0.2,-0.11,
2780,-0.205,-0.095,
2781,-0.19,-0.11,
2782,-0.195,-0.115,
2783,-0.195,-0.125,
2784,-0.2,-0.125,
2785,-0.19,-0.12,
2786,-0.195,-0.1,
2787,-0.17,-0.115,
2788,-0.18,-0.135,
2789,-0.185,-0.14,
2790,-0.215,-0.145,
2791,-0.205,-0.12,
2792,-0.185,-0.105,
2793,-0.175,-0.13,
2794,-0.185,-0.15,
2795,-0.195,-0.15,
2796,-0.19,-0.145,
2797,-0.205,-0.13,
2798,-0.18,-0.105,
2799,-0.165,-0.12,
2800,-0.185,-0.145,
2801,-0.19,-0.15,
2802,-0.19,-0.135,
2803,-0.205,-0.13,
2804,-0.175,-0.12,
2805,-0.165,-0.135,
2806,-0.18,-0.13,
2807,-0.175,-0.145,
2808,-0.185,-0.14,
2809,-0.17,-0.135,
2810,-0.16,-0.12,
2811,-0.15,-0.115,
2812,-0.16,-0.13,
2813,-0.16,-0.14,
2814,-0.165,-0.13,
2815,-0.15,-0.135,
2816,-0.145,-0.125,
2817,-0.14,-0.13,
2818,-0.165,-0.14,
2819,-0.16,-0.125,
2820,-0.17,-0.12,
2821,-0.16,-0.115,
2822,-0.135,-0.1,
2823,-0.135,-0.12,
2824,-0.13,-0.125,
2825,-0.14,-0.135,
2826,-0.135,-0.135,
2827,-0.13,-0.115,
2828,-0.13,-0.095,
2829,-0.105,-0.09,
2830,-0.11,-0.105,
2831,-0.12,-0.11,
2832,-0.125,-0.11,
2833,-0.11,-0.095,
2834,-0.09,-0.085,
2835,-0.09,-0.08,
2836,-0.095,-0.09,
2837,-0.105,-0.1,
2838,-0.1,-0.075,
2839,-0.085,-0.065,
2840,-0.07,-0.035,
2841,-0.065,-0.055,
2842,-0.06,-0.055,
2843,-0.075,-0.05,
2844,-0.075,-0.04,
2845,-0.065,-0.02,
2846,-0.045,0.015,
2847,-0.03,0.015,
2848,-0.035,0.02,
2849,-0.04,0.025,
2850,-0.045,0.04,
2851,-0.035,0.06,
2852,-0.02,0.1,
2853,0.0,0.1,
2854,-0.01,0.11,
2855,-0.01,0.125,
2856,-0.02,0.135,
2857,-0.01,0.17,
2858,0.005,0.19,
2859,0.015,0.2,
2860,0.0,0.195,
2861,0.0,0.195,
2862,-0.01,0.205,
2863,-0.005,0.23,
2864,0.0,0.25,
2865,0.0,0.245,
2866,-0.005,0.23,
2867,-0.015,0.235,
2868,-0.04,0.235,
2869,-0.04,0.22,
2870,-0.05,0.24,
2871,-0.05,0.205,
2872,-0.065,0.195,
2873,-0.09,0.17,
2874,-0.1,0.175,
2875,-0.115,0.175,
2876,-0.105,0.17,
2877,-0.11,0.16,
2878,-0.125,0.14,
2879,-0.135,0.115,
2880,-0.155,0.11,
2881,-0.15,0.1,
2882,-0.145,0.125,
2883,-0.14,0.11,
2884,-0.16,0.09,
2885,-0.18,0.07,
2886,-0.185,0.075,
2887,-0.2,0.095,
2888,-0.17,0.1,
2889,-0.165,0.085,
2890,-0.17,0.065,
2891,-0.195,0.07,
2892,-0.2,0.055,
2893,-0.195,0.085,
2894,-0.185,0.085,
2895,-0.18,0.065,
2896,-0.185,0.06,
2897,-0.225,0.05,
2898,-0.22,0.055,
2899,-0.215,0.075,
2900,-0.2,0.07,
2901,-0.19,0.075,
2902,-0.21,0.07,
2903,-0.215,0.05,
2904,-0.225,0.055,
2905,-0.225,0.07,
2906,-0.21,0.065,
2907,-0.195,0.06,
2908,-0.21,0.055,
2909,-0.22,0.045,
2910,-0.225,0.035,
2911,-0.22,0.065,
2912,-0.205,0.075,
2913,-0.2,0.055,
2914,-0.21,0.055,
2915,-0.22,0.025,
2916,-0.24,0.035,
2917,-0.23,0.035,
2918,-0.2,0.045,
2919,-0.2,0.04,
2920,-0.215,0.025,
2921,-0.22,0.015,
2922,-0.225,0.02,
2923,-0.215,0.025,
2924,-0.19,0.03,
2925,-0.205,0.025,
2926,-0.2,0.02,
2927,-0.21,0.015,
2928,-0.225,0.025,
2929,-0.21,0.03,
2930,-0.195,0.035,
2931,-0.195,0.03,
2932,-0.2,0.02,
2933,-0.21,0.01,
2934,-0.235,0.005,
2935,-0.23,0.015,
2936,-0.2,0.04,
2937,-0.185,0.035,
2938,-0.205,0.035,
2939,-0.21,0.025,
2940,-0.215,0.025,
2941,-0.21,0.04,
2942,-0.2,0.04,
2943,-0.19,0.035,
2944,-0.19,0.02,
2945,-0.205,0.01,
2946,-0.22,0.025,
2947,-0.205,0.04,
2948,-0.185,0.05,
2949,-0.185,0.05,
2950,-0.19,0.04,
2951,-0.215,0.025,
2952,-0.225,0.025,
2953,-0.2,0.035,
2954,-0.185,0.045,
2955,-0.185,0.025,
2956,-0.19,0.02,
2957,-0.2,0.01,
2958,-0.21,0.03,
2959,-0.205,0.03,
2960,-0.185,0.035,
2961,-0.19,0.035,
2962,-0.195,0.03,
2963,-0.205,0.02,
2964,-0.21,0.03,
2965,-0.2,0.035,
2966,-0.205,0.045,
2967,-0.2,0.045,
2968,-0.195,0.03,
2969,-0.22,0.03,
2970,-0.225,0.01,
2971,-0.235,0.025,
2972,-0.225,0.045,
2973,-0.215,0.045,
2974,-0.22,0.025,
2975,-0.22,0.015,
2976,-0.225,0.015,
2977,-0.225,0.02,
2978,-0.205,0.025,
2979,-0.21,0.03,
2980,-0.21,0.025,
2981,-0.24,0.005,
2982,-0.24,0.02,
2983,-0.235,0.03,
2984,-0.21,0.04,
2985,-0.21,0.03,
2986,-0.21,0.02,
2987,-0.225,-0.005,
2988,-0.24,-0.005,
2989,-0.225,0.02,
2990,-0.21,0.025,
2991,-0.215,0.02,
2992,-0.22,0.015,
2993,-0.23,-0.005,
2994,-0.24,0.0,
2995,-0.225,0.02,
2996,-0.23,0.03,
2997,-0.205,0.025,
2998,-0.22,0.01,
2999,-0.25,0.015,
3000,-0.245,0.01,
3001,-0.23,0.015,
3002,-0.22,0.035,
3003,-0.2,0.02,
3004,-0.215,0.0,
3005,-0.23,0.005,
3006,-0.245,0.0,
3007,-0.235,0.015,
3008,-0.215,0.03,
3009,-0.21,0.035,
3010,-0.225,0.025,
3011,-0.225,0.005,
3012,-0.23,0.005,
3013,-0.235,0.015,
3014,-0.205,0.02,
3015,-0.22,0.025,
3016,-0.22,0.01,
3017,-0.24,0.01,
3018,-0.235,0.01,
3019,-0.245,0.015,
3020,-0.215,0.03,
3021,-0.205,0.02,
3022,-0.22,0.01,
3023,-0.255,0.0,
3024,-0.25,0.015,
3025,-0.235,0.015,
3026,-0.215,0.035,
3027,-0.22,0.01,
3028,-0.225,0.02,
3029,-0.23,-0.01,
3030,-0.235,0.01,
3031,-0.23,0.03,
3032,-0.215,0.03,
3033,-0.22,0.025,
3034,-0.22,0.01,
3035,-0.235,0.005,
3036,-0.24,0.005,
3037,-0.225,0.02,
3038,-0.215,0.015,
3039,-0.215,0.03,
3040,-0.21,0.025,
3041,-0.225,0.02,
3042,-0.215,0.02,
3043,-0.23,0.04,
3044,-0.205,0.035,
3045,-0.195,0.04,
3046,-0.205,0.01,
3047,-0.23,0.015,
3048,-0.245,0.025,
3049,-0.21,0.04,
3050,-0.21,0.05,
3051,-0.2,0.03,
3052,-0.2,0.01,
3053,-0.225,0.005,
3054,-0.22,0.02,
3055,-0.22,0.015,
3056,-0.195,0.035,
3057,-0.195,0.035,
3058,-0.2,0.025,
3059,-0.21,0.005,
3060,-0.215,0.025,
3061,-0.21,0.035,
3062,-0.195,0.04,
3063,-0.19,0.03,
3064,-0.205,0.02,
3065,-0.22,0.015,
3066,-0.225,0.025,
3067,-0.21,0.035,
3068,-0.195,0.06,
3069,-0.185,0.045,
3070,-0.19,0.035,
3071,-0.2,0.03,
3072,-0.19,0.03,
3073,-0.19,0.045,
3074,-0.17,0.06,
3075,-0.16,0.07,
3076,-0.17,0.055,
3077,-0.16,0.06,
3078,-0.165,0.065,
3079,-0.185,0.08,
3080,-0.15,0.085,
3081,-0.14,0.09,
3082,-0.14,0.085,
3083,-0.145,0.065,
3084,-0.13,0.08,
3085,-0.13,0.095,
3086,-0.13,0.095,
3087,-0.125,0.095,
3088,-0.135,0.08,
3089,-0.145,0.075,
3090,-0.17,0.07,
3091,-0.165,0.065,
3092,-0.165,0.08,
3093,-0.175,0.08,
3094,-0.18,0.055,
3095,-0.195,0.04,
3096,-0.2,0.055,
3097,-0.195,0.07,
3098,-0.175,0.08,
3099,-0.17,0.07,
3100,-0.19,0.065,
3101,-0.195,0.075,
3102,-0.19,0.07,
3103,-0.18,0.07,
3104,-0.155,0.095,
3105,-0.15,0.08,
3106,-0.155,0.065,
3107,-0.16,0.035,
3108,-0.18,0.045,
3109,-0.175,0.045,
3110,-0.165,0.055,
3111,-0.195,0.04,
3112,-0.205,0.04,
3113,-0.21,0.015,
3114,-0.23,0.015,
3115,-0.21,0.03,
3116,-0.21,0.04,
3117,-0.2,0.035,
3118,-0.2,0.03,
3119,-0.215,0.01,
3120,-0.215,0.02,
3121,-0.225,0.03,
3122,-0.19,0.04,
3123,-0.195,0.035,
3124,-0.2,0.02,
3125,-0.225,0.01,
3126,-0.23,0.015,
3127,-0.215,0.03,
3128,-0.205,0.04,
3129,-0.2,0.02,
3130,-0.205,0.025,
3131,-0.22,-0.01,
3132,-0.23,0.015,
3133,-0.225,0.015,
3134,-0.205,0.03,
3135,-0.22,0.035,
3136,-0.225,0.025,
3137,-0.235,0.0,
3138,-0.25,0.0,
3139,-0.22,0.015,
3140,-0.2,0.03,
3141,-0.195,0.02,
3142,-0.2,0.015,
3143,-0.22,0.015,
3144,-0.215,0.02,
3145,-0.215,0.045,
3146,-0.185,0.065,
3147,-0.175,0.07,
3148,-0.185,0.075,
3149,-0.195,0.095,
3150,-0.18,0.13,
3151,-0.16,0.185,
3152,-0.13,0.255,
3153,-0.115,0.31,
3154,-0.085,0.35,
3155,-0.11,0.4,
3156,-0.165,0.52,
3157,-0.235,0.66,
3158,-0.28,0.83,
3159,-0.325,0.995,
3160,-0.355,1.14,
3161,-0.435,1.29,
3162,-0.505,1.455,
3163,-0.55,1.64,
3164,-0.54,1.835,
3165,-0.49,2.045,
3166,-0.415,2.205,N
3167,-0.31,2.24,
3168,-0.2,2.175,
3169,-0.075,1.965,
3170,0.005,1.635,
3171,0.03,1.225,
3172,-0.045,0.8,
3173,-0.205,0.475,
3174,-0.39,0.245,
3175,-0.525,0.095,
3176,-0.575,0.025,
3177,-0.575,-0.005,
3178,-0.56,0.0,
3179,-0.52,-0.01,
3180,-0.425,0.0,
3181,-0.32,0.01,
3182,-0.23,0.005,
3183,-0.21,0.0,
3184,-0.2,-0.04,
3185,-0.2,-0.05,
3186,-0.19,-0.075,
3187,-0.18,-0.07,
3188,-0.155,-0.065,
3189,-0.145,-0.08,
3190,-0.15,-0.085,
3191,-0.15,-0.105,
3192,-0.155,-0.095,
3193,-0.145,-0.085,
3194,-0.12,-0.08,
3195,-0.125,-0.085,
3196,-0.12,-0.1,
3197,-0.13,-0.11,
3198,-0.14,-0.12,
3199,-0.13,-0.09,
3200,-0.1,-0.085,
3201,-0.09,-0.09,
3202,-0.11,-0.105,
3203,-0.11,-0.11,
3204,-0.12,-0.12,
3205,-0.115,-0.11,
3206,-0.1,-0.09,
3207,-0.09,-0.105,
3208,-0.11,-0.11,
3209,-0.11,-0.125,
3210,-0.115,-0.125,
3211,-0.115,-0.125,
3212,-0.11,-0.12,
3213,-0.09,-0.125,
3214,-0.095,-0.135,
3215,-0.105,-0.145,
3216,-0.105,-0.15,
3217,-0.08,-0.125,
3218,-0.08,-0.12,
3219,-0.065,-0.125,
3220,-0.07,-0.135,
3221,-0.095,-0.165,
3222,-0.105,-0.15,
3223,-0.075,-0.135,
3224,-0.065,-0.12,
3225,-0.055,-0.13,
3226,-0.075,-0.145,
3227,-0.08,-0.145,
3228,-0.08,-0.145,
3229,-0.075,-0.13,
3230,-0.06,-0.13,
3231,-0.045,-0.135,
3232,-0.06,-0.14,
3233,-0.07,-0.15,
3234,-0.075,-0.13,
3235,-0.07,-0.125,
3236,-0.045,-0.125,
3237,-0.05,-0.125,
3238,-0.05,-0.15,
3239,-0.05,-0.155,
3240,-0.05,-0.14,
3241,-0.04,-0.13,
3242,-0.015,-0.115,
3243,-0.01,-0.12,
3244,-0.005,-0.13,
3245,-0.025,-0.14,
3246,-0.04,-0.135,
3247,-0.02,-0.115,
3248,0.005,-0.105,
3249,0.015,-0.095,
3250,0.015,-0.105,
3251,0.005,-0.115,
3252,0.005,-0.11,
3253,0.025,-0.085,
3254,0.04,-0.08,
3255,0.05,-0.085,
3256,0.045,-0.095,
3257,0.03,-0.095,
3258,0.03,-0.07,
3259,0.05,-0.05,
3260,0.05,-0.035,
3261,0.07,-0.025,
3262,0.065,-0.025,
3263,0.08,-0.03,
3264,0.08,-0.005,
3265,0.1,0.03,
3266,0.12,0.055,
3267,0.12,0.06,
3268,0.105,0.065,
3269,0.11,0.075,
3270,0.105,0.1,
3271,0.12,0.13,
3272,0.145,0.17,
3273,0.14,0.17,
3274,0.13,0.17,
3275,0.135,0.185,
3276,0.14,0.195,
3277,0.135,0.235,
3278,0.145,0.245,
3279,0.155,0.26,
3280,0.14,0.25,
3281,0.12,0.235,
3282,0.1,0.235,
3283,0.09,0.255,
3284,0.1,0.26,
3285,0.09,0.255,
3286,0.08,0.215,
3287,0.06,0.19,
3288,0.03,0.195,
3289,0.03,0.19,
3290,0.04,0.185,
3291,0.025,0.19,
3292,0.005,0.16,
3293,-0.015,0.135,
3294,-0.025,0.125,
3295,-0.035,0.125,
3296,-0.02,0.125,
3297,-0.035,0.11,
3298,-0.04,0.09,
3299,-0.065,0.085,
3300,-0.08,0.08,
3301,-0.07,0.085,
3302,-0.07,0.09,
3303,-0.05,0.065,
3304,-0.07,0.07,
3305,-0.09,0.05,
3306,-0.095,0.05,
3307,-0.11,0.065,
3308,-0.08,0.075,
3309,-0.065,0.07,
3310,-0.085,0.07,
3311,-0.095,0.05,
3312,-0.11,0.06,
3313,-0.1,0.06,
3314,-0.09,0.065,
3315,-0.08,0.065,
3316,-0.095,0.06,
3317,-0.115,0.035,
3318,-0.135,0.05,
3319,-0.125,0.06,
3320,-0.1,0.075,
3321,-0.1,0.06,
3322,-0.1,0.055,
3323,-0.115,0.04,
3324,-0.115,0.05,
3325,-0.125,0.065,
3326,-0.115,0.065,
3327,-0.1,0.05,
3328,-0.11,0.045,
3329,-0.115,0.03,
3330,-0.12,0.03,
3331,-0.12,0.05,
3332,-0.1,0.05,
3333,-0.095,0.04,
3334,-0.105,0.025,
3335,-0.13,0.02,
3336,-0.13,0.02,
3337,-0.135,0.04,
3338,-0.11,0.045,
3339,-0.1,0.04,
3340,-0.12,0.03,
3341,-0.13,0.015,
3342,-0.125,0.03,
3343,-0.115,0.03,
3344,-0.105,0.04,
3345,-0.105,0.025,
3346,-0.125,0.015,
3347,-0.135,0.02,
3348,-0.13,0.01,
3349,-0.13,0.035,
3350,-0.1,0.05,
3351,-0.105,0.045,
3352,-0.125,0.025,
3353,-0.125,0.015,
3354,-0.13,0.03,
3355,-0.13,0.045,
3356,-0.11,0.07,
3357,-0.105,0.065,
3358,-0.11,0.05,
3359,-0.115,0.045,
3360,-0.12,0.04,
3361,-0.12,0.045,
3362,-0.105,0.065,
3363,-0.1,0.065,
3364,-0.11,0.055,
3365,-0.12,0.045,
3366,-0.125,0.055,
3367,-0.115,0.07,
3368,-0.115,0.075,
3369,-0.11,0.055,
3370,-0.11,0.05,
3371,-0.14,0.05,
3372,-0.14,0.055,
3373,-0.135,0.07,
3374,-0.12,0.075,
3375,-0.12,0.065,
3376,-0.13,0.055,
3377,-0.145,0.045,
3378,-0.155,0.045,
3379,-0.145,0.055,
3380,-0.115,0.07,
3381,-0.12,0.065,
3382,-0.125,0.05,
3383,-0.15,0.04,
3384,-0.155,0.035,
3385,-0.14,0.055,
3386,-0.13,0.055,
3387,-0.125,0.055,
3388,-0.14,0.04,
3389,-0.155,0.035,
3390,-0.15,0.035,
3391,-0.15,0.05,
3392,-0.125,0.055,
3393,-0.135,0.04,
3394,-0.16,0.035,
3395,-0.18,0.025,
3396,-0.175,0.035,
3397,-0.165,0.03,
3398,-0.155,0.04,
3399,-0.15,0.05,
3400,-0.165,0.03,
3401,-0.17,0.02,
3402,-0.175,0.025,
3403,-0.17,0.035,
3404,-0.15,0.055,
3405,-0.155,0.035,
3406,-0.165,0.025,
3407,-0.18,0.025,
3408,-0.175,0.025,
3409,-0.165,0.04,
3410,-0.15,0.05,
3411,-0.16,0.035,
3412,-0.155,0.03,
3413,-0.17,0.015,
3414,-0.17,0.025,
3415,-0.17,0.04,
3416,-0.16,0.04,
3417,-0.155,0.04,
3418,-0.165,0.025,
3419,-0.185,0.01,
3420,-0.17,0.02,
3421,-0.165,0.035,
3422,-0.145,0.045,
3423,-0.16,0.04,
3424,-0.165,0.03,
3425,-0.175,0.01,
3426,-0.18,0.02,
3427,-0.19,0.035,
3428,-0.15,0.03,
3429,-0.155,0.03,
3430,-0.16,0.015,
3431,-0.17,0.01,
3432,-0.185,0.015,
3433,-0.165,0.035,
3434,-0.16,0.055,
3435,-0.155,0.04,
3436,-0.16,0.035,
3437,-0.175,0.025,
3438,-0.18,0.03,
3439,-0.175,0.035,
3440,-0.155,0.04,
3441,-0.16,0.035,
3442,-0.16,0.025,
3443,-0.175,0.02,
3444,-0.185,0.03,
3445,-0.175,0.045,
3446,-0.165,0.045,
3447,-0.17,0.05,
3448,-0.18,0.03,
3449,-0.2,0.025,
3450,-0.19,0.02,
3451,-0.19,0.035,
3452,-0.17,0.06,
3453,-0.165,0.05,
3454,-0.165,0.03,
3455,-0.185,0.02,
3456,-0.195,0.035,
3457,-0.175,0.045,
3458,-0.17,0.055,
3459,-0.16,0.055,
3460,-0.155,0.04,
3461,-0.17,0.035,
3462,-0.165,0.025,
3463,-0.175,0.035,
3464,-0.16,0.055,
3465,-0.14,0.05,
3466,-0.16,0.035,
3467,-0.16,0.03,
3468,-0.155,0.045,
3469,-0.15,0.045,
3470,-0.155,0.07,
3471,-0.155,0.065,
3472,-0.155,0.04,
3473,-0.16,0.025,
3474,-0.17,0.045,
3475,-0.16,0.06,
3476,-0.145,0.065,
3477,-0.14,0.065,
3478,-0.145,0.045,
3479,-0.165,0.035,
3480,-0.155,0.05,
3481,-0.13,0.055,
3482,-0.12,0.07,
3483,-0.115,0.08,
3484,-0.11,0.07,
3485,-0.11,0.065,
3486,-0.12,0.085,
3487,-0.105,0.095,
3488,-0.085,0.09,
3489,-0.08,0.09,
3490,-0.075,0.085,
3491,-0.09,0.07,
3492,-0.09,0.09,
3493,-0.085,0.12,
3494,-0.07,0.12,
3495,-0.08,0.12,
3496,-0.095,0.1,
3497,-0.11,0.075,
3498,-0.125,0.08,
3499,-0.125,0.085,
3500,-0.12,0.1,
3501,-0.13,0.08,
3502,-0.155,0.075,
3503,-0.165,0.075,
3504,-0.175,0.075,
3505,-0.17,0.09,
3506,-0.135,0.1,
3507,-0.12,0.095,
3508,-0.15,0.09,
3509,-0.145,0.07,
3510,-0.14,0.085,
3511,-0.14,0.1,
3512,-0.125,0.105,
3513,-0.1,0.1,
3514,-0.11,0.09,
3515,-0.125,0.08,
3516,-0.135,0.055,
3517,-0.14,0.07,
3518,-0.14,0.075,
3519,-0.155,0.075,
3520,-0.17,0.05,
3521,-0.185,0.04,
3522,-0.195,0.045,
3523,-0.18,0.05,
3524,-0.18,0.055,
3525,-0.17,0.04,
3526,-0.175,0.04,
3527,-0.195,0.03,
3528,-0.185,0.04,
3529,-0.18,0.05,
3530,-0.175,0.07,
3531,-0.165,0.065,
3532,-0.165,0.045,
3533,-0.18,0.035,
3534,-0.19,0.04,
3535,-0.18,0.05,
3536,-0.16,0.06,
3537,-0.165,0.05,
3538,-0.165,0.03,
3539,-0.185,0.025,
3540,-0.185,0.035,
3541,-0.185,0.04,
3542,-0.17,0.06,
3543,-0.175,0.05,
3544,-0.185,0.035,
3545,-0.185,0.025,
3546,-0.19,0.04,
3547,-0.19,0.065,
3548,-0.16,0.08,
3549,-0.145,0.07,
3550,-0.165,0.07,
3551,-0.175,0.07,
3552,-0.18,0.095,
3553,-0.17,0.13,
3554,-0.13,0.17,
3555,-0.13,0.22,
3556,-0.095,0.265,
3557,-0.09,0.32,
3558,-0.065,0.39,
3559,-0.045,0.485,
3560,-0.08,0.6,
3561,-0.15,0.74,
3562,-0.215,0.915,
3563,-0.275,1.055,
3564,-0.315,1.225,
3565,-0.39,1.395,
3566,-0.45,1.545,
3567,-0.475,1.73,
3568,-0.455,1.92,N
3569,-0.38,2.11,
3570,-0.255,2.165,
3571,-0.12,2.075,
3572,0.02,1.78,
3573,0.105,1.295,
3574,0.05,0.76,
3575,-0.135,0.355,
3576,-0.38,0.145,
3577,-0.545,0.05,
3578,-0.59,0.015,
3579,-0.565,0.015,
3580,-0.51,0.01,
3581,-0.435,0.025,
3582,-0.35,0.02,
3583,-0.225,0.03,
3584,-0.16,0.02,
3585,-0.14,0.005,
3586,-0.145,-0.015,
3587,-0.145,-0.04,
3588,-0.145,-0.04,
3589,-0.14,-0.04,
3590,-0.125,-0.025,
3591,-0.125,-0.045,
3592,-0.11,-0.055,
3593,-0.13,-0.055,
3594,-0.11,-0.055,
3595,-0.12,-0.045,
3596,-0.095,-0.045,
3597,-0.095,-0.05,
3598,-0.095,-0.065,
3599,-0.1,-0.08,
3600,-0.105,-0.05,
3601,-0.08,-0.04,
3602,-0.065,-0.035,
3603,-0.065,-0.045,
3604,-0.08,-0.075,
3605,-0.09,-0.08,
3606,-0.095,-0.075,
3607,-0.08,-0.06,
3608,-0.08,-0.05,
3609,-0.075,-0.075,
3610,-0.07,-0.075,
3611,-0.085,-0.1,
3612,-0.09,-0.085,
3613,-0.085,-0.07,
3614,-0.07,-0.055,
3615,-0.055,-0.08,
3616,-0.065,-0.085,
3617,-0.07,-0.095,
3618,-0.075,-0.08,
3619,-0.06,-0.065,
3620,-0.045,-0.07,
3621,-0.06,-0.075,
3622,-0.07,-0.095,
3623,-0.08,-0.105,
3624,-0.075,-0.085,
3625,-0.06,-0.08,
3626,-0.05,-0.065,
3627,-0.045,-0.075,
3628,-0.055,-0.095,
3629,-0.07,-0.1,
3630,-0.075,-0.095,
3631,-0.035,-0.09,
3632,-0.025,-0.08,
3633,-0.03,-0.08,
3634,-0.05,-0.09,
3635,-0.055,-0.095,
3636,-0.05,-0.085,
3637,-0.025,-0.075,
3638,-0.025,-0.065,
3639,-0.02,-0.07,
3640,-0.03,-0.09,
3641,-0.04,-0.085,
3642,-0.03,-0.085,
3643,-0.03,-0.07,
3644,-0.01,-0.05,
3645,-0.01,-0.06,
3646,0.005,-0.075,
3647,-0.005,-0.08,
3648,-0.005,-0.055,
3649,0.01,-0.04,
3650,0.025,-0.03,
3651,0.035,-0.025,
3652,0.03,-0.045,
3653,0.035,-0.05,
3654,0.015,-0.02,
3655,0.04,0.015,
3656,0.07,0.015,
3657,0.085,0.04,
3658,0.075,0.035,
3659,0.065,0.045,
3660,0.065,0.055,
3661,0.09,0.1,
3662,0.125,0.115,
3663,0.115,0.13,
3664,0.125,0.125,
3665,0.12,0.135,
3666,0.115,0.165,
3667,0.125,0.195,
3668,0.14,0.225,
3669,0.165,0.23,
3670,0.15,0.24,
3671,0.15,0.245,
3672,0.15,0.255,
3673,0.15,0.28,
3674,0.155,0.28,
3675,0.155,0.275,
3676,0.13,0.25,
3677,0.11,0.255,
3678,0.105,0.25,
3679,0.105,0.255,
3680,0.1,0.27,
3681,0.105,0.245,
3682,0.08,0.225,
3683,0.045,0.22,
3684,0.035,0.195,
3685,0.035,0.195,
3686,0.045,0.195,
3687,0.04,0.17,
3688,0.025,0.15,
3689,-0.005,0.13,
3690,-0.015,0.13,
3691,-0.01,0.13,
3692,-0.01,0.135,
3693,-0.015,0.105,
3694,-0.03,0.095,
3695,-0.06,0.07,
3696,-0.07,0.065,
3697,-0.07,0.085,
3698,-0.045,0.11,
3699,-0.055,0.085,
3700,-0.065,0.065,
3701,-0.085,0.05,
3702,-0.09,0.06,
3703,-0.075,0.065,
3704,-0.07,0.07,
3705,-0.075,0.075,
3706,-0.085,0.05,
3707,-0.105,0.04,
3708,-0.115,0.045,
3709,-0.095,0.06,
3710,-0.09,0.07,
3711,-0.095,0.07,
3712,-0.11,0.045,
3713,-0.12,0.03,
3714,-0.115,0.04,
3715,-0.105,0.045,
3716,-0.085,0.055,
3717,-0.08,0.055,
3718,-0.09,0.045,
3719,-0.105,0.04,
3720,-0.11,0.04,
3721,-0.095,0.045,
3722,-0.1,0.045,
3723,-0.095,0.05,
3724,-0.1,0.03,
3725,-0.13,0.015,
3726,-0.15,0.03,
3727,-0.125,0.035,
3728,-0.115,0.055,
3729,-0.1,0.035,
3730,-0.125,0.01,
3731,-0.13,0.015,
3732,-0.13,0.025,
3733,-0.12,0.025,
3734,-0.115,0.025,
3735,-0.1,0.02,
3736,-0.12,0.0,
3737,-0.135,-0.005,
3738,-0.13,-0.005,
3739,-0.125,0.005,
3740,-0.12,0.02,
3741,-0.11,0.005,
3742,-0.12,-0.005,
3743,-0.135,-0.01,
3744,-0.145,0.005,
3745,-0.13,0.01,
3746,-0.12,0.02,
3747,-0.105,0.005,
3748,-0.125,-0.005,
3749,-0.135,0.0,
3750,-0.14,0.0,
3751,-0.125,0.02,
3752,-0.12,0.035,
3753,-0.11,0.02,
3754,-0.115,0.005,
3755,-0.135,0.0,
3756,-0.14,0.01,
3757,-0.13,0.015,
3758,-0.11,0.025,
3759,-0.12,0.01,
3760,-0.12,0.01,
3761,-0.14,0.015,
3762,-0.135,0.015,
3763,-0.12,0.025,
3764,-0.11,0.03,
3765,-0.105,0.025,
3766,-0.12,0.01,
3767,-0.13,0.005,
3768,-0.16,0.015,
3769,-0.135,0.025,
3770,-0.125,0.035,
3771,-0.12,0.01,
3772,-0.135,0.01,
3773,-0.155,-0.01,
3774,-0.16,0.015,
3775,-0.16,0.035,
3776,-0.13,0.035,
3777,-0.14,0.03,
3778,-0.14,0.02,
3779,-0.155,0.0,
3780,-0.175,0.0,
3781,-0.16,0.02,
3782,-0.135,0.015,
3783,-0.135,0.015,
3784,-0.15,0.005,
3785,-0.155,-0.005,
3786,-0.16,0.0,
3787,-0.16,0.015,
3788,-0.15,0.02,
3789,-0.145,0.015,
3790,-0.15,0.01,
3791,-0.155,0.0,
3792,-0.16,0.0,
3793,-0.155,0.02,
3794,-0.145,0.02,
3795,-0.14,0.005,
3796,-0.155,-0.01,
3797,-0.17,-0.005,
3798,-0.185,-0.01,
3799,-0.175,-0.005,
3800,-0.16,0.015,
3801,-0.15,0.005,
3802,-0.155,-0.01,
3803,-0.185,-0.025,
3804,-0.19,-0.01,
3805,-0.175,-0.005,
3806,-0.155,0.005,
3807,-0.15,-0.005,
3808,-0.16,-0.015,
3809,-0.175,-0.02,
3810,-0.2,-0.005,
3811,-0.175,0.005,
3812,-0.16,0.0,
3813,-0.155,-0.015,
3814,-0.17,-0.025,
3815,-0.18,-0.025,
3816,-0.195,-0.015,
3817,-0.19,0.005,
3818,-0.165,0.01,
3819,-0.155,0.0,
3820,-0.17,-0.005,
3821,-0.18,-0.025,
3822,-0.19,-0.02,
3823,-0.175,-0.01,
3824,-0.155,0.0,
3825,-0.165,0.005,
3826,-0.185,-0.015,
3827,-0.18,-0.025,
3828,-0.18,-0.025,
3829,-0.175,-0.005,
3830,-0.17,-0.005,
3831,-0.16,-0.005,
3832,-0.18,-0.01,
3833,-0.18,-0.02,
3834,-0.205,-0.005,
3835,-0.18,0.005,
3836,-0.165,0.01,
3837,-0.16,-0.015,
3838,-0.18,-0.025,
3839,-0.205,-0.015,
3840,-0.195,-0.02,
3841,-0.19,-0.015,
3842,-0.19,0.01,
3843,-0.175,-0.005,
3844,-0.185,-0.035,
3845,-0.195,-0.03,
3846,-0.185,-0.025,
3847,-0.18,-0.01,
3848,-0.165,-0.01,
3849,-0.165,-0.02,
3850,-0.185,-0.045,
3851,-0.19,-0.05,
3852,-0.21,-0.035,
3853,-0.195,-0.015,
3854,-0.175,-0.01,
3855,-0.165,-0.01,
3856,-0.175,-0.035,
3857,-0.185,-0.035,
3858,-0.19,-0.025,
3859,-0.175,-0.02,
3860,-0.19,-0.005,
3861,-0.185,-0.015,
3862,-0.195,-0.025,
3863,-0.205,-0.04,
3864,-0.2,-0.035,
3865,-0.19,-0.01,
3866,-0.175,0.005,
3867,-0.165,0.005,
3868,-0.18,-0.025,
3869,-0.19,-0.03,
3870,-0.18,-0.03,
3871,-0.18,-0.015,
3872,-0.145,-0.005,
3873,-0.135,0.0,
3874,-0.14,0.005,
3875,-0.145,0.005,
3876,-0.14,0.0,
3877,-0.135,0.02,
3878,-0.125,0.025,
3879,-0.115,0.025,
3880,-0.125,0.025,
3881,-0.135,0.015,
3882,-0.135,0.035,
3883,-0.125,0.065,
3884,-0.105,0.065,
3885,-0.105,0.055,
3886,-0.125,0.04,
3887,-0.13,0.025,
3888,-0.13,0.035,
3889,-0.14,0.03,
3890,-0.13,0.035,
3891,-0.145,0.045,
3892,-0.15,0.025,
3893,-0.17,0.03,
3894,-0.175,0.035,
3895,-0.155,0.035,
3896,-0.15,0.03,
3897,-0.145,0.03,
3898,-0.15,0.03,
3899,-0.165,0.02,
3900,-0.165,0.035,
3901,-0.145,0.045,
3902,-0.145,0.055,
3903,-0.135,0.04,
3904,-0.13,0.03,
3905,-0.14,0.01,
3906,-0.15,0.01,
3907,-0.145,-0.005,
3908,-0.165,-0.005,
3909,-0.175,-0.005,
3910,-0.195,-0.005,
3911,-0.22,-0.015,
3912,-0.235,-0.005,
3913,-0.2,0.005,
3914,-0.195,0.005,
3915,-0.18,0.005,
3916,-0.2,-0.005,
3917,-0.205,-0.01,
3918,-0.21,0.0,
3919,-0.195,0.01,
3920,-0.19,0.005,
3921,-0.19,0.0,
3922,-0.19,-0.01,
3923,-0.215,-0.015,
3924,-0.215,-0.025,
3925,-0.195,-0.005,
3926,-0.19,-0.005,
3927,-0.185,-0.01,
3928,-0.205,-0.025,
3929,-0.21,-0.035,
3930,-0.225,-0.025,
3931,-0.215,0.005,
3932,-0.19,0.015,
3933,-0.19,0.0,
3934,-0.195,-0.015,
3935,-0.22,-0.025,
3936,-0.23,-0.02,
3937,-0.21,-0.005,
3938,-0.225,0.005,
3939,-0.22,-0.005,
3940,-0.225,-0.01,
3941,-0.225,-0.015,
3942,-0.205,0.01,
3943,-0.19,0.04,
3944,-0.18,0.055,
3945,-0.17,0.075,
3946,-0.165,0.08,
3947,-0.16,0.115,
3948,-0.145,0.185,
3949,-0.115,0.245,
3950,-0.08,0.295,
3951,-0.075,0.345,
3952,-0.115,0.415,
3953,-0.19,0.525,
3954,-0.24,0.675,
3955,-0.29,0.84,
3956,-0.335,0.985,
3957,-0.395,1.115,
3958,-0.5,1.235,
3959,-0.58,1.375,
3960,-0.6,1.55,
3961,-0.555,1.755,N
3962,-0.44,1.925,
3963,-0.32,1.965,
3964,-0.215,1.875,
3965,-0.09,1.605,
3966,-0.025,1.165,
3967,-0.01,0.685,
3968,-0.125,0.345,
3969,-0.34,0.14,
3970,-0.53,0.005,
3971,-0.61,-0.05,
3972,-0.605,-0.065,
3973,-0.56,-0.03,
3974,-0.475,-0.015,
3975,-0.39,-0.02,
3976,-0.325,-0.02,
3977,-0.26,-0.06,
3978,-0.235,-0.04,
3979,-0.21,-0.045,
3980,-0.18,-0.04,
3981,-0.185,-0.075,
3982,-0.175,-0.1,
3983,-0.195,-0.11,
3984,-0.195,-0.115,
3985,-0.175,-0.11,
3986,-0.15,-0.1,
3987,-0.155,-0.11,
3988,-0.18,-0.13,
3989,-0.165,-0.135,
3990,-0.16,-0.135,
3991,-0.14,-0.115,
3992,-0.125,-0.12,
3993,-0.12,-0.11,
3994,-0.135,-0.12,
3995,-0.14,-0.13,
3996,-0.165,-0.13,
3997,-0.15,-0.12,
3998,-0.145,-0.115,
3999,-0.13,-0.12,
4000,-0.12,-0.145,
4001,-0.135,-0.145,
4002,-0.145,-0.14,
4003,-0.135,-0.135,
4004,-0.13,-0.13,
4005,-0.11,-0.13,
4006,-0.125,-0.15,
4007,-0.13,-0.165,
4008,-0.125,-0.15,
4009,-0.125,-0.14,
4010,-0.12,-0.145,
4011,-0.105,-0.15,
4012,-0.125,-0.17,
4013,-0.15,-0.18,
4014,-0.14,-0.165,
4015,-0.13,-0.145,
4016,-0.115,-0.14,
4017,-0.11,-0.145,
4018,-0.115,-0.15,
4019,-0.125,-0.16,
4020,-0.13,-0.165,
4021,-0.11,-0.16,
4022,-0.11,-0.145,
4023,-0.105,-0.175,
4024,-0.12,-0.175,
4025,-0.145,-0.18,
4026,-0.13,-0.17,
4027,-0.115,-0.145,
4028,-0.095,-0.15,
4029,-0.095,-0.16,
4030,-0.095,-0.175,
4031,-0.115,-0.185,
4032,-0.13,-0.18,
4033,-0.1,-0.18,
4034,-0.09,-0.17,
4035,-0.09,-0.165,
4036,-0.105,-0.165,
4037,-0.115,-0.17,
4038,-0.105,-0.17,
4039,-0.095,-0.15,
4040,-0.07,-0.14,
4041,-0.07,-0.14,
4042,-0.075,-0.17,
4043,-0.065,-0.16,
4044,-0.07,-0.155,
4045,-0.065,-0.13,
4046,-0.035,-0.13,
4047,-0.03,-0.13,
4048,-0.02,-0.135,
4049,-0.055,-0.145,
4050,-0.05,-0.14,
4051,-0.025,-0.125,
4052,-0.025,-0.11,
4053,-0.035,-0.09,
4054,-0.02,-0.1,
4055,-0.03,-0.095,
4056,-0.035,-0.08,
4057,-0.01,-0.07,
4058,0.005,-0.045,
4059,0.0,-0.045,
4060,0.005,-0.035,
4061,0.0,-0.03,
4062,0.005,-0.015,
4063,0.025,0.01,
4064,0.04,0.035,
4065,0.045,0.05,
4066,0.025,0.075,
4067,0.025,0.08,
4068,0.03,0.105,
4069,0.02,0.13,
4070,0.045,0.145,
4071,0.045,0.16,
4072,0.045,0.17,
4073,0.015,0.175,
4074,0.01,0.185,
4075,0.025,0.19,
4076,0.03,0.18,
4077,0.025,0.17,
4078,0.005,0.155,
4079,-0.04,0.145,
4080,-0.03,0.15,
4081,-0.035,0.155,
4082,-0.025,0.15,
4083,-0.03,0.135,
4084,-0.05,0.095,
4085,-0.08,0.08,
4086,-0.095,0.08,
4087,-0.09,0.085,
4088,-0.085,0.07,
4089,-0.09,0.05,
4090,-0.11,0.03,
4091,-0.14,0.025,
4092,-0.15,0.025,
4093,-0.14,0.04,
4094,-0.12,0.045,
4095,-0.125,0.03,
4096,-0.145,0.0,
4097,-0.17,-0.015,
4098,-0.17,-0.01,
4099,-0.17,0.025,
4100,-0.145,0.03,
4101,-0.145,0.025,
4102,-0.175,-0.01,
4103,-0.18,-0.015,
4104,-0.18,-0.005,
4105,-0.17,0.01,
4106,-0.165,0.015,
4107,-0.16,0.015,
4108,-0.175,-0.005,
4109,-0.195,0.0,
4110,-0.2,-0.015,
4111,-0.185,0.0,
4112,-0.185,0.02,
4113,-0.175,0.005,
4114,-0.185,-0.01,
4115,-0.19,-0.025,
4116,-0.19,-0.025,
4117,-0.185,-0.01,
4118,-0.175,-0.015,
4119,-0.175,-0.015,
4120,-0.18,-0.02,
4121,-0.21,-0.035,
4122,-0.21,-0.035,
4123,-0.185,-0.03,
4124,-0.185,-0.01,
4125,-0.18,-0.025,
4126,-0.18,-0.045,
4127,-0.19,-0.05,
4128,-0.2,-0.045,
4129,-0.205,-0.035,
4130,-0.19,-0.02,
4131,-0.185,-0.025,
4132,-0.18,-0.045,
4133,-0.2,-0.04,
4134,-0.205,-0.045,
4135,-0.185,-0.035,
4136,-0.18,-0.03,
4137,-0.19,-0.035,
4138,-0.2,-0.05,
4139,-0.205,-0.06,
4140,-0.19,-0.055,
4141,-0.2,-0.035,
4142,-0.195,-0.02,
4143,-0.2,-0.03,
4144,-0.18,-0.045,
4145,-0.195,-0.045,
4146,-0.195,-0.04,
4147,-0.195,-0.025,
4148,-0.185,-0.01,
4149,-0.185,-0.015,
4150,-0.19,-0.035,
4151,-0.195,-0.04,
4152,-0.195,-0.045,
4153,-0.195,-0.04,
4154,-0.18,-0.03,
4155,-0.18,-0.025,
4156,-0.2,-0.055,
4157,-0.21,-0.05,
4158,-0.195,-0.03,
4159,-0.2,-0.025,
4160,-0.19,-0.02,
4161,-0.185,-0.02,
4162,-0.21,-0.05,
4163,-0.21,-0.07,
4164,-0.225,-0.055,
4165,-0.205,-0.03,
4166,-0.205,-0.02,
4167,-0.205,-0.045,
4168,-0.195,-0.045,
4169,-0.245,-0.055,
4170,-0.23,-0.05,
4171,-0.225,-0.035,
4172,-0.215,-0.03,
4173,-0.21,-0.045,
4174,-0.22,-0.065,
4175,-0.245,-0.07,
4176,-0.235,-0.05,
4177,-0.24,-0.04,
4178,-0.215,-0.035,
4179,-0.22,-0.045,
4180,-0.22,-0.05,
4181,-0.235,-0.07,
4182,-0.245,-0.05,
4183,-0.235,-0.035,
4184,-0.22,-0.035,
4185,-0.225,-0.045,
4186,-0.23,-0.06,
4187,-0.245,-0.075,
4188,-0.25,-0.06,
4189,-0.245,-0.045,
4190,-0.23,-0.04,
4191,-0.225,-0.035,
4192,-0.24,-0.05,
4193,-0.245,-0.065,
4194,-0.245,-0.055,
4195,-0.235,-0.055,
4196,-0.22,-0.03,
4197,-0.225,-0.045,
4198,-0.235,-0.055,
4199,-0.25,-0.07,
4200,-0.25,-0.06,
4201,-0.235,-0.04,
4202,-0.225,-0.025,
4203,-0.22,-0.04,
4204,-0.235,-0.055,
4205,-0.275,-0.065,
4206,-0.265,-0.05,
4207,-0.235,-0.045,
4208,-0.23,-0.03,
4209,-0.24,-0.05,
4210,-0.245,-0.055,
4211,-0.275,-0.06,
4212,-0.245,-0.055,
4213,-0.25,-0.03,
4214,-0.225,-0.025,
4215,-0.225,-0.04,
4216,-0.245,-0.04,
4217,-0.25,-0.045,
4218,-0.255,-0.03,
4219,-0.25,-0.035,
4220,-0.245,-0.03,
4221,-0.235,-0.035,
4222,-0.245,-0.055,
4223,-0.25,-0.065,
4224,-0.25,-0.055,
4225,-0.24,-0.03,
4226,-0.23,-0.03,
4227,-0.22,-0.04,
4228,-0.24,-0.05,
4229,-0.245,-0.05,
4230,-0.26,-0.05,
4231,-0.24,-0.045,
4232,-0.22,-0.02,
4233,-0.225,-0.04,
4234,-0.23,-0.05,
4235,-0.26,-0.055,
4236,-0.245,-0.055,
4237,-0.235,-0.04,
4238,-0.23,-0.02,
4239,-0.225,-0.045,
4240,-0.225,-0.04,
4241,-0.235,-0.05,
4242,-0.24,-0.035,
4243,-0.215,-0.03,
4244,-0.215,-0.035,
4245,-0.205,-0.03,
4246,-0.22,-0.045,
4247,-0.25,-0.06,
4248,-0.245,-0.045,
4249,-0.23,-0.035,
4250,-0.21,-0.025,
4251,-0.22,-0.035,
4252,-0.24,-0.05,
4253,-0.235,-0.055,
4254,-0.25,-0.05,
4255,-0.23,-0.04,
4256,-0.22,-0.035,
4257,-0.22,-0.04,
4258,-0.235,-0.055,
4259,-0.25,-0.055,
4260,-0.25,-0.03,
4261,-0.23,-0.03,
4262,-0.21,-0.025,
4263,-0.215,-0.03,
4264,-0.22,-0.04,
4265,-0.22,-0.05,
4266,-0.21,-0.03,
4267,-0.2,-0.02,
4268,-0.195,-0.005,
4269,-0.18,-0.005,
4270,-0.18,-0.02,
4271,-0.185,-0.015,
4272,-0.185,-0.005,
4273,-0.175,0.005,
4274,-0.17,0.025,
4275,-0.155,0.015,
4276,-0.165,0.015,
4277,-0.165,0.0,
4278,-0.16,0.005,
4279,-0.16,0.03,
4280,-0.17,0.025,
4281,-0.155,0.015,
4282,-0.17,0.005,
4283,-0.205,-0.01,
4284,-0.21,-0.015,
4285,-0.195,-0.005,
4286,-0.195,-0.005,
4287,-0.2,-0.02,
4288,-0.22,-0.025,
4289,-0.23,-0.03,
4290,-0.235,-0.02,
4291,-0.22,-0.005,
4292,-0.21,0.01,
4293,-0.21,0.0,
4294,-0.22,-0.01,
4295,-0.215,0.005,
4296,-0.21,0.0,
4297,-0.19,0.005,
4298,-0.17,0.02,
4299,-0.18,0.0,
4300,-0.2,-0.01,
4301,-0.2,-0.03,
4302,-0.215,-0.04,
4303,-0.22,-0.045,
4304,-0.225,-0.03,
4305,-0.24,-0.035,
4306,-0.25,-0.05,
4307,-0.26,-0.055,
4308,-0.265,-0.05,
4309,-0.24,-0.03,
4310,-0.225,-0.035,
4311,-0.23,-0.04,
4312,-0.25,-0.05,
4313,-0.26,-0.065,
4314,-0.27,-0.055,
4315,-0.26,-0.04,
4316,-0.25,-0.03,
4317,-0.245,-0.035,
4318,-0.245,-0.055,
4319,-0.27,-0.06,
4320,-0.255,-0.05,
4321,-0.265,-0.05,
4322,-0.24,-0.035,
4323,-0.245,-0.045,
4324,-0.26,-0.055,
4325,-0.27,-0.07,
4326,-0.265,-0.055,
4327,-0.25,-0.035,
4328,-0.245,-0.03,
4329,-0.25,-0.035,
4330,-0.265,-0.05,
4331,-0.265,-0.04,
4332,-0.25,-0.02,
4333,-0.24,0.0,
4334,-0.215,0.02,
4335,-0.215,0.02,
4336,-0.22,0.035,
4337,-0.215,0.07,
4338,-0.195,0.125,
4339,-0.18,0.21,
4340,-0.14,0.255,
4341,-0.11,0.31,
4342,-0.13,0.36,
4343,-0.21,0.45,
4344,-0.3,0.6,
4345,-0.365,0.78,
4346,-0.395,0.95,
4347,-0.47,1.115,
4348,-0.555,1.265,
4349,-0.655,1.425,
4350,-0.69,1.61,
4351,-0.675,1.85,
4352,-0.57,2.055,N
4353,-0.46,2.15,
4354,-0.315,2.09,
4355,-0.195,1.805,
4356,-0.105,1.38,
4357,-0.1,0.885,
4358,-0.22,0.5,
4359,-0.415,0.215,
4360,-0.58,0.04,
4361,-0.66,-0.02,
4362,-0.625,-0.02,
4363,-0.545,0.005,
4364,-0.42,-0.005,
4365,-0.325,-0.025,
4366,-0.26,-0.045,
4367,-0.25,-0.07,
4368,-0.22,-0.07,
4369,-0.205,-0.09,
4370,-0.185,-0.105,
4371,-0.18,-0.115,
4372,-0.19,-0.135,
4373,-0.21,-0.145,
4374,-0.195,-0.135,
4375,-0.195,-0.13,
4376,-0.175,-0.125,
4377,-0.155,-0.14,
4378,-0.17,-0.16,
4379,-0.185,-0.16,
4380,-0.175,-0.15,
4381,-0.16,-0.15,
4382,-0.14,-0.145,
4383,-0.14,-0.16,
4384,-0.14,-0.17,
4385,-0.145,-0.18,
4386,-0.15,-0.17,
4387,-0.145,-0.145,
4388,-0.14,-0.14,
4389,-0.13,-0.16,
4390,-0.135,-0.165,
4391,-0.135,-0.175,
4392,-0.15,-0.175,
4393,-0.135,-0.17,
4394,-0.13,-0.165,
4395,-0.13,-0.165,
4396,-0.13,-0.18,
4397,-0.14,-0.175,
4398,-0.135,-0.185,
4399,-0.13,-0.18,
4400,-0.125,-0.165,
4401,-0.115,-0.18,
4402,-0.13,-0.19,
4403,-0.13,-0.19,
4404,-0.135,-0.185,
4405,-0.12,-0.15,
4406,-0.095,-0.165,
4407,-0.1,-0.17,
4408,-0.1,-0.185,
4409,-0.11,-0.19,
4410,-0.105,-0.19,
4411,-0.1,-0.175,
4412,-0.08,-0.155,
4413,-0.08,-0.16,
4414,-0.09,-0.185,
4415,-0.1,-0.18,
4416,-0.1,-0.175,
4417,-0.09,-0.165,
4418,-0.07,-0.165,
4419,-0.075,-0.165,
4420,-0.08,-0.175,
4421,-0.085,-0.175,
4422,-0.08,-0.165,
4423,-0.07,-0.16,
4424,-0.055,-0.16,
4425,-0.045,-0.165,
4426,-0.05,-0.16,
4427,-0.07,-0.175,
4428,-0.045,-0.15,
4429,-0.035,-0.145,
4430,-0.02,-0.13,
4431,-0.015,-0.15,
4432,-0.02,-0.15,
4433,-0.025,-0.15,
4434,-0.03,-0.125,
4435,-0.015,-0.12,
4436,0.005,-0.095,
4437,0.01,-0.095,
4438,0.005,-0.1,
4439,0.005,-0.11,
4440,0.005,-0.08,
4441,0.025,-0.055,
4442,0.06,-0.04,
4443,0.055,-0.03,
4444,0.05,-0.035,
4445,0.045,-0.02,
4446,0.055,0.005,
4447,0.07,0.035,
4448,0.095,0.055,
4449,0.095,0.07,
4450,0.075,0.075,
4451,0.07,0.07,
4452,0.07,0.11,
4453,0.1,0.135,
4454,0.105,0.165,
4455,0.1,0.18,
4456,0.095,0.175,
4457,0.085,0.18,
4458,0.07,0.2,
4459,0.08,0.215,
4460,0.085,0.24,
4461,0.085,0.23,
4462,0.06,0.225,
4463,0.05,0.21,
4464,0.04,0.23,
4465,0.045,0.23,
4466,0.035,0.22,
4467,0.03,0.21,
4468,0.005,0.18,
4469,-0.015,0.165,
4470,-0.025,0.165,
4471,-0.035,0.17,
4472,-0.045,0.155,
4473,-0.045,0.135,
4474,-0.045,0.11,
4475,-0.08,0.09,
4476,-0.1,0.08,
4477,-0.085,0.09,
4478,-0.075,0.085,
4479,-0.095,0.07,
4480,-0.11,0.05,
4481,-0.13,0.04,
4482,-0.14,0.03,
4483,-0.135,0.045,
4484,-0.12,0.055,
4485,-0.125,0.045,
4486,-0.14,0.02,
4487,-0.15,0.035,
4488,-0.155,0.03,
4489,-0.155,0.05,
4490,-0.15,0.045,
4491,-0.16,0.04,
4492,-0.155,0.025,
4493,-0.175,0.025,
4494,-0.175,0.035,
4495,-0.145,0.045,
4496,-0.135,0.04,
4497,-0.14,0.045,
4498,-0.155,0.035,
4499,-0.175,0.025,
4500,-0.19,0.025,
4501,-0.165,0.05,
4502,-0.145,0.055,
4503,-0.145,0.045,
4504,-0.16,0.035,
4505,-0.175,0.025,
4506,-0.17,0.035,
4507,-0.16,0.03,
4508,-0.145,0.045,
4509,-0.165,0.035,
4510,-0.18,0.02,
4511,-0.17,0.01,
4512,-0.185,0.02,
4513,-0.17,0.03,
4514,-0.145,0.05,
4515,-0.16,0.02,
4516,-0.175,0.01,
4517,-0.175,0.0,
4518,-0.175,0.015,
4519,-0.165,0.015,
4520,-0.16,0.025,
4521,-0.155,0.02,
4522,-0.165,0.015,
4523,-0.17,0.0,
4524,-0.16,0.005,
4525,-0.165,0.03,
4526,-0.14,0.035,
4527,-0.15,0.03,
4528,-0.155,0.02,
4529,-0.165,0.005,
4530,-0.165,0.02,
4531,-0.16,0.04,
4532,-0.14,0.035,
4533,-0.145,0.015,
4534,-0.15,0.025,
4535,-0.165,0.01,
4536,-0.175,0.02,
4537,-0.165,0.045,
4538,-0.15,0.05,
4539,-0.145,0.045,
4540,-0.14,0.03,
4541,-0.175,0.015,
4542,-0.17,0.03,
4543,-0.145,0.035,
4544,-0.14,0.05,
4545,-0.125,0.035,
4546,-0.14,0.025,
4547,-0.155,0.02,
4548,-0.145,0.025,
4549,-0.14,0.035,
4550,-0.135,0.04,
4551,-0.135,0.035,
4552,-0.155,0.03,
4553,-0.16,0.02,
4554,-0.165,0.04,
4555,-0.15,0.04,
4556,-0.14,0.05,
4557,-0.145,0.035,
4558,-0.165,0.02,
4559,-0.185,0.015,
4560,-0.18,0.015,
4561,-0.175,0.035,
4562,-0.16,0.045,
4563,-0.18,0.035,
4564,-0.19,0.015,
4565,-0.2,0.005,
4566,-0.205,0.02,
4567,-0.185,0.02,
4568,-0.18,0.025,
4569,-0.185,0.025,
4570,-0.18,0.01,
4571,-0.2,0.015,
4572,-0.205,0.02,
4573,-0.185,0.025,
4574,-0.165,0.025,
4575,-0.17,0.01,
4576,-0.185,0.01,
4577,-0.195,0.0,
4578,-0.2,0.01,
4579,-0.19,0.025,
4580,-0.185,0.03,
4581,-0.205,0.01,
4582,-0.215,0.005,
4583,-0.215,-0.015,
4584,-0.21,0.0,
4585,-0.21,0.025,
4586,-0.2,0.02,
4587,-0.2,0.01,
4588,-0.215,0.0,
4589,-0.215,-0.01,
4590,-0.2,0.0,
4591,-0.2,0.015,
4592,-0.19,0.01,
4593,-0.205,0.01,
4594,-0.205,-0.005,
4595,-0.225,-0.01,
4596,-0.22,0.005,
4597,-0.205,0.005,
4598,-0.2,0.025,
4599,-0.205,0.01,
4600,-0.195,-0.005,
4601,-0.21,-0.015,
4602,-0.215,0.005,
4603,-0.2,0.025,
4604,-0.19,0.02,
4605,-0.2,0.015,
4606,-0.215,-0.02,
4607,-0.22,-0.005,
4608,-0.22,0.0,
4609,-0.205,0.02,
4610,-0.19,0.015,
4611,-0.185,0.015,
4612,-0.2,0.0,
4613,-0.22,0.0,
4614,-0.235,0.01,
4615,-0.225,0.025,
4616,-0.2,0.02,
4617,-0.205,0.02,
4618,-0.21,-0.005,
4619,-0.225,0.0,
4620,-0.225,0.015,
4621,-0.205,0.01,
4622,-0.185,0.015,
4623,-0.195,0.0,
4624,-0.215,-0.01,
4625,-0.22,-0.02,
4626,-0.225,-0.005,
4627,-0.215,0.015,
4628,-0.195,0.015,
4629,-0.205,0.0,
4630,-0.22,-0.01,
4631,-0.23,-0.01,
4632,-0.225,0.0,
4633,-0.22,0.02,
4634,-0.195,0.02,
4635,-0.21,0.015,
4636,-0.205,-0.01,
4637,-0.225,-0.02,
4638,-0.225,-0.005,
4639,-0.22,0.015,
4640,-0.205,0.015,
4641,-0.205,0.005,
4642,-0.21,-0.005,
4643,-0.23,0.0,
4644,-0.23,0.005,
4645,-0.225,0.01,
4646,-0.205,0.015,
4647,-0.19,0.015,
4648,-0.215,0.015,
4649,-0.22,0.01,
4650,-0.2,0.015,
4651,-0.18,0.04,
4652,-0.155,0.05,
4653,-0.14,0.06,
4654,-0.145,0.06,
4655,-0.165,0.05,
4656,-0.16,0.06,
4657,-0.14,0.08,
4658,-0.13,0.085,
4659,-0.12,0.09,
4660,-0.14,0.07,
4661,-0.145,0.07,
4662,-0.145,0.075,
4663,-0.15,0.065,
4664,-0.145,0.065,
4665,-0.14,0.055,
4666,-0.175,0.04,
4667,-0.195,0.03,
4668,-0.195,0.045,
4669,-0.185,0.06,
4670,-0.165,0.065,
4671,-0.165,0.065,
4672,-0.18,0.075,
4673,-0.185,0.055,
4674,-0.185,0.075,
4675,-0.155,0.075,
4676,-0.13,0.075,
4677,-0.15,0.05,
4678,-0.165,0.02,
4679,-0.205,0.02,
4680,-0.235,0.035,
4681,-0.225,0.045,
4682,-0.205,0.05,
4683,-0.195,0.03,
4684,-0.2,0.015,
4685,-0.215,0.01,
4686,-0.215,0.015,
4687,-0.23,0.035,
4688,-0.205,0.045,
4689,-0.2,0.03,
4690,-0.21,0.01,
4691,-0.23,0.005,
4692,-0.215,0.02,
4693,-0.21,0.035,
4694,-0.205,0.04,
4695,-0.2,0.02,
4696,-0.215,0.01,
4697,-0.225,0.005,
4698,-0.235,0.01,
4699,-0.22,0.02,
4700,-0.205,0.03,
4701,-0.225,0.025,
4702,-0.21,0.015,
4703,-0.23,0.015,
4704,-0.225,0.03,
4705,-0.225,0.035,
4706,-0.205,0.04,
4707,-0.2,0.045,
4708,-0.21,0.035,
4709,-0.22,0.035,
4710,-0.235,0.075,
4711,-0.21,0.1,
4712,-0.18,0.13,
4713,-0.16,0.155,
4714,-0.165,0.19,
4715,-0.16,0.255,
4716,-0.13,0.335,
4717,-0.1,0.41,
4718,-0.085,0.5,
4719,-0.15,0.62,
4720,-0.24,0.785,
4721,-0.31,0.945,
4722,-0.34,1.135,
4723,-0.375,1.32,
4724,-0.435,1.495,
4725,-0.51,1.66,
4726,-0.545,1.84,
4727,-0.51,2.04,
4728,-0.42,2.22,N
4729,-0.3,2.3,
4730,-0.155,2.225,
4731,-0.02,1.96,
4732,0.045,1.545,
4733,0.015,1.065,
4734,-0.11,0.655,
4735,-0.315,0.365,
4736,-0.485,0.185,
4737,-0.595,0.065,
4738,-0.61,0.015,
4739,-0.59,0.02,
4740,-0.515,0.05,
4741,-0.42,0.045,
4742,-0.3,0.045,
4743,-0.235,0.02,
4744,-0.225,-0.01,
4745,-0.205,-0.015,
4746,-0.2,-0.04,
4747,-0.19,-0.045,
4748,-0.16,-0.045,
4749,-0.165,-0.065,
4750,-0.18,-0.075,
4751,-0.185,-0.095,
4752,-0.175,-0.08,
4753,-0.155,-0.075,
4754,-0.13,-0.06,
4755,-0.13,-0.075,
4756,-0.15,-0.095,
4757,-0.15,-0.1,
4758,-0.155,-0.1,
4759,-0.135,-0.075,
4760,-0.115,-0.07,
4761,-0.115,-0.075,
4762,-0.115,-0.09,
4763,-0.14,-0.11,
4764,-0.125,-0.1,
4765,-0.125,-0.085,
4766,-0.095,-0.085,
4767,-0.1,-0.095,
4768,-0.11,-0.12,
4769,-0.13,-0.115,
4770,-0.13,-0.11,
4771,-0.125,-0.105,
4772,-0.105,-0.105,
4773,-0.105,-0.105,
4774,-0.11,-0.12,
4775,-0.11,-0.115,
4776,-0.11,-0.115,
4777,-0.105,-0.11,
4778,-0.08,-0.11,
4779,-0.08,-0.125,
4780,-0.09,-0.125,
4781,-0.115,-0.13,
4782,-0.105,-0.125,
4783,-0.095,-0.115,
4784,-0.08,-0.095,
4785,-0.075,-0.125,
4786,-0.08,-0.125,
4787,-0.085,-0.13,
4788,-0.09,-0.125,
4789,-0.08,-0.11,
4790,-0.065,-0.115,
4791,-0.065,-0.115,
4792,-0.085,-0.13,
4793,-0.1,-0.125,
4794,-0.08,-0.125,
4795,-0.07,-0.11,
4796,-0.04,-0.1,
4797,-0.045,-0.11,
4798,-0.055,-0.13,
4799,-0.065,-0.12,
4800,-0.06,-0.115,
4801,-0.055,-0.105,
4802,-0.04,-0.105,
4803,-0.025,-0.1,
4804,-0.035,-0.13,
4805,-0.04,-0.125,
4806,-0.04,-0.11,
4807,-0.025,-0.085,
4808,0.0,-0.09,
4809,-0.015,-0.09,
4810,-0.015,-0.095,
4811,-0.02,-0.105,
4812,-0.015,-0.09,
4813,-0.005,-0.075,
4814,0.02,-0.075,
4815,0.02,-0.075,
4816,0.02,-0.075,
4817,0.0,-0.065,
4818,0.02,-0.05,
4819,0.03,-0.025,
4820,0.06,-0.01,
4821,0.065,0.0,
4822,0.065,-0.005,
4823,0.06,-0.005,
4824,0.07,0.015,
4825,0.07,0.045,
4826,0.105,0.065,
4827,0.1,0.08,
4828,0.105,0.095,
4829,0.1,0.1,
4830,0.11,0.125,
4831,0.12,0.16,
4832,0.14,0.175,
4833,0.14,0.195,
4834,0.13,0.19,
4835,0.13,0.205,
4836,0.13,0.24,
4837,0.14,0.25,
4838,0.16,0.27,
4839,0.145,0.26,
4840,0.12,0.265,
4841,0.11,0.26,
4842,0.09,0.285,
4843,0.105,0.295,
4844,0.115,0.285,
4845,0.085,0.285,
4846,0.065,0.255,
4847,0.05,0.245,
4848,0.035,0.245,
4849,0.045,0.24,
4850,0.045,0.24,
4851,0.025,0.215,
4852,0.0,0.19,
4853,-0.02,0.18,
4854,-0.035,0.17,
4855,-0.03,0.165,
4856,-0.03,0.16,
4857,-0.045,0.14,
4858,-0.07,0.11,
4859,-0.09,0.105,
4860,-0.08,0.115,
4861,-0.08,0.125,
4862,-0.07,0.135,
4863,-0.07,0.11,
4864,-0.095,0.095,
4865,-0.1,0.09,
4866,-0.13,0.095,
4867,-0.125,0.12,
4868,-0.11,0.11,
4869,-0.105,0.095,
4870,-0.115,0.095,
4871,-0.125,0.075,
4872,-0.14,0.09,
4873,-0.13,0.09,
4874,-0.1,0.1,
4875,-0.12,0.075,
4876,-0.13,0.07,
4877,-0.15,0.075,
4878,-0.145,0.08,
4879,-0.12,0.085,
4880,-0.115,0.08,
4881,-0.11,0.075,
4882,-0.125,0.065,
4883,-0.135,0.065,
4884,-0.145,0.065,
4885,-0.13,0.085,
4886,-0.1,0.08,
4887,-0.125,0.07,
4888,-0.135,0.055,
4889,-0.14,0.055,
4890,-0.145,0.055,
4891,-0.13,0.065,
4892,-0.12,0.075,
4893,-0.12,0.06,
4894,-0.13,0.045,
4895,-0.145,0.035,
4896,-0.17,0.045,
4897,-0.15,0.06,
4898,-0.135,0.055,
4899,-0.145,0.055,
4900,-0.155,0.03,
4901,-0.16,0.03,
4902,-0.17,0.035,
4903,-0.145,0.05,
4904,-0.125,0.05,
4905,-0.135,0.04,
4906,-0.145,0.02,
4907,-0.155,0.03,
4908,-0.16,0.03,
4909,-0.155,0.04,
4910,-0.145,0.035,
4911,-0.14,0.035,
4912,-0.15,0.025,
4913,-0.15,0.025,
4914,-0.15,0.035,
4915,-0.135,0.045,
4916,-0.115,0.035,
4917,-0.13,0.035,
4918,-0.135,0.005,
4919,-0.15,0.025,
4920,-0.15,0.035,
4921,-0.135,0.055,
4922,-0.13,0.06,
4923,-0.14,0.045,
4924,-0.135,0.03,
4925,-0.145,0.035,
4926,-0.15,0.05,
4927,-0.135,0.065,
4928,-0.125,0.05,
4929,-0.135,0.05,
4930,-0.14,0.035,
4931,-0.145,0.035,
4932,-0.145,0.06,
4933,-0.13,0.07,
4934,-0.11,0.07,
4935,-0.12,0.06,
4936,-0.135,0.04,
4937,-0.145,0.04,
4938,-0.155,0.045,
4939,-0.135,0.06,
4940,-0.12,0.06,
4941,-0.13,0.04,
4942,-0.14,0.04,
4943,-0.16,0.03,
4944,-0.155,0.04,
4945,-0.155,0.06,
4946,-0.14,0.06,
4947,-0.15,0.045,
4948,-0.165,0.03,
4949,-0.17,0.025,
4950,-0.2,0.035,
4951,-0.17,0.055,
4952,-0.165,0.045,
4953,-0.165,0.035,
4954,-0.18,0.025,
4955,-0.185,0.015,
4956,-0.175,0.025,
4957,-0.17,0.055,
4958,-0.155,0.035,
4959,-0.165,0.03,
4960,-0.185,0.02,
4961,-0.2,0.015,
4962,-0.19,0.015,
4963,-0.175,0.015,
4964,-0.16,0.03,
4965,-0.165,0.02,
4966,-0.19,0.0,
4967,-0.2,0.005,
4968,-0.205,0.02,
4969,-0.195,0.025,
4970,-0.175,0.055,
4971,-0.185,0.025,
4972,-0.19,0.01,
4973,-0.195,0.0,
4974,-0.19,0.02,
4975,-0.19,0.02,
4976,-0.185,0.025,
4977,-0.19,0.02,
4978,-0.195,0.005,
4979,-0.205,-0.01,
4980,-0.205,-0.01,
4981,-0.205,0.015,
4982,-0.19,0.015,
4983,-0.19,0.025,
4984,-0.205,0.01,
4985,-0.2,0.005,
4986,-0.205,0.015,
4987,-0.19,0.02,
4988,-0.18,0.03,
4989,-0.205,0.01,
4990,-0.215,0.005,
4991,-0.22,-0.005,
4992,-0.215,0.005,
4993,-0.2,0.015,
4994,-0.195,0.01,
4995,-0.195,0.0,
4996,-0.2,-0.005,
4997,-0.22,-0.02,
4998,-0.22,-0.005,
4999,-0.205,0.005,
5000,-0.2,0.01,
5001,-0.195,0.005,
5002,-0.215,-0.005,
5003,-0.22,0.0,
5004,-0.21,0.015,
5005,-0.21,0.035,
5006,-0.185,0.02,
5007,-0.19,0.005,
5008,-0.215,0.005,
5009,-0.22,-0.005,
5010,-0.215,0.01,
5011,-0.205,0.025,
5012,-0.19,0.02,
5013,-0.195,0.02,
5014,-0.22,0.005,
5015,-0.22,0.005,
5016,-0.21,0.02,
5017,-0.2,0.035,
5018,-0.195,0.015,
5019,-0.195,0.015,
5020,-0.21,0.0,
5021,-0.215,-0.01,
5022,-0.22,0.0,
5023,-0.205,0.015,
5024,-0.19,0.015,
5025,-0.2,0.005,
5026,-0.21,-0.02,
5027,-0.215,-0.005,
5028,-0.21,0.0,
5029,-0.215,0.005,
5030,-0.195,0.015,
5031,-0.195,-0.015,
5032,-0.195,-0.015,
5033,-0.21,-0.015,
5034,-0.205,0.005,
5035,-0.195,0.02,
5036,-0.185,0.02,
5037,-0.195,0.015,
5038,-0.21,0.0,
5039,-0.23,-0.005,
5040,-0.22,0.03,
5041,-0.21,0.025,
5042,-0.19,0.025,
5043,-0.17,0.015,
5044,-0.185,0.015,
5045,-0.19,0.015,
5046,-0.195,0.025,
5047,-0.165,0.035,
5048,-0.16,0.06,
5049,-0.16,0.045,
5050,-0.16,0.03,
5051,-0.16,0.04,
5052,-0.165,0.06,
5053,-0.15,0.08,
5054,-0.13,0.08,
5055,-0.125,0.07,
5056,-0.135,0.07,
5057,-0.165,0.075,
5058,-0.16,0.075,
5059,-0.135,0.09,
5060,-0.125,0.09,
5061,-0.14,0.065,
5062,-0.16,0.05,
5063,-0.18,0.04,
5064,-0.2,0.05,
5065,-0.195,0.06,
5066,-0.185,0.055,
5067,-0.19,0.05,
5068,-0.2,0.035,
5069,-0.21,0.045,
5070,-0.205,0.045,
5071,-0.19,0.065,
5072,-0.17,0.07,
5073,-0.175,0.075,
5074,-0.175,0.07,
5075,-0.2,0.075,
5076,-0.18,0.07,
5077,-0.165,0.08,
5078,-0.15,0.075,
5079,-0.15,0.07,
5080,-0.17,0.035,
5081,-0.185,0.04,
5082,-0.2,0.04,
5083,-0.2,0.045,
5084,-0.205,0.045,
5085,-0.22,0.025,
5086,-0.235,0.025,
5087,-0.25,0.015,
5088,-0.25,0.035,
5089,-0.225,0.045,
5090,-0.21,0.055,
5091,-0.22,0.05,
5092,-0.225,0.025,
5093,-0.245,0.02,
5094,-0.255,0.025,
5095,-0.25,0.045,
5096,-0.22,0.035,
5097,-0.225,0.02,
5098,-0.235,0.01,
5099,-0.245,0.005,
5100,-0.24,0.02,
5101,-0.24,0.035,
5102,-0.24,0.05,
5103,-0.235,0.025,
5104,-0.23,-0.005,
5105,-0.26,-0.015,
5106,-0.27,0.01,
5107,-0.24,0.025,
5108,-0.21,0.045,
5109,-0.21,0.04,
5110,-0.21,0.035,
5111,-0.23,0.02,
5112,-0.22,0.03,
5113,-0.22,0.05,
5114,-0.205,0.05,
5115,-0.23,0.05,
5116,-0.22,0.04,
5117,-0.235,0.03,
5118,-0.225,0.055,
5119,-0.23,0.085,
5120,-0.215,0.1,
5121,-0.21,0.115,
5122,-0.205,0.13,
5123,-0.19,0.165,
5124,-0.18,0.215,
5125,-0.15,0.285,
5126,-0.125,0.32,
5127,-0.09,0.365,
5128,-0.09,0.415,
5129,-0.13,0.49,
5130,-0.18,0.615,
5131,-0.22,0.76,
5132,-0.245,0.91,
5133,-0.29,1.035,
5134,-0.345,1.165,
5135,-0.44,1.305,
5136,-0.515,1.445,
5137,-0.565,1.615,
5138,-0.555,1.785,
5139,-0.495,1.965,
5140,-0.43,2.09,N
5141,-0.325,2.13,
5142,-0.2,2.065,
5143,-0.075,1.86,
5144,0.02,1.495,
5145,0.035,1.055,
5146,-0.065,0.655,
5147,-0.24,0.385,
5148,-0.435,0.195,
5149,-0.55,0.095,
5150,-0.585,0.04,
5151,-0.585,0.015,
5152,-0.57,0.015,
5153,-0.515,0.005,
5154,-0.42,0.03,
5155,-0.33,0.045,
5156,-0.245,0.03,
5157,-0.24,0.005,
5158,-0.23,-0.02,
5159,-0.235,-0.04,
5160,-0.23,-0.045,
5161,-0.215,-0.045,
5162,-0.2,-0.05,
5163,-0.205,-0.065,
5164,-0.21,-0.075,
5165,-0.215,-0.075,
5166,-0.21,-0.08,
5167,-0.195,-0.06,
5168,-0.17,-0.08,
5169,-0.17,-0.095,
5170,-0.175,-0.1,
5171,-0.175,-0.075,
5172,-0.17,-0.08,
5173,-0.17,-0.075,
5174,-0.15,-0.075,
5175,-0.145,-0.09,
5176,-0.165,-0.11,
5177,-0.165,-0.11,
5178,-0.165,-0.105,
5179,-0.165,-0.1,
5180,-0.145,-0.09,
5181,-0.14,-0.095,
5182,-0.15,-0.11,
5183,-0.155,-0.12,
5184,-0.16,-0.105,
5185,-0.145,-0.085,
5186,-0.145,-0.095,
5187,-0.13,-0.125,
5188,-0.15,-0.135,
5189,-0.165,-0.125,
5190,-0.175,-0.11,
5191,-0.155,-0.095,
5192,-0.145,-0.09,
5193,-0.125,-0.105,
5194,-0.145,-0.12,
5195,-0.15,-0.13,
5196,-0.155,-0.125,
5197,-0.15,-0.11,
5198,-0.115,-0.11,
5199,-0.13,-0.105,
5200,-0.14,-0.125,
5201,-0.145,-0.14,
5202,-0.14,-0.13,
5203,-0.14,-0.12,
5204,-0.135,-0.13,
5205,-0.11,-0.135,
5206,-0.13,-0.15,
5207,-0.13,-0.135,
5208,-0.14,-0.135,
5209,-0.14,-0.115,
5210,-0.11,-0.12,
5211,-0.13,-0.115,
5212,-0.14,-0.15,
5213,-0.13,-0.14,
5214,-0.125,-0.145,
5215,-0.105,-0.135,
5216,-0.1,-0.125,
5217,-0.095,-0.125,
5218,-0.115,-0.14,
5219,-0.115,-0.125,
5220,-0.115,-0.125,
5221,-0.085,-0.115,
5222,-0.08,-0.125,
5223,-0.08,-0.125,
5224,-0.1,-0.13,
5225,-0.105,-0.13,
5226,-0.095,-0.13,
5227,-0.075,-0.11,
5228,-0.055,-0.105,
5229,-0.06,-0.12,
5230,-0.065,-0.105,
5231,-0.085,-0.1,
5232,-0.06,-0.1,
5233,-0.045,-0.075,
5234,-0.015,-0.08,
5235,-0.025,-0.075,
5236,-0.045,-0.08,
5237,-0.05,-0.05,
5238,-0.03,-0.03,
5239,0.0,-0.02,
5240,0.015,0.005,
5241,0.015,0.015,
5242,-0.005,0.02,
5243,-0.005,0.035,
5244,0.01,0.06,
5245,0.02,0.085,
5246,0.025,0.1,
5247,0.025,0.105,
5248,0.025,0.12,
5249,0.01,0.14,
5250,0.02,0.175,
5251,0.035,0.205,
5252,0.055,0.215,
5253,0.045,0.22,
5254,0.03,0.205,
5255,0.015,0.22,
5256,0.025,0.25,
5257,0.01,0.275,
5258,0.035,0.27,
5259,0.03,0.26,
5260,0.005,0.235,
5261,-0.025,0.22,
5262,-0.03,0.22,
5263,-0.02,0.225,
5264,-0.025,0.215,
5265,-0.035,0.21,
5266,-0.055,0.195,
5267,-0.085,0.17,
5268,-0.09,0.165,
5269,-0.075,0.16,
5270,-0.095,0.155,
5271,-0.095,0.135,
5272,-0.115,0.115,
5273,-0.14,0.1,
5274,-0.155,0.1,
5275,-0.13,0.105,
5276,-0.14,0.105,
5277,-0.135,0.085,
5278,-0.165,0.06,
5279,-0.19,0.065,
5280,-0.195,0.07,
5281,-0.175,0.085,
5282,-0.16,0.09,
5283,-0.16,0.085,
5284,-0.185,0.06,
5285,-0.195,0.05,
5286,-0.19,0.05,
5287,-0.185,0.055,
5288,-0.185,0.065,
5289,-0.19,0.065,
5290,-0.18,0.055,
5291,-0.21,0.055,
5292,-0.205,0.07,
5293,-0.205,0.08,
5294,-0.185,0.075,
5295,-0.19,0.06,
5296,-0.205,0.035,
5297,-0.205,0.035,
5298,-0.215,0.045,
5299,-0.195,0.07,
5300,-0.18,0.06,
5301,-0.195,0.045,
5302,-0.21,0.035,
5303,-0.21,0.02,
5304,-0.22,0.03,
5305,-0.205,0.035,
5306,-0.2,0.04,
5307,-0.205,0.035,
5308,-0.21,0.015,
5309,-0.205,0.015,
5310,-0.215,0.015,
5311,-0.205,0.03,
5312,-0.19,0.025,
5313,-0.2,0.01,
5314,-0.23,0.0,
5315,-0.24,0.015,
5316,-0.25,0.015,
5317,-0.21,0.035,
5318,-0.2,0.04,
5319,-0.21,0.02,
5320,-0.21,0.015,
5321,-0.225,0.0,
5322,-0.225,0.005,
5323,-0.225,0.015,
5324,-0.215,0.02,
5325,-0.2,0.015,
5326,-0.205,0.005,
5327,-0.215,0.02,
5328,-0.225,0.02,
5329,-0.205,0.03,
5330,-0.195,0.025,
5331,-0.195,0.005,
5332,-0.22,-0.01,
5333,-0.23,0.0,
5334,-0.23,0.02,
5335,-0.22,0.035,
5336,-0.21,0.04,
5337,-0.205,0.02,
5338,-0.225,0.015,
5339,-0.235,0.01,
5340,-0.23,0.025,
5341,-0.21,0.025,
5342,-0.2,0.04,
5343,-0.21,0.035,
5344,-0.215,0.015,
5345,-0.225,0.015,
5346,-0.25,0.03,
5347,-0.22,0.035,
5348,-0.2,0.02,
5349,-0.2,0.025,
5350,-0.225,0.005,
5351,-0.25,0.015,
5352,-0.23,0.02,
5353,-0.215,0.04,
5354,-0.205,0.03,
5355,-0.215,0.02,
5356,-0.23,0.01,
5357,-0.245,0.005,
5358,-0.24,0.02,
5359,-0.225,0.015,
5360,-0.22,0.04,
5361,-0.23,0.025,
5362,-0.235,0.01,
5363,-0.255,0.005,
5364,-0.265,0.025,
5365,-0.255,0.03,
5366,-0.22,0.025,
5367,-0.245,0.015,
5368,-0.245,0.005,
5369,-0.265,0.01,
5370,-0.27,0.025,
5371,-0.25,0.025,
5372,-0.225,0.04,
5373,-0.235,0.03,
5374,-0.25,0.005,
5375,-0.255,0.015,
5376,-0.26,0.015,
5377,-0.265,0.03,
5378,-0.23,0.03,
5379,-0.225,0.015,
5380,-0.255,0.015,
5381,-0.265,0.005,
5382,-0.255,0.015,
5383,-0.245,0.01,
5384,-0.235,0.01,
5385,-0.24,0.01,
5386,-0.27,-0.01,
5387,-0.27,0.0,
5388,-0.27,0.015,
5389,-0.26,0.02,
5390,-0.245,0.02,
5391,-0.26,0.01,
5392,-0.28,0.005,
5393,-0.285,0.0,
5394,-0.275,0.01,
5395,-0.26,0.025,
5396,-0.255,0.015,
5397,-0.265,0.015,
5398,-0.27,0.005,
5399,-0.275,-0.005,
5400,-0.275,-0.005,
5401,-0.25,0.015,
5402,-0.26,0.015,
5403,-0.255,0.0,
5404,-0.275,-0.015,
5405,-0.265,-0.01,
5406,-0.28,0.01,
5407,-0.26,0.01,
5408,-0.23,0.01,
5409,-0.25,0.01,
5410,-0.26,0.005,
5411,-0.265,0.0,
5412,-0.275,0.01,
5413,-0.27,0.01,
5414,-0.255,0.025,
5415,-0.255,0.0,
5416,-0.26,0.0,
5417,-0.275,-0.015,
5418,-0.27,0.005,
5419,-0.265,0.015,
5420,-0.245,0.025,
5421,-0.26,0.015,
5422,-0.27,-0.005,
5423,-0.28,-0.01,
5424,-0.29,0.01,
5425,-0.28,0.02,
5426,-0.25,0.025,
5427,-0.26,0.015,
5428,-0.26,-0.01,
5429,-0.3,0.0,
5430,-0.285,0.005,
5431,-0.28,0.01,
5432,-0.25,0.02,
5433,-0.26,0.015,
5434,-0.265,-0.005,
5435,-0.27,-0.005,
5436,-0.28,0.01,
5437,-0.255,0.01,
5438,-0.24,0.025,
5439,-0.24,0.005,
5440,-0.28,-0.01,
5441,-0.275,-0.005,
5442,-0.28,0.015,
5443,-0.275,0.01,
5444,-0.25,0.02,
5445,-0.245,0.005,
5446,-0.275,0.005,
5447,-0.28,0.0,
5448,-0.265,0.005,
5449,-0.255,0.02,
5450,-0.255,0.015,
5451,-0.25,0.005,
5452,-0.26,-0.005,
5453,-0.285,-0.005,
5454,-0.28,0.0,
5455,-0.27,0.01,
5456,-0.255,0.02,
5457,-0.24,0.005,
5458,-0.245,0.005,
5459,-0.26,0.02,
5460,-0.23,0.025,
5461,-0.225,0.05,
5462,-0.215,0.04,
5463,-0.21,0.035,
5464,-0.23,0.03,
5465,-0.22,0.025,
5466,-0.22,0.04,
5467,-0.205,0.06,
5468,-0.18,0.07,
5469,-0.18,0.05,
5470,-0.19,0.05,
5471,-0.2,0.055,
5472,-0.205,0.065,
5473,-0.205,0.075,
5474,-0.195,0.065,
5475,-0.195,0.05,
5476,-0.23,0.025,
5477,-0.255,0.02,
5478,-0.255,0.03,
5479,-0.24,0.035,
5480,-0.245,0.035,
5481,-0.245,0.03,
5482,-0.25,0.015,
5483,-0.27,0.02,
5484,-0.25,0.03,
5485,-0.235,0.05,
5486,-0.22,0.065,
5487,-0.22,0.045,
5488,-0.24,0.045,
5489,-0.25,0.035,
5490,-0.235,0.045,
5491,-0.22,0.055,
5492,-0.2,0.055,
5493,-0.205,0.04,
5494,-0.215,0.01,
5495,-0.245,-0.005,
5496,-0.265,-0.005,
5497,-0.265,0.005,
5498,-0.265,-0.005,
5499,-0.275,0.005,
5500,-0.295,-0.015,
5501,-0.295,-0.005,
5502,-0.295,-0.005,
5503,-0.28,0.01,
5504,-0.26,0.0,
5505,-0.27,-0.005,
5506,-0.28,-0.025,
5507,-0.305,-0.02,
5508,-0.295,-0.015,
5509,-0.28,-0.005,
5510,-0.265,-0.005,
5511,-0.28,-0.01,
5512,-0.285,-0.02,
5513,-0.3,-0.015,
5514,-0.29,-0.005,
5515,-0.275,-0.005,
5516,-0.26,-0.01,
5517,-0.28,-0.025,
5518,-0.295,-0.025,
5519,-0.295,-0.015,
5520,-0.285,-0.005,
5521,-0.26,0.01,
5522,-0.255,-0.005,
5523,-0.27,-0.005,
5524,-0.28,-0.015,
5525,-0.29,-0.01,
5526,-0.285,0.005,
5527,-0.26,0.03,
5528,-0.25,0.04,
5529,-0.255,0.05,
5530,-0.255,0.05,
5531,-0.255,0.075,
5532,-0.245,0.13,
5533,-0.215,0.185,
5534,-0.19,0.25,
5535,-0.185,0.295,
5536,-0.18,0.34,
5537,-0.215,0.38,
5538,-0.27,0.52,
5539,-0.345,0.67,
5540,-0.41,0.825,
5541,-0.475,0.965,
5542,-0.545,1.105,
5543,-0.645,1.275,
5544,-0.715,1.44,
5545,-0.755,1.62,
5546,-0.725,1.815,
5547,-0.66,2.02,N
5548,-0.57,2.145,
5549,-0.47,2.14,
5550,-0.325,1.95,
5551,-0.185,1.605,
5552,-0.135,1.12,
5553,-0.195,0.69,
5554,-0.365,0.385,
5555,-0.55,0.16,
5556,-0.65,0.03,
5557,-0.67,-0.02,
5558,-0.64,-0.015,
5559,-0.585,-0.015,
5560,-0.505,-0.015,
5561,-0.425,-0.03,
5562,-0.32,-0.015,
5563,-0.29,-0.015,
5564,-0.245,-0.02,
5565,-0.235,-0.05,
5566,-0.225,-0.085,
5567,-0.24,-0.1,
5568,-0.245,-0.095,
5569,-0.225,-0.1,
5570,-0.215,-0.105,
5571,-0.2,-0.12,
5572,-0.21,-0.14,
5573,-0.215,-0.13,
5574,-0.205,-0.13,
5575,-0.205,-0.125,
5576,-0.19,-0.115,
5577,-0.19,-0.12,
5578,-0.185,-0.14,
5579,-0.2,-0.15,
5580,-0.18,-0.13,
5581,-0.155,-0.13,
5582,-0.15,-0.13,
5583,-0.155,-0.14,
5584,-0.155,-0.165,
5585,-0.17,-0.16,
5586,-0.16,-0.14,
5587,-0.15,-0.145,
5588,-0.14,-0.145,
5589,-0.13,-0.17,
5590,-0.15,-0.18,
5591,-0.145,-0.18,
5592,-0.145,-0.165,
5593,-0.14,-0.155,
5594,-0.14,-0.155,
5595,-0.135,-0.17,
5596,-0.145,-0.19,
5597,-0.155,-0.19,
5598,-0.15,-0.18,
5599,-0.145,-0.18,
5600,-0.12,-0.17,
5601,-0.135,-0.18,
5602,-0.145,-0.2,
5603,-0.145,-0.19,
5604,-0.145,-0.185,
5605,-0.125,-0.17,
5606,-0.12,-0.175,
5607,-0.125,-0.185,
5608,-0.135,-0.2,
5609,-0.145,-0.2,
5610,-0.135,-0.18,
5611,-0.12,-0.17,
5612,-0.115,-0.155,
5613,-0.12,-0.165,
5614,-0.125,-0.195,
5615,-0.12,-0.19,
5616,-0.105,-0.18,
5617,-0.1,-0.165,
5618,-0.08,-0.165,
5619,-0.075,-0.175,
5620,-0.08,-0.19,
5621,-0.09,-0.17,
5622,-0.095,-0.16,
5623,-0.07,-0.145,
5624,-0.055,-0.16,
5625,-0.055,-0.16,
5626,-0.06,-0.165,
5627,-0.07,-0.17,
5628,-0.055,-0.155,
5629,-0.06,-0.13,
5630,-0.035,-0.125,
5631,-0.03,-0.14,
5632,-0.025,-0.14,
5633,-0.045,-0.135,
5634,-0.03,-0.11,
5635,0.0,-0.08,
5636,0.0,-0.08,
5637,0.005,-0.08,
5638,-0.005,-0.07,
5639,-0.005,-0.06,
5640,0.005,-0.035,
5641,0.025,-0.01,
5642,0.035,0.0,
5643,0.035,0.005,
5644,0.035,0.015,
5645,0.015,0.03,
5646,0.035,0.055,
5647,0.05,0.09,
5648,0.075,0.095,
5649,0.065,0.1,
5650,0.065,0.11,
5651,0.05,0.14,
5652,0.06,0.16,
5653,0.075,0.205,
5654,0.09,0.22,
5655,0.07,0.215,
5656,0.06,0.22,
5657,0.07,0.22,
5658,0.065,0.24,
5659,0.07,0.26,
5660,0.075,0.255,
5661,0.07,0.245,
5662,0.04,0.24,
5663,0.025,0.225,
5664,0.01,0.25,
5665,0.015,0.245,
5666,0.005,0.23,
5667,-0.01,0.215,
5668,-0.02,0.195,
5669,-0.04,0.18,
5670,-0.055,0.185,
5671,-0.05,0.185,
5672,-0.045,0.175,
5673,-0.065,0.145,
5674,-0.09,0.12,
5675,-0.105,0.12,
5676,-0.115,0.115,
5677,-0.115,0.12,
5678,-0.11,0.105,
5679,-0.12,0.1,
5680,-0.135,0.07,
5681,-0.15,0.075,
5682,-0.15,0.075,
5683,-0.145,0.09,
5684,-0.145,0.075,
5685,-0.14,0.08,
5686,-0.17,0.06,
5687,-0.175,0.055,
5688,-0.17,0.065,
5689,-0.165,0.08,
5690,-0.165,0.075,
5691,-0.175,0.06,
5692,-0.185,0.04,
5693,-0.19,0.05,
5694,-0.18,0.06,
5695,-0.165,0.075,
5696,-0.17,0.065,
5697,-0.18,0.055,
5698,-0.17,0.04,
5699,-0.2,0.04,
5700,-0.185,0.055,
5701,-0.19,0.065,
5702,-0.175,0.06,
5703,-0.175,0.06,
5704,-0.175,0.045,
5705,-0.195,0.055,
5706,-0.195,0.055,
5707,-0.17,0.06,
5708,-0.16,0.06,
5709,-0.175,0.045,
5710,-0.19,0.025,
5711,-0.205,0.035,
5712,-0.185,0.035,
5713,-0.165,0.05,
5714,-0.155,0.04,
5715,-0.16,0.04,
5716,-0.185,0.015,
5717,-0.195,0.02,
5718,-0.185,0.03,
5719,-0.185,0.03,
5720,-0.17,0.04,
5721,-0.175,0.025,
5722,-0.19,0.02,
5723,-0.195,0.02,
5724,-0.19,0.035,
5725,-0.16,0.04,
5726,-0.155,0.04,
5727,-0.155,0.02,
5728,-0.175,0.01,
5729,-0.18,0.02,
5730,-0.19,0.035,
5731,-0.17,0.05,
5732,-0.16,0.04,
5733,-0.16,0.035,
5734,-0.165,0.015,
5735,-0.18,0.015,
5736,-0.175,0.03,
5737,-0.165,0.045,
5738,-0.16,0.045,
5739,-0.155,0.035,
5740,-0.17,0.04,
5741,-0.2,0.025,
5742,-0.205,0.035,
5743,-0.175,0.045,
5744,-0.17,0.035,
5745,-0.17,0.025,
5746,-0.19,0.03,
5747,-0.195,0.03,
5748,-0.19,0.035,
5749,-0.175,0.055,
5750,-0.16,0.045,
5751,-0.165,0.035,
5752,-0.195,0.025,
5753,-0.2,0.025,
5754,-0.19,0.035,
5755,-0.18,0.05,
5756,-0.17,0.05,
5757,-0.185,0.045,
5758,-0.2,0.015,
5759,-0.2,0.025,
5760,-0.2,0.03,
5761,-0.19,0.03,
5762,-0.19,0.04,
5763,-0.195,0.035,
5764,-0.2,0.02,
5765,-0.22,0.01,
5766,-0.22,0.02,
5767,-0.22,0.03,
5768,-0.205,0.04,
5769,-0.215,0.02,
5770,-0.24,0.01,
5771,-0.235,0.02,
5772,-0.24,0.03,
5773,-0.21,0.035,
5774,-0.21,0.02,
5775,-0.225,0.01,
5776,-0.225,0.0,
5777,-0.245,-0.01,
5778,-0.255,0.02,
5779,-0.235,0.02,
5780,-0.215,0.02,
5781,-0.225,0.005,
5782,-0.23,0.0,
5783,-0.235,0.0,
5784,-0.26,0.005,
5785,-0.235,0.02,
5786,-0.215,0.015,
5787,-0.22,0.01,
5788,-0.235,0.0,
5789,-0.25,0.0,
5790,-0.26,0.02,
5791,-0.23,0.02,
5792,-0.24,0.015,
5793,-0.245,0.01,
5794,-0.25,-0.005,
5795,-0.26,-0.005,
5796,-0.255,0.02,
5797,-0.24,0.015,
5798,-0.225,0.015,
5799,-0.23,0.01,
5800,-0.24,0.0,
5801,-0.25,0.005,
5802,-0.255,0.02,
5803,-0.24,0.015,
5804,-0.225,0.015,
5805,-0.24,0.005,
5806,-0.245,-0.005,
5807,-0.26,0.015,
5808,-0.26,0.02,
5809,-0.26,0.035,
5810,-0.235,0.025,
5811,-0.25,0.02,
5812,-0.255,-0.005,
5813,-0.27,0.01,
5814,-0.265,0.01,
5815,-0.245,0.035,
5816,-0.23,0.035,
5817,-0.23,0.03,
5818,-0.245,0.005,
5819,-0.255,0.015,
5820,-0.245,0.03,
5821,-0.23,0.04,
5822,-0.22,0.025,
5823,-0.22,0.01,
5824,-0.24,0.0,
5825,-0.245,0.02,
5826,-0.245,0.03,
5827,-0.225,0.05,
5828,-0.22,0.025,
5829,-0.22,0.035,
5830,-0.24,0.01,
5831,-0.26,0.0,
5832,-0.25,0.03,
5833,-0.235,0.045,
5834,-0.225,0.04,
5835,-0.23,0.025,
5836,-0.24,0.025,
5837,-0.24,0.015,
5838,-0.24,0.03,
5839,-0.225,0.045,
5840,-0.22,0.025,
5841,-0.23,0.02,
5842,-0.24,0.01,
5843,-0.25,0.015,
5844,-0.245,0.03,
5845,-0.22,0.045,
5846,-0.195,0.05,
5847,-0.19,0.045,
5848,-0.21,0.03,
5849,-0.2,0.045,
5850,-0.195,0.065,
5851,-0.175,0.075,
5852,-0.155,0.085,
5853,-0.17,0.075,
5854,-0.175,0.06,
5855,-0.18,0.07,
5856,-0.185,0.085,
5857,-0.16,0.095,
5858,-0.145,0.1,
5859,-0.15,0.08,
5860,-0.175,0.075,
5861,-0.19,0.09,
5862,-0.2,0.1,
5863,-0.17,0.1,
5864,-0.17,0.08,
5865,-0.17,0.075,
5866,-0.205,0.045,
5867,-0.225,0.045,
5868,-0.23,0.065,
5869,-0.22,0.08,
5870,-0.205,0.065,
5871,-0.21,0.065,
5872,-0.22,0.055,
5873,-0.235,0.065,
5874,-0.23,0.08,
5875,-0.21,0.1,
5876,-0.205,0.09,
5877,-0.195,0.075,
5878,-0.2,0.065,
5879,-0.215,0.06,
5880,-0.195,0.07,
5881,-0.175,0.08,
5882,-0.18,0.055,
5883,-0.2,0.035,
5884,-0.23,0.01,
5885,-0.255,0.02,
5886,-0.265,0.03,
5887,-0.255,0.045,
5888,-0.245,0.035,
5889,-0.265,0.045,
5890,-0.265,0.025,
5891,-0.265,0.02,
5892,-0.25,0.02,
5893,-0.255,0.035,
5894,-0.25,0.04,
5895,-0.25,0.03,
5896,-0.255,0.01,
5897,-0.265,0.01,
5898,-0.25,0.025,
5899,-0.23,0.035,
5900,-0.225,0.035,
5901,-0.235,0.015,
5902,-0.25,0.015,
5903,-0.265,0.01,
5904,-0.255,0.015,
5905,-0.25,0.03,
5906,-0.24,0.03,
5907,-0.225,0.02,
5908,-0.265,0.0,
5909,-0.27,0.01,
5910,-0.26,0.025,
5911,-0.24,0.015,
5912,-0.245,0.025,
5913,-0.225,0.02,
5914,-0.245,0.02,
5915,-0.26,0.025,
5916,-0.265,0.045,
5917,-0.245,0.055,
5918,-0.215,0.055,
5919,-0.24,0.06,
5920,-0.245,0.06,
5921,-0.235,0.09,
5922,-0.215,0.145,
5923,-0.205,0.205,
5924,-0.185,0.265,
5925,-0.165,0.3,
5926,-0.145,0.36,
5927,-0.15,0.435,
5928,-0.175,0.545,
5929,-0.26,0.71,
5930,-0.3,0.875,
5931,-0.335,1.035,
5932,-0.385,1.175,
5933,-0.46,1.33,
5934,-0.545,1.515,
5935,-0.59,1.68,
5936,-0.57,1.88,
5937,-0.515,2.08,
5938,-0.445,2.205,N
5939,-0.32,2.245,
5940,-0.185,2.17,
5941,-0.045,1.89,
5942,0.035,1.465,
5943,0.01,0.99,
5944,-0.15,0.605,
5945,-0.36,0.33,
5946,-0.51,0.175,
5947,-0.59,0.085,
5948,-0.59,0.025,
5949,-0.58,0.015,
5950,-0.56,0.025,
5951,-0.495,0.015,
5952,-0.385,0.03,
5953,-0.315,0.01,
5954,-0.245,0.01,
5955,-0.22,-0.005,
5956,-0.23,-0.035,
5957,-0.225,-0.04,
5958,-0.205,-0.05,
5959,-0.19,-0.055,
5960,-0.175,-0.07,
5961,-0.18,-0.08,
5962,-0.195,-0.105,
5963,-0.2,-0.1,
5964,-0.185,-0.08,
5965,-0.15,-0.07,
5966,-0.125,-0.08,
5967,-0.14,-0.09,
5968,-0.16,-0.1,
5969,-0.15,-0.105,
5970,-0.145,-0.085,
5971,-0.135,-0.085,
5972,-0.12,-0.075,
5973,-0.125,-0.09,
5974,-0.13,-0.1,
5975,-0.125,-0.1,
5976,-0.135,-0.09,
5977,-0.105,-0.08,
5978,-0.1,-0.09,
5979,-0.105,-0.095,
5980,-0.11,-0.115,
5981,-0.135,-0.12,
5982,-0.13,-0.105,
5983,-0.105,-0.1,
5984,-0.125,-0.085,
5985,-0.105,-0.11,
5986,-0.115,-0.125,
5987,-0.125,-0.12,
5988,-0.135,-0.105,
5989,-0.12,-0.09,
5990,-0.1,-0.1,
5991,-0.1,-0.1,
5992,-0.1,-0.115,
5993,-0.115,-0.125,
5994,-0.1,-0.105,
5995,-0.085,-0.095,
5996,-0.075,-0.11,
5997,-0.075,-0.13,
5998,-0.095,-0.13,
5999,-0.11,-0.135,
6000,-0.1,-0.13,
6001,-0.075,-0.11,
6002,-0.06,-0.11,
6003,-0.08,-0.12,
6004,-0.085,-0.135,
6005,-0.085,-0.13,
6006,-0.085,-0.12,
6007,-0.06,-0.105,
6008,-0.05,-0.1,
6009,-0.065,-0.105,
6010,-0.065,-0.13,
6011,-0.075,-0.12,
6012,-0.075,-0.1,
6013,-0.065,-0.095,
6014,-0.06,-0.11,
6015,-0.05,-0.105,
6016,-0.06,-0.11,
6017,-0.06,-0.105,
6018,-0.05,-0.095,
6019,-0.04,-0.07,
6020,-0.02,-0.085,
6021,-0.025,-0.085,
6022,-0.02,-0.11,
6023,-0.03,-0.1,
6024,-0.02,-0.08,
6025,-0.005,-0.055,
6026,0.005,-0.05,
6027,0.01,-0.06,
6028,0.01,-0.065,
6029,-0.01,-0.035,
6030,0.015,-0.02,
6031,0.025,-0.005,
6032,0.045,0.0,
6033,0.055,-0.005,
6034,0.025,0.0,
6035,0.04,0.035,
6036,0.045,0.05,
6037,0.07,0.075,
6038,0.07,0.095,
6039,0.08,0.09,
6040,0.075,0.11,
6041,0.07,0.125,
6042,0.09,0.16,
6043,0.105,0.185,
6044,0.13,0.215,
6045,0.11,0.205,
6046,0.11,0.205,
6047,0.095,0.24,
6048,0.105,0.27,
6049,0.105,0.285,
6050,0.14,0.3,
6051,0.11,0.295,
6052,0.1,0.3,
6053,0.08,0.29,
6054,0.08,0.3,
6055,0.075,0.31,
6056,0.07,0.29,
6057,0.065,0.28,
6058,0.04,0.26,
6059,0.02,0.245,
6060,0.0,0.25,
6061,0.0,0.25,
6062,0.01,0.23,
6063,-0.025,0.22,
6064,-0.065,0.185,
6065,-0.08,0.165,
6066,-0.075,0.17,
6067,-0.075,0.185,
6068,-0.08,0.15,
6069,-0.095,0.13,
6070,-0.1,0.11,
6071,-0.11,0.115,
6072,-0.12,0.115,
6073,-0.11,0.13,
6074,-0.125,0.105,
6075,-0.135,0.1,
6076,-0.14,0.095,
6077,-0.145,0.08,
6078,-0.135,0.095,
6079,-0.14,0.1,
6080,-0.125,0.1,
6081,-0.125,0.09,
6082,-0.14,0.07,
6083,-0.155,0.085,
6084,-0.155,0.105,
6085,-0.145,0.095,
6086,-0.125,0.09,
6087,-0.145,0.07,
6088,-0.175,0.06,
6089,-0.18,0.065,
6090,-0.175,0.08,
6091,-0.155,0.09,
6092,-0.14,0.085,
6093,-0.145,0.075,
6094,-0.155,0.05,
6095,-0.17,0.04,
6096,-0.18,0.06,
6097,-0.155,0.07,
6098,-0.145,0.065,
6099,-0.155,0.05,
6100,-0.16,0.04,
6101,-0.19,0.04,
6102,-0.18,0.045,
6103,-0.16,0.05,
6104,-0.155,0.045,
6105,-0.17,0.045,
6106,-0.165,0.03,
6107,-0.185,0.035,
6108,-0.185,0.035,
6109,-0.165,0.04,
6110,-0.16,0.03,
6111,-0.175,0.025,
6112,-0.19,0.01,
6113,-0.215,0.015,
6114,-0.21,0.035,
6115,-0.18,0.05,
6116,-0.175,0.045,
6117,-0.185,0.03,
6118,-0.205,0.02,
6119,-0.2,0.02,
6120,-0.195,0.04,
6121,-0.17,0.06,
6122,-0.17,0.045,
6123,-0.18,0.055,
6124,-0.17,0.015,
6125,-0.185,0.03,
6126,-0.18,0.035,
6127,-0.165,0.035,
6128,-0.155,0.04,
6129,-0.165,0.045,
6130,-0.175,0.045,
6131,-0.195,0.05,
6132,-0.175,0.06,
6133,-0.175,0.07,
6134,-0.155,0.07,
6135,-0.17,0.055,
6136,-0.185,0.04,
6137,-0.2,0.03,
6138,-0.185,0.055,
6139,-0.175,0.07,
6140,-0.165,0.07,
6141,-0.17,0.065,
6142,-0.185,0.045,
6143,-0.19,0.05,
6144,-0.19,0.045,
6145,-0.18,0.06,
6146,-0.185,0.065,
6147,-0.18,0.05,
6148,-0.2,0.035,
6149,-0.215,0.035,
6150,-0.205,0.04,
6151,-0.19,0.07,
6152,-0.185,0.06,
6153,-0.19,0.045,
6154,-0.21,0.03,
6155,-0.22,0.02,
6156,-0.2,0.045,
6157,-0.19,0.04,
6158,-0.2,0.05,
6159,-0.205,0.03,
6160,-0.24,0.015,
6161,-0.23,0.015,
6162,-0.22,0.03,
6163,-0.21,0.045,
6164,-0.195,0.04,
6165,-0.205,0.035,
6166,-0.215,0.01,
6167,-0.225,0.015,
6168,-0.215,0.02,
6169,-0.21,0.04,
6170,-0.195,0.03,
6171,-0.21,0.02,
6172,-0.225,0.015,
6173,-0.23,0.03,
6174,-0.225,0.025,
6175,-0.22,0.025,
6176,-0.21,0.025,
6177,-0.22,0.02,
6178,-0.245,0.015,
6179,-0.24,0.02,
6180,-0.24,0.03,
6181,-0.225,0.035,
6182,-0.215,0.02,
6183,-0.23,0.02,
6184,-0.245,0.0,
6185,-0.25,0.005,
6186,-0.245,0.015,
6187,-0.22,0.025,
6188,-0.215,0.02,
6189,-0.235,0.015,
6190,-0.25,0.0,
6191,-0.26,0.005,
6192,-0.25,0.015,
6193,-0.24,0.02,
6194,-0.23,0.025,
6195,-0.23,0.01,
6196,-0.25,0.0,
6197,-0.25,0.01,
6198,-0.255,0.02,
6199,-0.255,0.05,
6200,-0.23,0.04,
6201,-0.24,0.01,
6202,-0.255,-0.005,
6203,-0.255,0.0,
6204,-0.255,0.01,
6205,-0.245,0.03,
6206,-0.235,0.02,
6207,-0.25,0.015,
6208,-0.265,0.01,
6209,-0.27,0.0,
6210,-0.26,0.015,
6211,-0.24,0.015,
6212,-0.225,0.01,
6213,-0.24,-0.01,
6214,-0.25,-0.01,
6215,-0.26,0.0,
6216,-0.265,0.005,
6217,-0.245,0.02,
6218,-0.245,0.01,
6219,-0.255,0.015,
6220,-0.245,-0.005,
6221,-0.26,0.0,
6222,-0.255,0.005,
6223,-0.235,0.02,
6224,-0.225,0.02,
6225,-0.235,0.0,
6226,-0.245,0.0,
6227,-0.25,-0.005,
6228,-0.245,0.005,
6229,-0.24,0.025,
6230,-0.225,0.02,
6231,-0.245,0.01,
6232,-0.25,0.0,
6233,-0.255,0.015,
6234,-0.255,0.02,
6235,-0.245,0.02,
6236,-0.245,0.01,
6237,-0.255,0.01,
6238,-0.26,0.005,
6239,-0.265,0.02,
6240,-0.23,0.03,
6241,-0.215,0.04,
6242,-0.225,0.05,
6243,-0.21,0.04,
6244,-0.215,0.02,
6245,-0.23,0.035,
6246,-0.225,0.04,
6247,-0.195,0.055,
6248,-0.175,0.055,
6249,-0.18,0.06,
6250,-0.205,0.06,
6251,-0.205,0.065,
6252,-0.205,0.065,
6253,-0.185,0.08,
6254,-0.18,0.07,
6255,-0.2,0.05,
6256,-0.215,0.04,
6257,-0.235,0.04,
6258,-0.24,0.045,
6259,-0.235,0.05,
6260,-0.235,0.055,
6261,-0.25,0.04,
6262,-0.265,0.01,
6263,-0.275,0.025,
6264,-0.25,0.04,
6265,-0.25,0.055,
6266,-0.24,0.06,
6267,-0.24,0.05,
6268,-0.255,0.04,
6269,-0.26,0.04,
6270,-0.23,0.055,
6271,-0.215,0.065,
6272,-0.2,0.055,
6273,-0.205,0.035,
6274,-0.235,0.015,
6275,-0.245,0.01,
6276,-0.265,0.01,
6277,-0.26,0.01,
6278,-0.275,0.005,
6279,-0.27,0.01,
6280,-0.29,-0.005,
6281,-0.285,0.005,
6282,-0.265,0.03,
6283,-0.265,0.04,
6284,-0.255,0.025,
6285,-0.27,0.01,
6286,-0.29,-0.02,
6287,-0.3,-0.005,
6288,-0.285,0.0,
6289,-0.28,0.01,
6290,-0.265,0.015,
6291,-0.28,-0.005,
6292,-0.3,0.0,
6293,-0.305,-0.01,
6294,-0.3,0.0,
6295,-0.28,0.02,
6296,-0.285,0.015,
6297,-0.28,-0.005,
6298,-0.295,-0.01,
6299,-0.3,-0.01,
6300,-0.29,0.01,
6301,-0.28,0.01,
6302,-0.27,0.0,
6303,-0.275,0.005,
6304,-0.3,-0.005,
6305,-0.315,0.005,
6306,-0.3,0.035,
6307,-0.285,0.045,
6308,-0.255,0.04,
6309,-0.265,0.035,
6310,-0.27,0.05,
6311,-0.275,0.085,
6312,-0.26,0.13,
6313,-0.215,0.18,
6314,-0.2,0.235,
6315,-0.2,0.28,
6316,-0.19,0.325,
6317,-0.17,0.395,
6318,-0.185,0.5,
6319,-0.225,0.635,
6320,-0.28,0.78,
6321,-0.335,0.95,
6322,-0.4,1.085,
6323,-0.475,1.25,
6324,-0.545,1.42,
6325,-0.62,1.585,
6326,-0.615,1.765,
6327,-0.595,1.965,N
6328,-0.5,2.125,
6329,-0.38,2.175,
6330,-0.22,2.075,
6331,-0.085,1.765,
6332,-0.015,1.25,
6333,-0.075,0.745,
6334,-0.285,0.375,
6335,-0.5,0.155,
6336,-0.63,0.045,
6337,-0.645,0.015,
6338,-0.6,0.015,
6339,-0.53,0.0,
6340,-0.455,-0.01,
6341,-0.35,-0.02,
6342,-0.3,-0.005,
6343,-0.285,-0.02,
6344,-0.26,-0.045,
6345,-0.255,-0.07,
6346,-0.26,-0.115,
6347,-0.28,-0.11,
6348,-0.275,-0.105,
6349,-0.25,-0.1,
6350,-0.23,-0.105,
6351,-0.225,-0.115,
6352,-0.235,-0.12,
6353,-0.245,-0.12,
6354,-0.225,-0.115,
6355,-0.21,-0.11,
6356,-0.195,-0.12,
6357,-0.2,-0.135,
6358,-0.235,-0.135,
6359,-0.23,-0.145,
6360,-0.205,-0.145,
6361,-0.2,-0.125,
6362,-0.195,-0.135,
6363,-0.205,-0.145,
6364,-0.21,-0.135,
6365,-0.21,-0.13,
6366,-0.215,-0.13,
6367,-0.185,-0.13,
6368,-0.185,-0.145,
6369,-0.185,-0.145,
6370,-0.2,-0.17,
6371,-0.21,-0.16,
6372,-0.2,-0.145,
6373,-0.185,-0.135,
6374,-0.175,-0.14,
6375,-0.185,-0.14,
6376,-0.19,-0.155,
6377,-0.19,-0.17,
6378,-0.2,-0.165,
6379,-0.175,-0.14,
6380,-0.175,-0.155,
6381,-0.185,-0.155,
6382,-0.185,-0.165,
6383,-0.195,-0.165,
6384,-0.18,-0.165,
6385,-0.17,-0.145,
6386,-0.16,-0.145,
6387,-0.17,-0.165,
6388,-0.185,-0.17,
6389,-0.19,-0.165,
6390,-0.17,-0.16,
6391,-0.16,-0.15,
6392,-0.145,-0.15,
6393,-0.165,-0.155,
6394,-0.165,-0.175,
6395,-0.175,-0.19,
6396,-0.17,-0.165,
6397,-0.15,-0.155,
6398,-0.135,-0.16,
6399,-0.15,-0.15,
6400,-0.14,-0.16,
6401,-0.145,-0.155,
6402,-0.135,-0.145,
6403,-0.12,-0.14,
6404,-0.115,-0.14,
6405,-0.12,-0.155,
6406,-0.125,-0.175,
6407,-0.12,-0.16,
6408,-0.115,-0.135,
6409,-0.105,-0.12,
6410,-0.085,-0.125,
6411,-0.09,-0.13,
6412,-0.105,-0.13,
6413,-0.1,-0.125,
6414,-0.09,-0.105,
6415,-0.08,-0.095,
6416,-0.065,-0.08,
6417,-0.07,-0.075,
6418,-0.06,-0.09,
6419,-0.06,-0.07,
6420,-0.05,-0.045,
6421,-0.04,-0.015,
6422,-0.03,-0.01,
6423,-0.02,-0.005,
6424,-0.03,0.005,
6425,-0.025,0.025,
6426,-0.01,0.06,
6427,-0.005,0.08,
6428,0.01,0.09,
6429,0.0,0.105,
6430,0.0,0.105,
6431,-0.01,0.14,
6432,-0.005,0.165,
6433,0.005,0.175,
6434,0.02,0.195,
6435,0.015,0.18,
6436,0.0,0.19,
6437,-0.01,0.195,
6438,-0.01,0.225,
6439,0.005,0.235,
6440,0.0,0.23,
6441,-0.005,0.21,
6442,-0.035,0.195,
6443,-0.04,0.195,
6444,-0.045,0.19,
6445,-0.07,0.185,
6446,-0.07,0.18,
6447,-0.075,0.16,
6448,-0.105,0.135,
6449,-0.125,0.115,
6450,-0.13,0.105,
6451,-0.13,0.125,
6452,-0.135,0.095,
6453,-0.13,0.08,
6454,-0.16,0.07,
6455,-0.17,0.065,
6456,-0.17,0.07,
6457,-0.16,0.075,
6458,-0.16,0.055,
6459,-0.175,0.05,
6460,-0.185,0.035,
6461,-0.21,0.02,
6462,-0.19,0.045,
6463,-0.2,0.045,
6464,-0.195,0.045,
6465,-0.185,0.035,
6466,-0.2,0.025,
6467,-0.22,0.025,
6468,-0.215,0.035,
6469,-0.195,0.04,
6470,-0.195,0.02,
6471,-0.195,0.015,
6472,-0.215,0.02,
6473,-0.23,0.02,
6474,-0.22,0.025,
6475,-0.205,0.025,
6476,-0.2,0.02,
6477,-0.21,0.005,
6478,-0.22,0.0,
6479,-0.23,-0.005,
6480,-0.23,-0.005,
6481,-0.21,0.01,
6482,-0.205,0.0,
6483,-0.205,-0.01,
6484,-0.225,-0.025,
6485,-0.235,-0.02,
6486,-0.24,-0.015,
6487,-0.205,-0.01,
6488,-0.195,0.0,
6489,-0.195,-0.025,
6490,-0.215,-0.025,
6491,-0.23,-0.025,
6492,-0.22,-0.02,
6493,-0.21,-0.005,
6494,-0.205,-0.015,
6495,-0.21,-0.03,
6496,-0.225,-0.045,
6497,-0.23,-0.06,
6498,-0.225,-0.045,
6499,-0.215,-0.03,
6500,-0.205,-0.025,
6501,-0.205,-0.035,
6502,-0.215,-0.045,
6503,-0.225,-0.045,
6504,-0.22,-0.045,
6505,-0.205,-0.025,
6506,-0.2,-0.04,
6507,-0.2,-0.045,
6508,-0.21,-0.045,
6509,-0.215,-0.05,
6510,-0.225,-0.04,
6511,-0.21,-0.02,
6512,-0.195,-0.035,
6513,-0.2,-0.04,
6514,-0.205,-0.045,
6515,-0.215,-0.045,
6516,-0.215,-0.03,
6517,-0.19,-0.015,
6518,-0.195,-0.025,
6519,-0.19,-0.035,
6520,-0.205,-0.045,
6521,-0.215,-0.04,
6522,-0.21,-0.025,
6523,-0.2,-0.02,
6524,-0.2,-0.015,
6525,-0.195,-0.04,
6526,-0.22,-0.035,
6527,-0.22,-0.045,
6528,-0.235,-0.04,
6529,-0.205,-0.025,
6530,-0.2,-0.05,
6531,-0.2,-0.05,
6532,-0.22,-0.06,
6533,-0.235,-0.055,
6534,-0.225,-0.045,
6535,-0.21,-0.035,
6536,-0.205,-0.035,
6537,-0.21,-0.055,
6538,-0.23,-0.065,
6539,-0.245,-0.055,
6540,-0.23,-0.04,
6541,-0.22,-0.02,
6542,-0.22,-0.045,
6543,-0.21,-0.04,
6544,-0.235,-0.085,
6545,-0.245,-0.07,
6546,-0.235,-0.05,
6547,-0.24,-0.045,
6548,-0.225,-0.04,
6549,-0.225,-0.055,
6550,-0.24,-0.08,
6551,-0.255,-0.055,
6552,-0.24,-0.055,
6553,-0.235,-0.04,
6554,-0.23,-0.045,
6555,-0.23,-0.05,
6556,-0.255,-0.07,
6557,-0.25,-0.065,
6558,-0.245,-0.04,
6559,-0.23,-0.04,
6560,-0.225,-0.055,
6561,-0.23,-0.06,
6562,-0.245,-0.065,
6563,-0.255,-0.07,
6564,-0.25,-0.06,
6565,-0.245,-0.04,
6566,-0.245,-0.05,
6567,-0.235,-0.065,
6568,-0.26,-0.075,
6569,-0.26,-0.07,
6570,-0.255,-0.06,
6571,-0.245,-0.05,
6572,-0.24,-0.055,
6573,-0.25,-0.065,
6574,-0.255,-0.08,
6575,-0.285,-0.07,
6576,-0.275,-0.07,
6577,-0.255,-0.055,
6578,-0.245,-0.055,
6579,-0.25,-0.08,
6580,-0.27,-0.09,
6581,-0.28,-0.085,
6582,-0.275,-0.075,
6583,-0.245,-0.06,
6584,-0.24,-0.055,
6585,-0.235,-0.055,
6586,-0.25,-0.085,
6587,-0.27,-0.09,
6588,-0.26,-0.08,
6589,-0.25,-0.065,
6590,-0.23,-0.065,
6591,-0.235,-0.07,
6592,-0.255,-0.09,
6593,-0.26,-0.085,
6594,-0.255,-0.07,
6595,-0.245,-0.075,
6596,-0.245,-0.08,
6597,-0.25,-0.075,
6598,-0.25,-0.08,
6599,-0.265,-0.085,
6600,-0.255,-0.075,
6601,-0.24,-0.055,
6602,-0.24,-0.06,
6603,-0.25,-0.085,
6604,-0.26,-0.085,
6605,-0.27,-0.095,
6606,-0.265,-0.075,
6607,-0.245,-0.075,
6608,-0.235,-0.07,
6609,-0.245,-0.075,
6610,-0.245,-0.085,
6611,-0.25,-0.075,
6612,-0.25,-0.08,
6613,-0.24,-0.065,
6614,-0.225,-0.08,
6615,-0.235,-0.09,
6616,-0.255,-0.08,
6617,-0.245,-0.09,
6618,-0.25,-0.07,
6619,-0.235,-0.06,
6620,-0.22,-0.07,
6621,-0.235,-0.08,
6622,-0.245,-0.09,
6623,-0.245,-0.09,
6624,-0.24,-0.065,
6625,-0.245,-0.055,
6626,-0.22,-0.055,
6627,-0.225,-0.07,
6628,-0.23,-0.07,
6629,-0.22,-0.065,
