,MLII,V1,symbol
0,-0.58,-0.335,
1,-0.58,-0.335,
2,-0.58,-0.335,
3,-0.58,-0.335,
4,-0.58,-0.335,
5,-0.58,-0.335,
6,-0.58,-0.335,
7,-0.58,-0.335,
8,-0.585,-0.33,
9,-0.59,-0.32,
10,-0.58,-0.32,
11,-0.58,-0.315,
12,-0.575,-0.3,
13,-0.555,-0.315,
14,-0.57,-0.31,
15,-0.575,-0.32,
16,-0.585,-0.33,
17,-0.585,-0.33,
18,-0.595,-0.34,
19,-0.595,-0.34,
20,-0.61,-0.335,
21,-0.605,-0.32,
22,-0.59,-0.33,
23,-0.585,-0.32,
24,-0.58,-0.305,
25,-0.58,-0.31,
26,-0.585,-0.32,
27,-0.59,-0.33,
28,-0.595,-0.335,
29,-0.605,-0.345,
30,-0.6,-0.35,
31,-0.6,-0.345,
32,-0.605,-0.335,
33,-0.605,-0.325,
34,-0.59,-0.33,
35,-0.585,-0.32,
36,-0.59,-0.31,
37,-0.575,-0.33,
38,-0.58,-0.325,
39,-0.585,-0.32,
40,-0.585,-0.33,
41,-0.575,-0.34,
42,-0.595,-0.34,
43,-0.6,-0.335,
44,-0.605,-0.345,+
45,-0.595,-0.33,
46,-0.59,-0.315,
47,-0.6,-0.32,
48,-0.59,-0.315,
49,-0.585,-0.32,
50,-0.58,-0.32,
51,-0.58,-0.33,
52,-0.585,-0.345,
53,-0.6,-0.34,
54,-0.605,-0.345,
55,-0.605,-0.34,
56,-0.62,-0.345,
57,-0.61,-0.335,
58,-0.61,-0.325,
59,-0.6,-0.315,
60,-0.6,-0.31,
61,-0.585,-0.31,
62,-0.595,-0.33,
63,-0.59,-0.33,
64,-0.61,-0.33,
65,-0.61,-0.345,
66,-0.61,-0.35,
67,-0.605,-0.345,
68,-0.605,-0.34,
69,-0.595,-0.335,
70,-0.595,-0.32,
71,-0.59,-0.31,
72,-0.565,-0.3,
73,-0.585,-0.315,
74,-0.57,-0.315,
75,-0.575,-0.315,
76,-0.58,-0.315,
77,-0.585,-0.31,
78,-0.59,-0.325,
79,-0.595,-0.31,
80,-0.59,-0.295,
81,-0.575,-0.275,
82,-0.56,-0.275,
83,-0.55,-0.25,
84,-0.535,-0.24,
85,-0.525,-0.255,
86,-0.515,-0.26,
87,-0.51,-0.265,
88,-0.49,-0.29,
89,-0.495,-0.31,
90,-0.49,-0.32,
91,-0.495,-0.325,
92,-0.48,-0.34,
93,-0.465,-0.34,
94,-0.455,-0.335,
95,-0.445,-0.315,
96,-0.43,-0.3,
97,-0.435,-0.32,
98,-0.44,-0.305,
99,-0.445,-0.33,
100,-0.475,-0.315,
101,-0.48,-0.33,
102,-0.485,-0.34,
103,-0.49,-0.325,
104,-0.495,-0.33,
105,-0.485,-0.32,
106,-0.48,-0.31,
107,-0.48,-0.32,
108,-0.47,-0.315,
109,-0.47,-0.325,
110,-0.485,-0.335,
111,-0.5,-0.345,
112,-0.535,-0.35,
113,-0.545,-0.365,
114,-0.565,-0.37,
115,-0.575,-0.365,
116,-0.585,-0.36,
117,-0.585,-0.345,
118,-0.58,-0.345,
119,-0.565,-0.34,
120,-0.57,-0.335,
121,-0.565,-0.345,
122,-0.56,-0.345,
123,-0.575,-0.355,
124,-0.58,-0.355,
125,-0.585,-0.355,
126,-0.605,-0.36,
127,-0.61,-0.365,
128,-0.6,-0.365,
129,-0.59,-0.34,
130,-0.6,-0.345,
131,-0.595,-0.345,
132,-0.575,-0.335,
133,-0.555,-0.345,
134,-0.565,-0.35,
135,-0.575,-0.35,
136,-0.575,-0.35,
137,-0.59,-0.345,
138,-0.59,-0.365,
139,-0.59,-0.35,
140,-0.575,-0.35,
141,-0.585,-0.345,
142,-0.575,-0.345,
143,-0.565,-0.335,
144,-0.54,-0.315,
145,-0.53,-0.31,
146,-0.525,-0.3,
147,-0.525,-0.3,
148,-0.52,-0.295,
149,-0.515,-0.315,
150,-0.515,-0.35,
151,-0.51,-0.39,
152,-0.495,-0.44,
153,-0.45,-0.505,
154,-0.375,-0.585,
155,-0.26,-0.66,
156,-0.1,-0.74,
157,0.125,-0.795,
158,0.425,-0.835,
159,0.775,-0.815,
160,1.155,-0.775,
161,1.47,-0.7,N
162,1.665,-0.605,
163,1.67,-0.525,
164,1.455,-0.45,
165,0.995,-0.395,
166,0.36,-0.375,
167,-0.28,-0.385,
168,-0.905,-0.395,
169,-1.26,-0.425,
170,-1.36,-0.43,
171,-1.255,-0.43,
172,-1.035,-0.39,
173,-0.8,-0.36,
174,-0.605,-0.325,
175,-0.49,-0.295,
176,-0.43,-0.275,
177,-0.415,-0.28,
178,-0.43,-0.265,
179,-0.47,-0.275,
180,-0.49,-0.265,
181,-0.505,-0.275,
182,-0.52,-0.285,
183,-0.51,-0.28,
184,-0.515,-0.285,
185,-0.5,-0.295,
186,-0.5,-0.3,
187,-0.5,-0.295,
188,-0.5,-0.29,
189,-0.49,-0.285,
190,-0.49,-0.285,
191,-0.49,-0.27,
192,-0.485,-0.255,
193,-0.48,-0.27,
194,-0.475,-0.265,
195,-0.485,-0.285,
196,-0.475,-0.285,
197,-0.48,-0.295,
198,-0.495,-0.3,
199,-0.49,-0.295,
200,-0.51,-0.31,
201,-0.505,-0.285,
202,-0.48,-0.27,
203,-0.47,-0.28,
204,-0.48,-0.27,
205,-0.465,-0.275,
206,-0.47,-0.285,
207,-0.465,-0.29,
208,-0.47,-0.285,
209,-0.485,-0.3,
210,-0.495,-0.305,
211,-0.49,-0.305,
212,-0.475,-0.3,
213,-0.475,-0.295,
214,-0.475,-0.285,
215,-0.47,-0.28,
216,-0.47,-0.285,
217,-0.46,-0.285,
218,-0.465,-0.28,
219,-0.465,-0.29,
220,-0.47,-0.295,
221,-0.485,-0.305,
222,-0.49,-0.31,
223,-0.485,-0.31,
224,-0.485,-0.31,
225,-0.495,-0.305,
226,-0.49,-0.3,
227,-0.49,-0.295,
228,-0.47,-0.285,
229,-0.465,-0.29,
230,-0.465,-0.275,
231,-0.455,-0.305,
232,-0.475,-0.315,
233,-0.465,-0.31,
234,-0.48,-0.32,
235,-0.485,-0.32,
236,-0.48,-0.31,
237,-0.47,-0.31,
238,-0.465,-0.3,
239,-0.47,-0.295,
240,-0.465,-0.285,
241,-0.445,-0.29,
242,-0.44,-0.3,
243,-0.44,-0.305,
244,-0.44,-0.31,
245,-0.445,-0.32,
246,-0.44,-0.315,
247,-0.46,-0.325,
248,-0.455,-0.32,
249,-0.455,-0.325,
250,-0.44,-0.305,
251,-0.43,-0.3,
252,-0.435,-0.305,
253,-0.425,-0.31,
254,-0.415,-0.305,
255,-0.415,-0.31,
256,-0.42,-0.33,
257,-0.42,-0.33,
258,-0.43,-0.325,
259,-0.425,-0.335,
260,-0.415,-0.32,
261,-0.43,-0.31,
262,-0.41,-0.305,
263,-0.41,-0.295,
264,-0.4,-0.29,
265,-0.385,-0.295,
266,-0.37,-0.295,
267,-0.375,-0.31,
268,-0.38,-0.33,
269,-0.39,-0.33,
270,-0.395,-0.34,
271,-0.395,-0.33,
272,-0.39,-0.335,
273,-0.395,-0.325,
274,-0.385,-0.315,
275,-0.37,-0.315,
276,-0.36,-0.31,
277,-0.365,-0.315,
278,-0.365,-0.315,
279,-0.365,-0.325,
280,-0.375,-0.32,
281,-0.38,-0.335,
282,-0.385,-0.34,
283,-0.385,-0.335,
284,-0.385,-0.335,
285,-0.38,-0.335,
286,-0.375,-0.325,
287,-0.375,-0.31,
288,-0.365,-0.305,
289,-0.345,-0.315,
290,-0.355,-0.325,
291,-0.36,-0.32,
292,-0.365,-0.335,
293,-0.355,-0.345,
294,-0.365,-0.34,
295,-0.37,-0.335,
296,-0.365,-0.34,
297,-0.38,-0.325,
298,-0.365,-0.32,
299,-0.38,-0.305,
300,-0.38,-0.305,
301,-0.365,-0.315,
302,-0.39,-0.295,
303,-0.395,-0.315,
304,-0.395,-0.305,
305,-0.425,-0.315,
306,-0.445,-0.32,
307,-0.465,-0.32,
308,-0.475,-0.32,
309,-0.49,-0.305,
310,-0.495,-0.3,
311,-0.495,-0.29,
312,-0.505,-0.29,
313,-0.5,-0.285,
314,-0.53,-0.295,
315,-0.535,-0.295,
316,-0.545,-0.31,
317,-0.55,-0.31,
318,-0.565,-0.32,
319,-0.57,-0.31,
320,-0.57,-0.295,
321,-0.58,-0.3,
322,-0.565,-0.285,
323,-0.575,-0.28,
324,-0.56,-0.27,
325,-0.555,-0.275,
326,-0.56,-0.28,
327,-0.585,-0.28,
328,-0.575,-0.29,
329,-0.585,-0.295,
330,-0.585,-0.3,
331,-0.595,-0.295,
332,-0.59,-0.295,
333,-0.59,-0.285,
334,-0.58,-0.28,
335,-0.58,-0.28,
336,-0.565,-0.275,
337,-0.555,-0.265,
338,-0.55,-0.265,
339,-0.555,-0.275,
340,-0.565,-0.29,
341,-0.58,-0.29,
342,-0.58,-0.3,
343,-0.585,-0.29,
344,-0.575,-0.285,
345,-0.57,-0.275,
346,-0.565,-0.275,
347,-0.55,-0.27,
348,-0.545,-0.265,
349,-0.54,-0.26,
350,-0.54,-0.27,
351,-0.54,-0.28,
352,-0.55,-0.295,
353,-0.55,-0.295,
354,-0.565,-0.3,
355,-0.565,-0.29,
356,-0.55,-0.28,
357,-0.55,-0.28,
358,-0.545,-0.27,
359,-0.53,-0.27,
360,-0.525,-0.245,
361,-0.525,-0.26,
362,-0.525,-0.27,
363,-0.525,-0.28,
364,-0.525,-0.29,
365,-0.54,-0.295,
366,-0.56,-0.295,
367,-0.555,-0.29,
368,-0.555,-0.3,
369,-0.55,-0.295,
370,-0.555,-0.29,
371,-0.55,-0.285,
372,-0.55,-0.255,
373,-0.54,-0.275,
374,-0.54,-0.285,
375,-0.545,-0.29,
376,-0.565,-0.295,
377,-0.565,-0.3,
378,-0.57,-0.315,
379,-0.575,-0.315,
380,-0.58,-0.305,
381,-0.575,-0.295,
382,-0.58,-0.29,
383,-0.57,-0.29,
384,-0.565,-0.27,
385,-0.555,-0.285,
386,-0.565,-0.29,
387,-0.57,-0.285,
388,-0.57,-0.295,
389,-0.58,-0.31,
390,-0.575,-0.305,
391,-0.6,-0.31,
392,-0.59,-0.305,
393,-0.585,-0.29,
394,-0.595,-0.29,
395,-0.595,-0.275,
396,-0.58,-0.275,
397,-0.575,-0.28,
398,-0.58,-0.29,
399,-0.59,-0.295,
400,-0.59,-0.3,
401,-0.61,-0.31,
402,-0.61,-0.305,
403,-0.61,-0.31,
404,-0.615,-0.31,
405,-0.61,-0.305,
406,-0.615,-0.285,
407,-0.61,-0.29,
408,-0.595,-0.27,
409,-0.595,-0.28,
410,-0.59,-0.28,
411,-0.585,-0.3,
412,-0.59,-0.29,
413,-0.6,-0.3,
414,-0.605,-0.305,
415,-0.61,-0.3,
416,-0.625,-0.3,
417,-0.615,-0.305,
418,-0.61,-0.29,
419,-0.595,-0.28,
420,-0.59,-0.275,
421,-0.59,-0.285,
422,-0.59,-0.285,
423,-0.585,-0.285,
424,-0.595,-0.295,
425,-0.605,-0.305,
426,-0.61,-0.305,
427,-0.615,-0.305,
428,-0.61,-0.31,
429,-0.615,-0.29,
430,-0.605,-0.29,
431,-0.605,-0.285,
432,-0.595,-0.27,
433,-0.59,-0.27,
434,-0.595,-0.28,
435,-0.595,-0.28,
436,-0.605,-0.28,
437,-0.6,-0.275,
438,-0.605,-0.275,
439,-0.59,-0.265,
440,-0.605,-0.26,
441,-0.59,-0.24,
442,-0.575,-0.225,
443,-0.565,-0.225,
444,-0.55,-0.2,
445,-0.53,-0.205,
446,-0.52,-0.22,
447,-0.515,-0.24,
448,-0.515,-0.24,
449,-0.515,-0.27,
450,-0.5,-0.28,
451,-0.495,-0.305,
452,-0.49,-0.305,
453,-0.49,-0.295,
454,-0.475,-0.28,
455,-0.47,-0.27,
456,-0.455,-0.26,
457,-0.435,-0.27,
458,-0.46,-0.275,
459,-0.47,-0.28,
460,-0.485,-0.27,
461,-0.485,-0.29,
462,-0.48,-0.29,
463,-0.48,-0.29,
464,-0.49,-0.285,
465,-0.48,-0.29,
466,-0.48,-0.28,
467,-0.49,-0.285,
468,-0.48,-0.27,
469,-0.5,-0.28,
470,-0.525,-0.295,
471,-0.545,-0.3,
472,-0.56,-0.3,
473,-0.585,-0.305,
474,-0.6,-0.31,
475,-0.61,-0.31,
476,-0.615,-0.305,
477,-0.62,-0.3,
478,-0.605,-0.29,
479,-0.6,-0.3,
480,-0.595,-0.275,
481,-0.595,-0.285,
482,-0.605,-0.295,
483,-0.605,-0.3,
484,-0.61,-0.295,
485,-0.615,-0.3,
486,-0.63,-0.305,
487,-0.63,-0.315,
488,-0.625,-0.31,
489,-0.625,-0.305,
490,-0.62,-0.305,
491,-0.615,-0.285,
492,-0.605,-0.275,
493,-0.615,-0.275,
494,-0.615,-0.295,
495,-0.61,-0.29,
496,-0.595,-0.295,
497,-0.605,-0.3,
498,-0.605,-0.305,
499,-0.605,-0.305,
500,-0.595,-0.28,
501,-0.6,-0.27,
502,-0.585,-0.25,
503,-0.575,-0.23,
504,-0.55,-0.23,
505,-0.545,-0.24,
506,-0.54,-0.265,
507,-0.52,-0.31,
508,-0.525,-0.36,
509,-0.505,-0.435,
510,-0.465,-0.515,
511,-0.4,-0.595,
512,-0.27,-0.66,
513,-0.085,-0.705,
514,0.155,-0.73,
515,0.46,-0.705,
516,0.825,-0.65,
517,1.2,-0.58,
518,1.485,-0.49,N
519,1.61,-0.4,
520,1.49,-0.33,
521,1.095,-0.285,
522,0.455,-0.285,
523,-0.185,-0.295,
524,-0.825,-0.315,
525,-1.28,-0.335,
526,-1.37,-0.35,
527,-1.23,-0.33,
528,-0.995,-0.305,
529,-0.745,-0.265,
530,-0.535,-0.24,
531,-0.425,-0.21,
532,-0.4,-0.23,
533,-0.425,-0.225,
534,-0.47,-0.245,
535,-0.515,-0.25,
536,-0.545,-0.245,
537,-0.555,-0.255,
538,-0.575,-0.24,
539,-0.565,-0.24,
540,-0.53,-0.23,
541,-0.52,-0.225,
542,-0.515,-0.235,
543,-0.515,-0.235,
544,-0.53,-0.245,
545,-0.535,-0.255,
546,-0.53,-0.265,
547,-0.53,-0.26,
548,-0.53,-0.255,
549,-0.52,-0.245,
550,-0.525,-0.245,
551,-0.525,-0.245,
552,-0.505,-0.22,
553,-0.5,-0.225,
554,-0.505,-0.225,
555,-0.505,-0.24,
556,-0.51,-0.255,
557,-0.52,-0.255,
558,-0.515,-0.265,
559,-0.525,-0.27,
560,-0.525,-0.26,
561,-0.52,-0.25,
562,-0.505,-0.25,
563,-0.495,-0.235,
564,-0.495,-0.235,
565,-0.485,-0.245,
566,-0.485,-0.25,
567,-0.49,-0.255,
568,-0.495,-0.255,
569,-0.505,-0.265,
570,-0.51,-0.27,
571,-0.515,-0.265,
572,-0.51,-0.26,
573,-0.52,-0.26,
574,-0.5,-0.245,
575,-0.505,-0.25,
576,-0.485,-0.24,
577,-0.485,-0.245,
578,-0.475,-0.255,
579,-0.485,-0.245,
580,-0.485,-0.25,
581,-0.49,-0.265,
582,-0.51,-0.27,
583,-0.51,-0.265,
584,-0.51,-0.27,
585,-0.51,-0.26,
586,-0.505,-0.26,
587,-0.495,-0.245,
588,-0.475,-0.255,
589,-0.47,-0.25,
590,-0.465,-0.25,
591,-0.465,-0.26,
592,-0.475,-0.27,
593,-0.475,-0.275,
594,-0.49,-0.275,
595,-0.505,-0.28,
596,-0.495,-0.27,
597,-0.49,-0.27,
598,-0.49,-0.26,
599,-0.495,-0.26,
600,-0.475,-0.255,
601,-0.45,-0.25,
602,-0.48,-0.265,
603,-0.465,-0.27,
604,-0.465,-0.27,
605,-0.47,-0.275,
606,-0.485,-0.285,
607,-0.48,-0.295,
608,-0.48,-0.29,
609,-0.49,-0.285,
610,-0.465,-0.275,
611,-0.475,-0.27,
612,-0.46,-0.26,
613,-0.445,-0.26,
614,-0.445,-0.275,
615,-0.435,-0.275,
616,-0.44,-0.28,
617,-0.445,-0.295,
618,-0.43,-0.285,
619,-0.435,-0.295,
620,-0.435,-0.29,
621,-0.435,-0.29,
622,-0.43,-0.28,
623,-0.415,-0.275,
624,-0.415,-0.27,
625,-0.41,-0.27,
626,-0.41,-0.29,
627,-0.405,-0.28,
628,-0.415,-0.3,
629,-0.415,-0.305,
630,-0.405,-0.31,
631,-0.415,-0.31,
632,-0.415,-0.31,
633,-0.425,-0.305,
634,-0.42,-0.295,
635,-0.415,-0.29,
636,-0.4,-0.28,
637,-0.39,-0.285,
638,-0.385,-0.295,
639,-0.385,-0.29,
640,-0.39,-0.3,
641,-0.4,-0.29,
642,-0.415,-0.315,
643,-0.415,-0.31,
644,-0.425,-0.305,
645,-0.41,-0.29,
646,-0.415,-0.29,
647,-0.41,-0.285,
648,-0.4,-0.28,
649,-0.39,-0.27,
650,-0.38,-0.285,
651,-0.4,-0.28,
652,-0.39,-0.295,
653,-0.4,-0.285,
654,-0.41,-0.3,
655,-0.425,-0.28,
656,-0.44,-0.275,
657,-0.44,-0.275,
658,-0.445,-0.26,
659,-0.45,-0.265,
660,-0.455,-0.255,
661,-0.46,-0.245,
662,-0.475,-0.245,
663,-0.495,-0.25,
664,-0.505,-0.245,
665,-0.515,-0.265,
666,-0.53,-0.265,
667,-0.555,-0.265,
668,-0.565,-0.255,
669,-0.57,-0.25,
670,-0.58,-0.235,
671,-0.59,-0.245,
672,-0.605,-0.24,
673,-0.595,-0.225,
674,-0.59,-0.24,
675,-0.6,-0.245,
676,-0.605,-0.245,
677,-0.61,-0.255,
678,-0.62,-0.26,
679,-0.63,-0.26,
680,-0.635,-0.255,
681,-0.645,-0.245,
682,-0.64,-0.24,
683,-0.64,-0.24,
684,-0.63,-0.225,
685,-0.625,-0.225,
686,-0.615,-0.24,
687,-0.61,-0.245,
688,-0.62,-0.255,
689,-0.615,-0.25,
690,-0.625,-0.26,
691,-0.635,-0.26,
692,-0.63,-0.255,
693,-0.63,-0.245,
694,-0.625,-0.25,
695,-0.605,-0.24,
696,-0.6,-0.245,
697,-0.58,-0.235,
698,-0.585,-0.255,
699,-0.585,-0.25,
700,-0.58,-0.255,
701,-0.59,-0.27,
702,-0.605,-0.27,
703,-0.605,-0.27,
704,-0.605,-0.27,
705,-0.605,-0.25,
706,-0.6,-0.255,
707,-0.6,-0.24,
708,-0.575,-0.24,
709,-0.575,-0.24,
710,-0.58,-0.25,
711,-0.58,-0.26,
712,-0.585,-0.265,
713,-0.58,-0.265,
714,-0.595,-0.27,
715,-0.6,-0.28,
716,-0.605,-0.28,
717,-0.6,-0.26,
718,-0.6,-0.265,
719,-0.6,-0.26,
720,-0.595,-0.26,
721,-0.595,-0.25,
722,-0.605,-0.255,
723,-0.595,-0.26,
724,-0.6,-0.265,
725,-0.62,-0.275,
726,-0.625,-0.275,
727,-0.61,-0.285,
728,-0.615,-0.275,
729,-0.62,-0.275,
730,-0.615,-0.26,
731,-0.615,-0.26,
732,-0.62,-0.26,
733,-0.6,-0.26,
734,-0.6,-0.25,
735,-0.605,-0.255,
736,-0.61,-0.27,
737,-0.625,-0.27,
738,-0.645,-0.28,
739,-0.66,-0.285,
740,-0.645,-0.285,
741,-0.64,-0.275,
742,-0.64,-0.275,
743,-0.64,-0.26,
744,-0.63,-0.255,
745,-0.625,-0.255,
746,-0.625,-0.26,
747,-0.63,-0.26,
748,-0.64,-0.265,
749,-0.645,-0.285,
750,-0.66,-0.285,
751,-0.655,-0.28,
752,-0.65,-0.28,
753,-0.65,-0.28,
754,-0.65,-0.275,
755,-0.645,-0.255,
756,-0.635,-0.265,
757,-0.645,-0.26,
758,-0.645,-0.275,
759,-0.645,-0.28,
760,-0.645,-0.275,
761,-0.645,-0.285,
762,-0.66,-0.28,
763,-0.66,-0.265,
764,-0.66,-0.25,
765,-0.655,-0.25,
766,-0.66,-0.235,
767,-0.65,-0.225,
768,-0.635,-0.21,
769,-0.615,-0.2,
770,-0.615,-0.2,
771,-0.61,-0.215,
772,-0.6,-0.225,
773,-0.605,-0.24,
774,-0.59,-0.255,
775,-0.595,-0.26,
776,-0.58,-0.275,
777,-0.56,-0.285,
778,-0.54,-0.275,
779,-0.525,-0.265,
780,-0.5,-0.27,
781,-0.48,-0.245,
782,-0.48,-0.25,
783,-0.5,-0.255,
784,-0.5,-0.25,
785,-0.515,-0.27,
786,-0.52,-0.28,
787,-0.53,-0.275,
788,-0.525,-0.27,
789,-0.52,-0.265,
790,-0.52,-0.26,
791,-0.51,-0.25,
792,-0.52,-0.26,
793,-0.51,-0.26,
794,-0.52,-0.275,
795,-0.535,-0.28,
796,-0.54,-0.3,
797,-0.565,-0.31,
798,-0.6,-0.31,
799,-0.61,-0.31,
800,-0.64,-0.31,
801,-0.635,-0.305,
802,-0.65,-0.29,
803,-0.645,-0.3,
804,-0.635,-0.29,
805,-0.635,-0.295,
806,-0.635,-0.295,
807,-0.645,-0.305,
808,-0.64,-0.305,
809,-0.67,-0.32,
810,-0.665,-0.325,
811,-0.67,-0.325,
812,-0.665,-0.325,
813,-0.675,-0.31,
814,-0.665,-0.305,
815,-0.665,-0.295,
816,-0.655,-0.295,
817,-0.645,-0.28,
818,-0.645,-0.29,
819,-0.65,-0.3,
820,-0.66,-0.305,
821,-0.66,-0.31,
822,-0.67,-0.32,
823,-0.67,-0.315,
824,-0.68,-0.32,
825,-0.68,-0.31,
826,-0.665,-0.295,
827,-0.66,-0.3,
828,-0.645,-0.29,
829,-0.635,-0.295,
830,-0.625,-0.295,
831,-0.63,-0.295,
832,-0.63,-0.305,
833,-0.63,-0.295,
834,-0.63,-0.29,
835,-0.62,-0.28,
836,-0.6,-0.27,
837,-0.6,-0.28,
838,-0.6,-0.305,
839,-0.58,-0.335,
840,-0.545,-0.39,
841,-0.5,-0.465,
842,-0.435,-0.55,
843,-0.3,-0.645,
844,-0.145,-0.715,
845,0.085,-0.76,
846,0.375,-0.775,
847,0.715,-0.755,
848,1.07,-0.685,
849,1.405,-0.61,
850,1.635,-0.515,N
851,1.71,-0.44,
852,1.59,-0.37,
853,1.255,-0.315,
854,0.745,-0.295,
855,0.115,-0.315,
856,-0.51,-0.325,
857,-1.025,-0.355,
858,-1.32,-0.385,
859,-1.37,-0.385,
860,-1.225,-0.385,
861,-0.99,-0.35,
862,-0.77,-0.315,
863,-0.6,-0.275,
864,-0.5,-0.23,
865,-0.46,-0.225,
866,-0.455,-0.24,
867,-0.49,-0.255,
868,-0.52,-0.26,
869,-0.565,-0.265,
870,-0.575,-0.265,
871,-0.58,-0.275,
872,-0.59,-0.27,
873,-0.58,-0.265,
874,-0.56,-0.26,
875,-0.56,-0.255,
876,-0.555,-0.26,
877,-0.535,-0.235,
878,-0.535,-0.255,
879,-0.535,-0.26,
880,-0.545,-0.255,
881,-0.55,-0.275,
882,-0.565,-0.285,
883,-0.55,-0.275,
884,-0.565,-0.275,
885,-0.565,-0.265,
886,-0.56,-0.25,
887,-0.54,-0.255,
888,-0.54,-0.25,
889,-0.52,-0.25,
890,-0.525,-0.255,
891,-0.54,-0.265,
892,-0.53,-0.275,
893,-0.555,-0.285,
894,-0.55,-0.285,
895,-0.545,-0.29,
896,-0.545,-0.285,
897,-0.55,-0.27,
898,-0.54,-0.28,
899,-0.53,-0.275,
900,-0.53,-0.265,
901,-0.53,-0.26,
902,-0.52,-0.265,
903,-0.52,-0.275,
904,-0.53,-0.285,
905,-0.53,-0.28,
906,-0.53,-0.295,
907,-0.525,-0.3,
908,-0.53,-0.29,
909,-0.54,-0.29,
910,-0.545,-0.275,
911,-0.525,-0.28,
912,-0.51,-0.27,
913,-0.51,-0.275,
914,-0.53,-0.285,
915,-0.515,-0.29,
916,-0.515,-0.285,
917,-0.515,-0.285,
918,-0.515,-0.29,
919,-0.525,-0.305,
920,-0.515,-0.305,
921,-0.525,-0.295,
922,-0.505,-0.28,
923,-0.5,-0.29,
924,-0.495,-0.285,
925,-0.48,-0.265,
926,-0.48,-0.265,
927,-0.49,-0.275,
928,-0.495,-0.29,
929,-0.495,-0.29,
930,-0.495,-0.3,
931,-0.505,-0.3,
932,-0.5,-0.295,
933,-0.51,-0.3,
934,-0.495,-0.28,
935,-0.485,-0.275,
936,-0.48,-0.275,
937,-0.47,-0.265,
938,-0.47,-0.27,
939,-0.465,-0.285,
940,-0.465,-0.3,
941,-0.47,-0.3,
942,-0.475,-0.3,
943,-0.465,-0.32,
944,-0.47,-0.31,
945,-0.46,-0.295,
946,-0.45,-0.295,
947,-0.445,-0.28,
948,-0.445,-0.285,
949,-0.425,-0.28,
950,-0.425,-0.28,
951,-0.425,-0.29,
952,-0.435,-0.3,
953,-0.43,-0.305,
954,-0.445,-0.305,
955,-0.425,-0.3,
956,-0.425,-0.305,
957,-0.415,-0.315,
958,-0.415,-0.3,
959,-0.41,-0.305,
960,-0.395,-0.295,
961,-0.375,-0.285,
962,-0.38,-0.295,
963,-0.375,-0.3,
964,-0.38,-0.315,
965,-0.37,-0.32,
966,-0.385,-0.315,
967,-0.38,-0.325,
968,-0.395,-0.315,
969,-0.39,-0.31,
970,-0.385,-0.315,
971,-0.38,-0.3,
972,-0.38,-0.3,
973,-0.365,-0.3,
974,-0.36,-0.305,
975,-0.36,-0.305,
976,-0.375,-0.325,
977,-0.37,-0.32,
978,-0.38,-0.33,
979,-0.395,-0.33,
980,-0.385,-0.33,
981,-0.39,-0.325,
982,-0.395,-0.32,
983,-0.4,-0.3,
984,-0.41,-0.3,
985,-0.41,-0.29,
986,-0.415,-0.305,
987,-0.455,-0.29,
988,-0.475,-0.305,
989,-0.485,-0.3,
990,-0.5,-0.305,
991,-0.51,-0.315,
992,-0.53,-0.305,
993,-0.55,-0.29,
994,-0.555,-0.28,
995,-0.555,-0.285,
996,-0.58,-0.265,
997,-0.57,-0.26,
998,-0.58,-0.27,
999,-0.6,-0.275,
1000,-0.605,-0.285,
1001,-0.635,-0.295,
1002,-0.645,-0.295,
1003,-0.645,-0.29,
1004,-0.66,-0.295,
1005,-0.65,-0.275,
1006,-0.65,-0.27,
1007,-0.655,-0.265,
1008,-0.635,-0.27,
1009,-0.635,-0.27,
1010,-0.645,-0.27,
1011,-0.655,-0.285,
1012,-0.66,-0.285,
1013,-0.65,-0.3,
1014,-0.67,-0.305,
1015,-0.66,-0.31,
1016,-0.655,-0.29,
1017,-0.66,-0.285,
1018,-0.65,-0.28,
1019,-0.655,-0.27,
1020,-0.645,-0.265,
1021,-0.635,-0.27,
1022,-0.63,-0.275,
1023,-0.625,-0.285,
1024,-0.63,-0.285,
1025,-0.635,-0.29,
1026,-0.635,-0.305,
1027,-0.63,-0.29,
1028,-0.63,-0.29,
1029,-0.63,-0.285,
1030,-0.61,-0.28,
1031,-0.615,-0.285,
1032,-0.61,-0.265,
1033,-0.595,-0.28,
1034,-0.59,-0.29,
1035,-0.59,-0.285,
1036,-0.6,-0.29,
1037,-0.595,-0.31,
1038,-0.6,-0.31,
1039,-0.605,-0.31,
1040,-0.605,-0.3,
1041,-0.605,-0.295,
1042,-0.595,-0.3,
1043,-0.59,-0.29,
1044,-0.58,-0.285,
1045,-0.585,-0.285,
1046,-0.58,-0.29,
1047,-0.59,-0.305,
1048,-0.6,-0.315,
1049,-0.595,-0.305,
1050,-0.605,-0.32,
1051,-0.61,-0.325,
1052,-0.605,-0.305,
1053,-0.61,-0.31,
1054,-0.61,-0.295,
1055,-0.595,-0.295,
1056,-0.59,-0.28,
1057,-0.6,-0.295,
1058,-0.605,-0.31,
1059,-0.61,-0.31,
1060,-0.625,-0.315,
1061,-0.615,-0.33,
1062,-0.63,-0.33,
1063,-0.635,-0.315,
1064,-0.635,-0.315,
1065,-0.63,-0.305,
1066,-0.62,-0.3,
1067,-0.63,-0.3,
1068,-0.615,-0.285,
1069,-0.62,-0.3,
1070,-0.61,-0.305,
1071,-0.615,-0.315,
1072,-0.625,-0.32,
1073,-0.625,-0.325,
1074,-0.645,-0.315,
1075,-0.665,-0.33,
1076,-0.645,-0.315,
1077,-0.64,-0.325,
1078,-0.64,-0.325,
1079,-0.63,-0.305,
1080,-0.625,-0.29,
1081,-0.62,-0.3,
1082,-0.615,-0.31,
1083,-0.635,-0.315,
1084,-0.63,-0.32,
1085,-0.64,-0.33,
1086,-0.64,-0.335,
1087,-0.65,-0.325,
1088,-0.65,-0.33,
1089,-0.635,-0.31,
1090,-0.64,-0.315,
1091,-0.635,-0.305,
1092,-0.64,-0.29,
1093,-0.63,-0.31,
1094,-0.63,-0.305,
1095,-0.63,-0.315,
1096,-0.64,-0.325,
1097,-0.645,-0.34,
1098,-0.65,-0.33,
1099,-0.65,-0.33,
1100,-0.66,-0.325,
1101,-0.655,-0.315,
1102,-0.655,-0.315,
1103,-0.64,-0.3,
1104,-0.645,-0.305,
1105,-0.635,-0.315,
1106,-0.635,-0.32,
1107,-0.64,-0.32,
1108,-0.65,-0.33,
1109,-0.655,-0.33,
1110,-0.65,-0.335,
1111,-0.655,-0.33,
1112,-0.64,-0.335,
1113,-0.66,-0.335,
1114,-0.66,-0.315,
1115,-0.64,-0.315,
1116,-0.625,-0.3,
1117,-0.63,-0.32,
1118,-0.63,-0.315,
1119,-0.635,-0.32,
1120,-0.66,-0.325,
1121,-0.64,-0.33,
1122,-0.655,-0.335,
1123,-0.645,-0.32,
1124,-0.635,-0.305,
1125,-0.63,-0.285,
1126,-0.64,-0.28,
1127,-0.61,-0.275,
1128,-0.61,-0.255,
1129,-0.605,-0.255,
1130,-0.59,-0.255,
1131,-0.57,-0.265,
1132,-0.565,-0.265,
1133,-0.58,-0.28,
1134,-0.58,-0.3,
1135,-0.565,-0.3,
1136,-0.55,-0.295,
1137,-0.55,-0.305,
1138,-0.535,-0.295,
1139,-0.51,-0.31,
1140,-0.505,-0.31,
1141,-0.495,-0.31,
1142,-0.49,-0.31,
1143,-0.485,-0.315,
1144,-0.49,-0.315,
1145,-0.505,-0.32,
1146,-0.505,-0.335,
1147,-0.53,-0.325,
1148,-0.53,-0.315,
1149,-0.53,-0.31,
1150,-0.53,-0.31,
1151,-0.515,-0.29,
1152,-0.5,-0.295,
1153,-0.5,-0.3,
1154,-0.5,-0.305,
1155,-0.51,-0.315,
1156,-0.53,-0.33,
1157,-0.54,-0.34,
1158,-0.565,-0.35,
1159,-0.58,-0.345,
1160,-0.59,-0.34,
1161,-0.6,-0.325,
1162,-0.62,-0.335,
1163,-0.61,-0.325,
1164,-0.61,-0.32,
1165,-0.605,-0.33,
1166,-0.615,-0.325,
1167,-0.61,-0.345,
1168,-0.625,-0.35,
1169,-0.63,-0.345,
1170,-0.64,-0.36,
1171,-0.64,-0.355,
1172,-0.64,-0.35,
1173,-0.63,-0.34,
1174,-0.63,-0.33,
1175,-0.64,-0.325,
1176,-0.625,-0.32,
1177,-0.62,-0.325,
1178,-0.625,-0.34,
1179,-0.63,-0.34,
1180,-0.635,-0.34,
1181,-0.635,-0.34,
1182,-0.65,-0.35,
1183,-0.635,-0.35,
1184,-0.645,-0.345,
1185,-0.635,-0.33,
1186,-0.635,-0.33,
1187,-0.615,-0.315,
1188,-0.61,-0.31,
1189,-0.61,-0.315,
1190,-0.6,-0.32,
1191,-0.595,-0.33,
1192,-0.605,-0.34,
1193,-0.595,-0.34,
1194,-0.605,-0.32,
1195,-0.595,-0.315,
1196,-0.59,-0.3,
1197,-0.585,-0.275,
1198,-0.575,-0.27,
1199,-0.545,-0.265,
1200,-0.53,-0.29,
1201,-0.52,-0.365,
1202,-0.495,-0.42,
1203,-0.445,-0.51,
1204,-0.365,-0.61,
1205,-0.235,-0.71,
1206,-0.035,-0.77,
1207,0.225,-0.815,
1208,0.575,-0.81,
1209,0.95,-0.765,
1210,1.305,-0.705,
1211,1.595,-0.615,N
1212,1.745,-0.53,
1213,1.695,-0.46,
1214,1.43,-0.415,
1215,0.96,-0.375,
1216,0.34,-0.38,
1217,-0.28,-0.38,
1218,-0.83,-0.4,
1219,-1.22,-0.415,
1220,-1.375,-0.425,
1221,-1.32,-0.415,
1222,-1.12,-0.385,
1223,-0.9,-0.35,
1224,-0.7,-0.305,
1225,-0.55,-0.275,
1226,-0.475,-0.255,
1227,-0.445,-0.245,
1228,-0.445,-0.265,
1229,-0.48,-0.28,
1230,-0.51,-0.285,
1231,-0.545,-0.285,
1232,-0.55,-0.28,
1233,-0.55,-0.265,
1234,-0.545,-0.255,
1235,-0.535,-0.255,
1236,-0.525,-0.26,
1237,-0.51,-0.26,
1238,-0.505,-0.255,
1239,-0.515,-0.265,
1240,-0.52,-0.27,
1241,-0.525,-0.29,
1242,-0.53,-0.28,
1243,-0.535,-0.275,
1244,-0.53,-0.265,
1245,-0.53,-0.27,
1246,-0.515,-0.265,
1247,-0.515,-0.26,
1248,-0.505,-0.25,
1249,-0.505,-0.26,
1250,-0.5,-0.265,
1251,-0.5,-0.28,
1252,-0.52,-0.28,
1253,-0.515,-0.285,
1254,-0.52,-0.28,
1255,-0.535,-0.295,
1256,-0.53,-0.28,
1257,-0.515,-0.28,
1258,-0.505,-0.25,
1259,-0.5,-0.255,
1260,-0.5,-0.245,
1261,-0.495,-0.265,
1262,-0.495,-0.27,
1263,-0.495,-0.275,
1264,-0.51,-0.28,
1265,-0.505,-0.285,
1266,-0.515,-0.3,
1267,-0.515,-0.29,
1268,-0.515,-0.28,
1269,-0.515,-0.27,
1270,-0.5,-0.27,
1271,-0.495,-0.265,
1272,-0.49,-0.255,
1273,-0.485,-0.26,
1274,-0.485,-0.265,
1275,-0.495,-0.28,
1276,-0.495,-0.275,
1277,-0.505,-0.295,
1278,-0.52,-0.29,
1279,-0.51,-0.285,
1280,-0.52,-0.285,
1281,-0.51,-0.295,
1282,-0.5,-0.28,
1283,-0.49,-0.27,
1284,-0.49,-0.26,
1285,-0.5,-0.265,
1286,-0.48,-0.285,
1287,-0.48,-0.275,
1288,-0.48,-0.29,
1289,-0.48,-0.295,
1290,-0.49,-0.305,
1291,-0.5,-0.3,
1292,-0.495,-0.285,
1293,-0.49,-0.275,
1294,-0.48,-0.27,
1295,-0.47,-0.27,
1296,-0.46,-0.265,
1297,-0.45,-0.275,
1298,-0.455,-0.28,
1299,-0.45,-0.29,
1300,-0.45,-0.295,
1301,-0.47,-0.295,
1302,-0.475,-0.305,
1303,-0.475,-0.305,
1304,-0.465,-0.305,
1305,-0.46,-0.28,
1306,-0.455,-0.28,
1307,-0.43,-0.26,
1308,-0.425,-0.27,
1309,-0.415,-0.27,
1310,-0.415,-0.27,
1311,-0.425,-0.28,
1312,-0.425,-0.285,
1313,-0.425,-0.305,
1314,-0.43,-0.3,
1315,-0.425,-0.3,
1316,-0.43,-0.295,
1317,-0.415,-0.285,
1318,-0.415,-0.275,
1319,-0.405,-0.275,
1320,-0.405,-0.27,
1321,-0.395,-0.27,
1322,-0.39,-0.27,
1323,-0.395,-0.29,
1324,-0.4,-0.3,
1325,-0.395,-0.3,
1326,-0.405,-0.305,
1327,-0.405,-0.305,
1328,-0.405,-0.295,
1329,-0.415,-0.285,
1330,-0.4,-0.3,
1331,-0.38,-0.285,
1332,-0.37,-0.28,
1333,-0.37,-0.28,
1334,-0.38,-0.3,
1335,-0.38,-0.295,
1336,-0.38,-0.3,
1337,-0.37,-0.315,
1338,-0.38,-0.325,
1339,-0.38,-0.32,
1340,-0.37,-0.31,
1341,-0.385,-0.315,
1342,-0.38,-0.295,
1343,-0.37,-0.285,
1344,-0.36,-0.275,
1345,-0.37,-0.295,
1346,-0.365,-0.29,
1347,-0.385,-0.295,
1348,-0.4,-0.3,
1349,-0.435,-0.315,
1350,-0.445,-0.305,
1351,-0.46,-0.3,
1352,-0.475,-0.285,
1353,-0.49,-0.29,
1354,-0.49,-0.28,
1355,-0.505,-0.275,
1356,-0.51,-0.255,
1357,-0.51,-0.265,
1358,-0.525,-0.26,
1359,-0.535,-0.265,
1360,-0.555,-0.275,
1361,-0.57,-0.285,
1362,-0.575,-0.285,
1363,-0.595,-0.28,
1364,-0.59,-0.27,
1365,-0.605,-0.27,
1366,-0.6,-0.255,
1367,-0.6,-0.26,
1368,-0.615,-0.245,
1369,-0.59,-0.25,
1370,-0.6,-0.265,
1371,-0.595,-0.275,
1372,-0.6,-0.265,
1373,-0.62,-0.265,
1374,-0.62,-0.27,
1375,-0.62,-0.27,
1376,-0.61,-0.265,
1377,-0.61,-0.255,
1378,-0.6,-0.26,
1379,-0.605,-0.25,
1380,-0.595,-0.245,
1381,-0.59,-0.255,
1382,-0.585,-0.25,
1383,-0.585,-0.265,
1384,-0.59,-0.265,
1385,-0.59,-0.265,
1386,-0.595,-0.26,
1387,-0.61,-0.275,
1388,-0.6,-0.27,
1389,-0.595,-0.255,
1390,-0.585,-0.255,
1391,-0.58,-0.245,
1392,-0.57,-0.255,
1393,-0.575,-0.245,
1394,-0.575,-0.25,
1395,-0.565,-0.26,
1396,-0.58,-0.265,
1397,-0.575,-0.275,
1398,-0.575,-0.275,
1399,-0.575,-0.28,
1400,-0.57,-0.26,
1401,-0.585,-0.26,
1402,-0.555,-0.265,
1403,-0.56,-0.245,
1404,-0.555,-0.245,
1405,-0.55,-0.25,
1406,-0.56,-0.26,
1407,-0.555,-0.27,
1408,-0.555,-0.275,
1409,-0.565,-0.28,
1410,-0.575,-0.28,
1411,-0.56,-0.285,
1412,-0.565,-0.285,
1413,-0.56,-0.275,
1414,-0.565,-0.265,
1415,-0.555,-0.265,
1416,-0.555,-0.26,
1417,-0.55,-0.265,
1418,-0.55,-0.27,
1419,-0.555,-0.27,
1420,-0.565,-0.28,
1421,-0.57,-0.285,
1422,-0.58,-0.295,
1423,-0.585,-0.295,
1424,-0.585,-0.28,
1425,-0.6,-0.285,
1426,-0.605,-0.285,
1427,-0.59,-0.28,
1428,-0.585,-0.27,
1429,-0.59,-0.27,
1430,-0.585,-0.285,
1431,-0.59,-0.28,
1432,-0.59,-0.285,
1433,-0.595,-0.29,
1434,-0.605,-0.29,
1435,-0.62,-0.3,
1436,-0.605,-0.29,
1437,-0.615,-0.28,
1438,-0.605,-0.28,
1439,-0.6,-0.27,
1440,-0.585,-0.26,
1441,-0.595,-0.265,
1442,-0.6,-0.285,
1443,-0.595,-0.28,
1444,-0.605,-0.285,
1445,-0.62,-0.3,
1446,-0.62,-0.3,
1447,-0.625,-0.3,
1448,-0.62,-0.295,
1449,-0.62,-0.29,
1450,-0.615,-0.285,
1451,-0.605,-0.28,
1452,-0.605,-0.27,
1453,-0.605,-0.28,
1454,-0.605,-0.295,
1455,-0.61,-0.295,
1456,-0.61,-0.29,
1457,-0.615,-0.3,
1458,-0.615,-0.305,
1459,-0.63,-0.305,
1460,-0.635,-0.295,
1461,-0.635,-0.3,
1462,-0.62,-0.29,
1463,-0.61,-0.275,
1464,-0.605,-0.265,
1465,-0.6,-0.275,
1466,-0.61,-0.285,
1467,-0.605,-0.295,
1468,-0.62,-0.29,
1469,-0.625,-0.3,
1470,-0.625,-0.3,
1471,-0.63,-0.295,
1472,-0.625,-0.305,
1473,-0.63,-0.29,
1474,-0.625,-0.275,
1475,-0.605,-0.28,
1476,-0.61,-0.27,
1477,-0.6,-0.27,
1478,-0.61,-0.27,
1479,-0.6,-0.285,
1480,-0.62,-0.29,
1481,-0.61,-0.295,
1482,-0.625,-0.295,
1483,-0.62,-0.3,
1484,-0.615,-0.295,
1485,-0.62,-0.29,
1486,-0.62,-0.28,
1487,-0.61,-0.28,
1488,-0.6,-0.27,
1489,-0.61,-0.275,
1490,-0.595,-0.27,
1491,-0.6,-0.29,
1492,-0.61,-0.305,
1493,-0.61,-0.29,
1494,-0.62,-0.305,
1495,-0.63,-0.305,
1496,-0.615,-0.305,
1497,-0.63,-0.295,
1498,-0.625,-0.285,
1499,-0.62,-0.29,
1500,-0.615,-0.27,
1501,-0.605,-0.285,
1502,-0.6,-0.285,
1503,-0.595,-0.29,
1504,-0.615,-0.29,
1505,-0.615,-0.295,
1506,-0.62,-0.305,
1507,-0.615,-0.305,
1508,-0.62,-0.28,
1509,-0.62,-0.285,
1510,-0.615,-0.275,
1511,-0.605,-0.275,
1512,-0.6,-0.265,
1513,-0.595,-0.275,
1514,-0.61,-0.285,
1515,-0.615,-0.29,
1516,-0.61,-0.295,
1517,-0.62,-0.29,
1518,-0.625,-0.3,
1519,-0.635,-0.305,
1520,-0.62,-0.29,
1521,-0.605,-0.285,
1522,-0.6,-0.275,
1523,-0.61,-0.265,
1524,-0.6,-0.26,
1525,-0.6,-0.27,
1526,-0.605,-0.27,
1527,-0.595,-0.28,
1528,-0.615,-0.285,
1529,-0.62,-0.29,
1530,-0.625,-0.29,
1531,-0.625,-0.285,
1532,-0.61,-0.295,
1533,-0.61,-0.275,
1534,-0.6,-0.265,
1535,-0.6,-0.265,
1536,-0.59,-0.255,
1537,-0.59,-0.265,
1538,-0.595,-0.27,
1539,-0.595,-0.265,
1540,-0.605,-0.275,
1541,-0.615,-0.28,
1542,-0.625,-0.295,
1543,-0.625,-0.28,
1544,-0.635,-0.265,
1545,-0.62,-0.255,
1546,-0.615,-0.245,
1547,-0.6,-0.235,
1548,-0.59,-0.22,
1549,-0.58,-0.215,
1550,-0.585,-0.205,
1551,-0.57,-0.205,
1552,-0.565,-0.21,
1553,-0.58,-0.215,
1554,-0.565,-0.22,
1555,-0.55,-0.225,
1556,-0.54,-0.23,
1557,-0.53,-0.235,
1558,-0.5,-0.235,
1559,-0.485,-0.255,
1560,-0.48,-0.255,
1561,-0.46,-0.26,
1562,-0.465,-0.255,
1563,-0.46,-0.26,
1564,-0.46,-0.265,
1565,-0.47,-0.255,
1566,-0.49,-0.265,
1567,-0.5,-0.27,
1568,-0.49,-0.27,
1569,-0.495,-0.26,
1570,-0.485,-0.255,
1571,-0.485,-0.25,
1572,-0.47,-0.235,
1573,-0.46,-0.23,
1574,-0.47,-0.26,
1575,-0.47,-0.255,
1576,-0.5,-0.265,
1577,-0.515,-0.285,
1578,-0.545,-0.29,
1579,-0.56,-0.29,
1580,-0.575,-0.28,
1581,-0.58,-0.285,
1582,-0.59,-0.275,
1583,-0.585,-0.27,
1584,-0.575,-0.265,
1585,-0.57,-0.26,
1586,-0.58,-0.27,
1587,-0.59,-0.275,
1588,-0.585,-0.28,
1589,-0.595,-0.28,
1590,-0.61,-0.295,
1591,-0.62,-0.295,
1592,-0.63,-0.285,
1593,-0.62,-0.285,
1594,-0.615,-0.27,
1595,-0.62,-0.26,
1596,-0.615,-0.26,
1597,-0.59,-0.255,
1598,-0.59,-0.28,
1599,-0.59,-0.285,
1600,-0.6,-0.29,
1601,-0.61,-0.285,
1602,-0.625,-0.3,
1603,-0.62,-0.29,
1604,-0.63,-0.285,
1605,-0.6,-0.27,
1606,-0.6,-0.27,
1607,-0.605,-0.265,
1608,-0.59,-0.255,
1609,-0.58,-0.26,
1610,-0.595,-0.26,
1611,-0.585,-0.265,
1612,-0.58,-0.27,
1613,-0.575,-0.26,
1614,-0.58,-0.245,
1615,-0.57,-0.235,
1616,-0.555,-0.23,
1617,-0.55,-0.24,
1618,-0.535,-0.25,
1619,-0.52,-0.285,
1620,-0.505,-0.335,
1621,-0.465,-0.405,
1622,-0.415,-0.495,
1623,-0.33,-0.585,
1624,-0.2,-0.675,
1625,-0.015,-0.735,
1626,0.225,-0.76,
1627,0.565,-0.735,
1628,0.94,-0.66,
1629,1.295,-0.565,N
1630,1.545,-0.465,
1631,1.58,-0.355,
1632,1.32,-0.29,
1633,0.785,-0.25,
1634,0.145,-0.27,
1635,-0.495,-0.295,
1636,-1.135,-0.345,
1637,-1.35,-0.355,
1638,-1.31,-0.34,
1639,-1.1,-0.305,
1640,-0.84,-0.26,
1641,-0.595,-0.215,
1642,-0.445,-0.19,
1643,-0.38,-0.18,
1644,-0.38,-0.19,
1645,-0.43,-0.205,
1646,-0.47,-0.19,
1647,-0.515,-0.2,
1648,-0.545,-0.22,
1649,-0.545,-0.215,
1650,-0.545,-0.22,
1651,-0.54,-0.215,
1652,-0.525,-0.21,
1653,-0.525,-0.21,
1654,-0.51,-0.195,
1655,-0.52,-0.195,
1656,-0.515,-0.185,
1657,-0.505,-0.195,
1658,-0.505,-0.2,
1659,-0.515,-0.2,
1660,-0.515,-0.2,
1661,-0.51,-0.215,
1662,-0.52,-0.22,
1663,-0.525,-0.225,
1664,-0.52,-0.215,
1665,-0.515,-0.21,
1666,-0.51,-0.195,
1667,-0.505,-0.19,
1668,-0.5,-0.19,
1669,-0.485,-0.19,
1670,-0.49,-0.2,
1671,-0.49,-0.2,
1672,-0.49,-0.21,
1673,-0.5,-0.225,
1674,-0.51,-0.205,
1675,-0.515,-0.215,
1676,-0.51,-0.21,
1677,-0.505,-0.205,
1678,-0.5,-0.205,
1679,-0.505,-0.2,
1680,-0.5,-0.195,
1681,-0.5,-0.2,
1682,-0.495,-0.205,
1683,-0.51,-0.21,
1684,-0.505,-0.22,
1685,-0.52,-0.23,
1686,-0.52,-0.225,
1687,-0.505,-0.23,
1688,-0.5,-0.23,
1689,-0.5,-0.22,
1690,-0.485,-0.215,
1691,-0.49,-0.2,
1692,-0.475,-0.21,
1693,-0.49,-0.215,
1694,-0.465,-0.215,
1695,-0.48,-0.225,
1696,-0.485,-0.22,
1697,-0.495,-0.235,
1698,-0.5,-0.23,
1699,-0.5,-0.245,
1700,-0.51,-0.23,
1701,-0.5,-0.23,
1702,-0.495,-0.22,
1703,-0.495,-0.215,
1704,-0.48,-0.2,
1705,-0.47,-0.21,
1706,-0.455,-0.22,
1707,-0.47,-0.23,
1708,-0.47,-0.225,
1709,-0.475,-0.25,
1710,-0.47,-0.24,
1711,-0.48,-0.24,
1712,-0.485,-0.235,
1713,-0.465,-0.23,
1714,-0.47,-0.235,
1715,-0.455,-0.225,
1716,-0.45,-0.21,
1717,-0.435,-0.22,
1718,-0.45,-0.23,
1719,-0.45,-0.225,
1720,-0.445,-0.24,
1721,-0.46,-0.24,
1722,-0.45,-0.25,
1723,-0.455,-0.245,
1724,-0.45,-0.245,
1725,-0.445,-0.24,
1726,-0.44,-0.225,
1727,-0.445,-0.225,
1728,-0.425,-0.22,
1729,-0.425,-0.215,
1730,-0.41,-0.23,
1731,-0.43,-0.24,
1732,-0.43,-0.24,
1733,-0.43,-0.255,
1734,-0.42,-0.26,
1735,-0.425,-0.265,
1736,-0.43,-0.25,
1737,-0.425,-0.25,
1738,-0.425,-0.245,
1739,-0.43,-0.24,
1740,-0.42,-0.235,
1741,-0.405,-0.24,
1742,-0.41,-0.24,
1743,-0.42,-0.245,
1744,-0.42,-0.25,
1745,-0.43,-0.26,
1746,-0.435,-0.26,
1747,-0.445,-0.27,
1748,-0.445,-0.26,
1749,-0.445,-0.255,
1750,-0.445,-0.24,
1751,-0.445,-0.24,
1752,-0.43,-0.23,
1753,-0.43,-0.24,
1754,-0.425,-0.255,
1755,-0.425,-0.24,
1756,-0.42,-0.26,
1757,-0.43,-0.26,
1758,-0.42,-0.265,
1759,-0.43,-0.265,
1760,-0.43,-0.255,
1761,-0.435,-0.245,
1762,-0.43,-0.245,
1763,-0.425,-0.23,
1764,-0.425,-0.22,
1765,-0.43,-0.22,
1766,-0.45,-0.225,
1767,-0.46,-0.225,
1768,-0.47,-0.23,
1769,-0.495,-0.235,
1770,-0.5,-0.235,
1771,-0.52,-0.23,
1772,-0.535,-0.215,
1773,-0.535,-0.22,
1774,-0.555,-0.21,
1775,-0.57,-0.195,
1776,-0.565,-0.18,
1777,-0.56,-0.19,
1778,-0.565,-0.2,
1779,-0.575,-0.2,
1780,-0.585,-0.2,
1781,-0.59,-0.205,
1782,-0.605,-0.21,
1783,-0.615,-0.21,
1784,-0.605,-0.22,
1785,-0.62,-0.205,
1786,-0.62,-0.195,
1787,-0.615,-0.19,
1788,-0.595,-0.185,
1789,-0.595,-0.18,
1790,-0.6,-0.19,
1791,-0.6,-0.19,
1792,-0.605,-0.21,
1793,-0.625,-0.21,
1794,-0.63,-0.22,
1795,-0.63,-0.21,
1796,-0.615,-0.2,
1797,-0.615,-0.205,
1798,-0.615,-0.195,
1799,-0.61,-0.185,
1800,-0.605,-0.195,
1801,-0.58,-0.18,
1802,-0.58,-0.19,
1803,-0.59,-0.2,
1804,-0.6,-0.2,
1805,-0.6,-0.21,
1806,-0.595,-0.22,
1807,-0.595,-0.215,
1808,-0.59,-0.2,
1809,-0.6,-0.21,
1810,-0.59,-0.19,
1811,-0.585,-0.195,
1812,-0.585,-0.185,
1813,-0.56,-0.195,
1814,-0.58,-0.2,
1815,-0.57,-0.195,
1816,-0.58,-0.195,
1817,-0.59,-0.205,
1818,-0.6,-0.22,
1819,-0.595,-0.215,
1820,-0.595,-0.225,
1821,-0.595,-0.205,
1822,-0.585,-0.205,
1823,-0.57,-0.2,
1824,-0.565,-0.185,
1825,-0.565,-0.19,
1826,-0.565,-0.195,
1827,-0.575,-0.2,
1828,-0.565,-0.215,
1829,-0.57,-0.22,
1830,-0.585,-0.225,
1831,-0.595,-0.225,
1832,-0.605,-0.22,
1833,-0.605,-0.225,
1834,-0.585,-0.21,
1835,-0.595,-0.205,
1836,-0.585,-0.2,
1837,-0.585,-0.19,
1838,-0.585,-0.21,
1839,-0.6,-0.205,
1840,-0.59,-0.21,
1841,-0.595,-0.22,
1842,-0.605,-0.22,
1843,-0.62,-0.23,
1844,-0.62,-0.225,
1845,-0.625,-0.22,
1846,-0.63,-0.21,
1847,-0.62,-0.215,
1848,-0.6,-0.2,
1849,-0.6,-0.215,
1850,-0.605,-0.19,
1851,-0.61,-0.2,
1852,-0.62,-0.22,
1853,-0.63,-0.22,
1854,-0.635,-0.235,
1855,-0.655,-0.24,
1856,-0.635,-0.22,
1857,-0.645,-0.22,
1858,-0.635,-0.21,
1859,-0.645,-0.195,
1860,-0.645,-0.2,
1861,-0.64,-0.205,
1862,-0.62,-0.21,
1863,-0.63,-0.215,
1864,-0.635,-0.225,
1865,-0.64,-0.225,
1866,-0.645,-0.225,
1867,-0.645,-0.24,
1868,-0.655,-0.23,
1869,-0.65,-0.22,
1870,-0.645,-0.205,
1871,-0.65,-0.21,
1872,-0.64,-0.21,
1873,-0.635,-0.195,
1874,-0.63,-0.2,
1875,-0.635,-0.215,
1876,-0.64,-0.22,
1877,-0.645,-0.23,
1878,-0.66,-0.235,
1879,-0.66,-0.23,
1880,-0.655,-0.225,
1881,-0.655,-0.22,
1882,-0.65,-0.215,
1883,-0.645,-0.21,
1884,-0.635,-0.195,
1885,-0.63,-0.2,
1886,-0.63,-0.2,
1887,-0.645,-0.21,
1888,-0.635,-0.215,
1889,-0.655,-0.225,
1890,-0.67,-0.215,
1891,-0.67,-0.22,
1892,-0.68,-0.215,
1893,-0.655,-0.2,
1894,-0.665,-0.185,
1895,-0.655,-0.17,
1896,-0.645,-0.155,
1897,-0.63,-0.155,
1898,-0.63,-0.17,
1899,-0.62,-0.165,
1900,-0.62,-0.165,
1901,-0.63,-0.155,
1902,-0.625,-0.17,
1903,-0.615,-0.175,
1904,-0.61,-0.16,
1905,-0.6,-0.175,
1906,-0.58,-0.185,
1907,-0.565,-0.185,
1908,-0.56,-0.2,
1909,-0.545,-0.185,
1910,-0.535,-0.205,
1911,-0.525,-0.205,
1912,-0.515,-0.21,
1913,-0.52,-0.21,
1914,-0.525,-0.21,
1915,-0.525,-0.215,
1916,-0.54,-0.215,
1917,-0.55,-0.21,
1918,-0.55,-0.21,
1919,-0.54,-0.195,
1920,-0.555,-0.195,
1921,-0.53,-0.18,
1922,-0.53,-0.2,
1923,-0.54,-0.215,
1924,-0.535,-0.22,
1925,-0.555,-0.225,
1926,-0.58,-0.235,
1927,-0.605,-0.235,
1928,-0.625,-0.25,
1929,-0.63,-0.25,
1930,-0.64,-0.235,
1931,-0.65,-0.22,
1932,-0.635,-0.23,
1933,-0.635,-0.225,
1934,-0.645,-0.225,
1935,-0.625,-0.225,
1936,-0.635,-0.235,
1937,-0.65,-0.24,
1938,-0.665,-0.245,
1939,-0.665,-0.255,
1940,-0.67,-0.24,
1941,-0.67,-0.24,
1942,-0.67,-0.225,
1943,-0.67,-0.215,
1944,-0.655,-0.215,
1945,-0.665,-0.21,
1946,-0.65,-0.22,
1947,-0.645,-0.225,
1948,-0.665,-0.22,
1949,-0.675,-0.245,
1950,-0.66,-0.245,
1951,-0.675,-0.235,
1952,-0.68,-0.225,
1953,-0.68,-0.23,
1954,-0.665,-0.23,
1955,-0.665,-0.22,
1956,-0.65,-0.215,
1957,-0.635,-0.215,
1958,-0.635,-0.22,
1959,-0.625,-0.21,
1960,-0.63,-0.22,
1961,-0.63,-0.21,
1962,-0.625,-0.205,
1963,-0.63,-0.2,
1964,-0.61,-0.2,
1965,-0.61,-0.22,
1966,-0.61,-0.255,
1967,-0.575,-0.295,
1968,-0.54,-0.36,
1969,-0.47,-0.425,
1970,-0.385,-0.525,
1971,-0.235,-0.595,
1972,-0.03,-0.635,
1973,0.28,-0.65,
1974,0.62,-0.615,
1975,0.99,-0.555,
1976,1.335,-0.475,
1977,1.585,-0.39,N
1978,1.67,-0.31,
1979,1.555,-0.245,
1980,1.21,-0.19,
1981,0.665,-0.17,
1982,0.025,-0.185,
1983,-0.615,-0.21,
1984,-1.17,-0.245,
1985,-1.4,-0.26,
1986,-1.365,-0.275,
1987,-1.17,-0.27,
1988,-0.92,-0.235,
1989,-0.7,-0.22,
1990,-0.54,-0.18,
1991,-0.455,-0.155,
1992,-0.445,-0.155,
1993,-0.47,-0.155,
1994,-0.515,-0.165,
1995,-0.555,-0.17,
1996,-0.585,-0.18,
1997,-0.595,-0.185,
1998,-0.595,-0.2,
1999,-0.585,-0.2,
2000,-0.595,-0.19,
2001,-0.565,-0.185,
2002,-0.555,-0.18,
2003,-0.55,-0.18,
2004,-0.545,-0.17,
2005,-0.54,-0.175,
2006,-0.55,-0.18,
2007,-0.55,-0.18,
2008,-0.55,-0.19,
2009,-0.565,-0.195,
2010,-0.56,-0.195,
2011,-0.575,-0.21,
2012,-0.57,-0.195,
2013,-0.575,-0.19,
2014,-0.565,-0.195,
2015,-0.555,-0.195,
2016,-0.55,-0.18,
2017,-0.54,-0.175,
2018,-0.525,-0.185,
2019,-0.535,-0.185,
2020,-0.55,-0.2,
2021,-0.54,-0.2,
2022,-0.54,-0.2,
2023,-0.55,-0.21,
2024,-0.55,-0.21,
2025,-0.545,-0.2,
2026,-0.545,-0.195,
2027,-0.54,-0.19,
2028,-0.53,-0.19,
2029,-0.52,-0.185,
2030,-0.52,-0.195,
2031,-0.525,-0.195,
2032,-0.54,-0.2,
2033,-0.54,-0.22,
2034,-0.55,-0.22,
2035,-0.555,-0.215,
2036,-0.56,-0.21,
2037,-0.55,-0.215,
2038,-0.56,-0.21,
2039,-0.55,-0.205,
2040,-0.535,-0.195,
2041,-0.525,-0.2,
2042,-0.52,-0.21,
2043,-0.53,-0.205,
2044,-0.53,-0.215,
2045,-0.535,-0.22,
2046,-0.53,-0.225,
2047,-0.545,-0.22,
2048,-0.535,-0.22,
2049,-0.54,-0.22,
2050,-0.53,-0.225,
2051,-0.52,-0.205,
2052,-0.51,-0.2,
2053,-0.51,-0.195,
2054,-0.505,-0.21,
2055,-0.505,-0.21,
2056,-0.51,-0.215,
2057,-0.52,-0.225,
2058,-0.52,-0.235,
2059,-0.525,-0.23,
2060,-0.53,-0.23,
2061,-0.52,-0.225,
2062,-0.505,-0.22,
2063,-0.515,-0.215,
2064,-0.51,-0.21,
2065,-0.5,-0.21,
2066,-0.495,-0.22,
2067,-0.495,-0.23,
2068,-0.5,-0.225,
2069,-0.495,-0.24,
2070,-0.5,-0.245,
2071,-0.5,-0.235,
2072,-0.5,-0.23,
2073,-0.5,-0.235,
2074,-0.485,-0.225,
2075,-0.48,-0.22,
2076,-0.47,-0.22,
2077,-0.46,-0.215,
2078,-0.455,-0.23,
2079,-0.46,-0.23,
2080,-0.465,-0.235,
2081,-0.465,-0.25,
2082,-0.465,-0.25,
2083,-0.475,-0.25,
2084,-0.465,-0.25,
2085,-0.47,-0.235,
2086,-0.46,-0.24,
2087,-0.445,-0.235,
2088,-0.44,-0.23,
2089,-0.435,-0.23,
2090,-0.445,-0.24,
2091,-0.43,-0.24,
2092,-0.44,-0.24,
2093,-0.465,-0.26,
2094,-0.46,-0.255,
2095,-0.455,-0.265,
2096,-0.465,-0.25,
2097,-0.455,-0.25,
2098,-0.455,-0.245,
2099,-0.455,-0.24,
2100,-0.44,-0.24,
2101,-0.44,-0.23,
2102,-0.44,-0.245,
2103,-0.455,-0.24,
2104,-0.47,-0.235,
2105,-0.46,-0.245,
2106,-0.465,-0.25,
2107,-0.47,-0.26,
2108,-0.49,-0.24,
2109,-0.495,-0.235,
2110,-0.5,-0.23,
2111,-0.505,-0.215,
2112,-0.505,-0.21,
2113,-0.495,-0.22,
2114,-0.515,-0.21,
2115,-0.535,-0.22,
2116,-0.54,-0.215,
2117,-0.555,-0.22,
2118,-0.58,-0.225,
2119,-0.595,-0.23,
2120,-0.595,-0.205,
2121,-0.62,-0.215,
2122,-0.625,-0.205,
2123,-0.625,-0.195,
2124,-0.635,-0.205,
2125,-0.625,-0.195,
2126,-0.635,-0.19,
2127,-0.64,-0.2,
2128,-0.65,-0.21,
2129,-0.65,-0.21,
2130,-0.675,-0.21,
2131,-0.685,-0.225,
2132,-0.695,-0.205,
2133,-0.7,-0.215,
2134,-0.69,-0.205,
2135,-0.68,-0.2,
2136,-0.675,-0.185,
2137,-0.67,-0.175,
2138,-0.685,-0.185,
2139,-0.685,-0.2,
2140,-0.685,-0.21,
2141,-0.695,-0.215,
2142,-0.705,-0.22,
2143,-0.7,-0.215,
2144,-0.695,-0.21,
2145,-0.68,-0.205,
2146,-0.68,-0.205,
2147,-0.68,-0.195,
2148,-0.67,-0.2,
2149,-0.65,-0.19,
2150,-0.66,-0.205,
2151,-0.645,-0.205,
2152,-0.645,-0.205,
2153,-0.665,-0.215,
2154,-0.65,-0.22,
2155,-0.66,-0.225,
2156,-0.665,-0.22,
2157,-0.66,-0.215,
2158,-0.645,-0.21,
2159,-0.64,-0.21,
2160,-0.625,-0.21,
2161,-0.62,-0.21,
2162,-0.61,-0.21,
2163,-0.615,-0.21,
2164,-0.62,-0.215,
2165,-0.625,-0.225,
2166,-0.635,-0.235,
2167,-0.645,-0.235,
2168,-0.64,-0.22,
2169,-0.635,-0.21,
2170,-0.64,-0.22,
2171,-0.635,-0.22,
2172,-0.615,-0.205,
2173,-0.615,-0.2,
2174,-0.625,-0.22,
2175,-0.615,-0.21,
2176,-0.615,-0.225,
2177,-0.63,-0.225,
2178,-0.635,-0.24,
2179,-0.645,-0.235,
2180,-0.645,-0.245,
2181,-0.645,-0.24,
2182,-0.645,-0.23,
2183,-0.645,-0.225,
2184,-0.64,-0.22,
2185,-0.625,-0.195,
2186,-0.64,-0.215,
2187,-0.64,-0.22,
2188,-0.64,-0.225,
2189,-0.655,-0.24,
2190,-0.66,-0.235,
2191,-0.655,-0.245,
2192,-0.66,-0.245,
2193,-0.68,-0.235,
2194,-0.675,-0.235,
2195,-0.665,-0.23,
2196,-0.67,-0.23,
2197,-0.655,-0.215,
2198,-0.655,-0.23,
2199,-0.66,-0.23,
2200,-0.665,-0.235,
2201,-0.67,-0.245,
2202,-0.675,-0.245,
2203,-0.68,-0.255,
2204,-0.685,-0.255,
2205,-0.685,-0.25,
2206,-0.685,-0.235,
2207,-0.675,-0.245,
2208,-0.675,-0.23,
2209,-0.665,-0.215,
2210,-0.665,-0.235,
2211,-0.665,-0.235,
2212,-0.68,-0.24,
2213,-0.69,-0.25,
2214,-0.68,-0.255,
2215,-0.69,-0.255,
2216,-0.685,-0.265,
2217,-0.695,-0.26,
2218,-0.685,-0.24,
2219,-0.675,-0.245,
2220,-0.67,-0.23,
2221,-0.67,-0.225,
2222,-0.66,-0.23,
2223,-0.67,-0.245,
2224,-0.68,-0.25,
2225,-0.68,-0.255,
2226,-0.69,-0.255,
2227,-0.7,-0.265,
2228,-0.695,-0.265,
2229,-0.695,-0.255,
2230,-0.69,-0.255,
2231,-0.685,-0.245,
2232,-0.675,-0.235,
2233,-0.675,-0.24,
2234,-0.67,-0.245,
2235,-0.665,-0.24,
2236,-0.665,-0.24,
2237,-0.68,-0.255,
2238,-0.695,-0.255,
2239,-0.685,-0.265,
2240,-0.7,-0.245,
2241,-0.69,-0.23,
2242,-0.685,-0.22,
2243,-0.675,-0.215,
2244,-0.66,-0.2,
2245,-0.655,-0.195,
2246,-0.64,-0.18,
2247,-0.645,-0.18,
2248,-0.62,-0.18,
2249,-0.615,-0.195,
2250,-0.62,-0.2,
2251,-0.615,-0.22,
2252,-0.605,-0.225,
2253,-0.59,-0.235,
2254,-0.58,-0.24,
2255,-0.575,-0.235,
2256,-0.565,-0.24,
2257,-0.555,-0.23,
2258,-0.545,-0.24,
2259,-0.545,-0.235,
2260,-0.53,-0.22,
2261,-0.535,-0.245,
2262,-0.535,-0.24,
2263,-0.54,-0.26,
2264,-0.565,-0.245,
2265,-0.57,-0.245,
2266,-0.55,-0.245,
2267,-0.545,-0.23,
2268,-0.56,-0.225,
2269,-0.55,-0.225,
2270,-0.52,-0.22,
2271,-0.535,-0.24,
2272,-0.535,-0.235,
2273,-0.56,-0.245,
2274,-0.575,-0.275,
2275,-0.59,-0.275,
2276,-0.615,-0.265,
2277,-0.64,-0.275,
2278,-0.65,-0.27,
2279,-0.66,-0.255,
2280,-0.66,-0.255,
2281,-0.655,-0.25,
2282,-0.645,-0.26,
2283,-0.655,-0.265,
2284,-0.67,-0.265,
2285,-0.665,-0.275,
2286,-0.685,-0.275,
2287,-0.67,-0.29,
2288,-0.68,-0.275,
2289,-0.68,-0.285,
2290,-0.675,-0.26,
2291,-0.68,-0.26,
2292,-0.68,-0.26,
2293,-0.67,-0.24,
2294,-0.66,-0.255,
2295,-0.665,-0.26,
2296,-0.67,-0.26,
2297,-0.67,-0.28,
2298,-0.675,-0.275,
2299,-0.68,-0.28,
2300,-0.675,-0.275,
2301,-0.68,-0.27,
2302,-0.675,-0.265,
2303,-0.66,-0.26,
2304,-0.66,-0.255,
2305,-0.645,-0.245,
2306,-0.635,-0.245,
2307,-0.645,-0.245,
2308,-0.645,-0.265,
2309,-0.64,-0.26,
2310,-0.645,-0.265,
2311,-0.64,-0.25,
2312,-0.635,-0.235,
2313,-0.63,-0.225,
2314,-0.625,-0.21,
2315,-0.605,-0.22,
2316,-0.6,-0.255,
2317,-0.585,-0.285,
2318,-0.555,-0.35,
2319,-0.515,-0.435,
2320,-0.43,-0.515,
2321,-0.3,-0.62,
2322,-0.11,-0.695,
2323,0.14,-0.73,
2324,0.48,-0.74,
2325,0.87,-0.69,
2326,1.245,-0.625,
2327,1.56,-0.53,N
2328,1.7,-0.445,
2329,1.62,-0.35,
2330,1.275,-0.32,
2331,0.715,-0.285,
2332,0.075,-0.3,
2333,-0.565,-0.32,
2334,-1.13,-0.355,
2335,-1.395,-0.365,
2336,-1.42,-0.36,
2337,-1.265,-0.33,
2338,-1.03,-0.285,
2339,-0.8,-0.24,
2340,-0.62,-0.205,
2341,-0.525,-0.18,
2342,-0.48,-0.175,
2343,-0.485,-0.185,
2344,-0.52,-0.195,
2345,-0.55,-0.21,
2346,-0.57,-0.22,
2347,-0.6,-0.225,
2348,-0.615,-0.21,
2349,-0.605,-0.22,
2350,-0.595,-0.195,
2351,-0.58,-0.195,
2352,-0.57,-0.195,
2353,-0.575,-0.185,
2354,-0.555,-0.19,
2355,-0.565,-0.19,
2356,-0.57,-0.2,
2357,-0.57,-0.2,
2358,-0.57,-0.215,
2359,-0.58,-0.22,
2360,-0.58,-0.22,
2361,-0.585,-0.195,
2362,-0.58,-0.195,
2363,-0.565,-0.195,
2364,-0.56,-0.19,
2365,-0.555,-0.175,
2366,-0.555,-0.185,
2367,-0.55,-0.2,
2368,-0.55,-0.2,
2369,-0.55,-0.21,
2370,-0.555,-0.215,
2371,-0.575,-0.22,
2372,-0.58,-0.205,
2373,-0.57,-0.215,
2374,-0.56,-0.21,
2375,-0.565,-0.2,
2376,-0.555,-0.195,
2377,-0.545,-0.185,
2378,-0.545,-0.205,
2379,-0.55,-0.2,
2380,-0.55,-0.2,
2381,-0.57,-0.21,
2382,-0.565,-0.215,
2383,-0.565,-0.22,
2384,-0.575,-0.24,
2385,-0.58,-0.21,
2386,-0.565,-0.21,
2387,-0.56,-0.195,
2388,-0.56,-0.195,
2389,-0.55,-0.195,
2390,-0.555,-0.195,
2391,-0.55,-0.205,
2392,-0.55,-0.2,
2393,-0.54,-0.225,
2394,-0.545,-0.225,
2395,-0.555,-0.225,
2396,-0.555,-0.22,
2397,-0.565,-0.225,
2398,-0.545,-0.215,
2399,-0.535,-0.2,
2400,-0.54,-0.2,
2401,-0.54,-0.195,
2402,-0.525,-0.205,
2403,-0.525,-0.2,
2404,-0.53,-0.215,
2405,-0.53,-0.215,
2406,-0.53,-0.225,
2407,-0.54,-0.23,
2408,-0.545,-0.225,
2409,-0.535,-0.215,
2410,-0.535,-0.215,
2411,-0.515,-0.205,
2412,-0.51,-0.2,
2413,-0.5,-0.19,
2414,-0.515,-0.195,
2415,-0.495,-0.205,
2416,-0.49,-0.215,
2417,-0.5,-0.22,
2418,-0.51,-0.225,
2419,-0.51,-0.235,
2420,-0.515,-0.225,
2421,-0.51,-0.225,
2422,-0.505,-0.225,
2423,-0.485,-0.215,
2424,-0.485,-0.21,
2425,-0.475,-0.205,
2426,-0.465,-0.205,
2427,-0.48,-0.205,
2428,-0.465,-0.21,
2429,-0.47,-0.22,
2430,-0.475,-0.235,
2431,-0.48,-0.22,
2432,-0.48,-0.23,
2433,-0.465,-0.225,
2434,-0.465,-0.215,
2435,-0.455,-0.21,
2436,-0.45,-0.22,
2437,-0.45,-0.19,
2438,-0.42,-0.21,
2439,-0.425,-0.21,
2440,-0.42,-0.225,
2441,-0.435,-0.235,
2442,-0.435,-0.23,
2443,-0.44,-0.235,
2444,-0.45,-0.23,
2445,-0.42,-0.235,
2446,-0.425,-0.23,
2447,-0.41,-0.21,
2448,-0.415,-0.205,
2449,-0.405,-0.205,
2450,-0.4,-0.21,
2451,-0.395,-0.21,
2452,-0.395,-0.23,
2453,-0.415,-0.23,
2454,-0.41,-0.235,
2455,-0.42,-0.235,
2456,-0.41,-0.23,
2457,-0.42,-0.23,
2458,-0.415,-0.23,
2459,-0.4,-0.225,
2460,-0.39,-0.22,
2461,-0.375,-0.2,
2462,-0.385,-0.22,
2463,-0.385,-0.22,
2464,-0.405,-0.23,
2465,-0.42,-0.235,
2466,-0.43,-0.235,
2467,-0.45,-0.245,
2468,-0.455,-0.23,
2469,-0.475,-0.22,
2470,-0.485,-0.21,
2471,-0.49,-0.205,
2472,-0.51,-0.2,
2473,-0.515,-0.185,
2474,-0.515,-0.205,
2475,-0.535,-0.2,
2476,-0.55,-0.2,
2477,-0.57,-0.205,
2478,-0.59,-0.215,
2479,-0.595,-0.215,
2480,-0.615,-0.21,
2481,-0.62,-0.21,
2482,-0.625,-0.195,
2483,-0.61,-0.19,
2484,-0.62,-0.185,
2485,-0.62,-0.185,
2486,-0.615,-0.19,
2487,-0.625,-0.175,
2488,-0.645,-0.195,
2489,-0.655,-0.205,
2490,-0.655,-0.205,
2491,-0.665,-0.225,
2492,-0.665,-0.2,
2493,-0.665,-0.205,
2494,-0.65,-0.195,
2495,-0.655,-0.185,
2496,-0.65,-0.185,
2497,-0.635,-0.175,
2498,-0.645,-0.185,
2499,-0.64,-0.19,
2500,-0.65,-0.195,
2501,-0.65,-0.19,
2502,-0.65,-0.2,
2503,-0.66,-0.205,
2504,-0.655,-0.19,
2505,-0.64,-0.19,
2506,-0.635,-0.19,
2507,-0.63,-0.18,
2508,-0.62,-0.18,
2509,-0.605,-0.18,
2510,-0.605,-0.185,
2511,-0.6,-0.185,
2512,-0.595,-0.19,
2513,-0.6,-0.195,
2514,-0.61,-0.2,
2515,-0.61,-0.21,
2516,-0.605,-0.2,
2517,-0.6,-0.21,
2518,-0.595,-0.195,
2519,-0.585,-0.195,
2520,-0.575,-0.195,
2521,-0.57,-0.17,
2522,-0.57,-0.18,
2523,-0.56,-0.195,
2524,-0.56,-0.19,
2525,-0.57,-0.205,
2526,-0.57,-0.2,
2527,-0.58,-0.205,
2528,-0.57,-0.205,
2529,-0.575,-0.195,
2530,-0.565,-0.195,
2531,-0.575,-0.195,
2532,-0.56,-0.185,
2533,-0.55,-0.18,
2534,-0.54,-0.18,
2535,-0.55,-0.185,
2536,-0.555,-0.2,
2537,-0.575,-0.22,
2538,-0.565,-0.22,
2539,-0.58,-0.22,
2540,-0.58,-0.205,
2541,-0.57,-0.22,
2542,-0.575,-0.205,
2543,-0.575,-0.19,
2544,-0.575,-0.19,
2545,-0.565,-0.19,
2546,-0.565,-0.195,
2547,-0.57,-0.195,
2548,-0.57,-0.2,
2549,-0.58,-0.215,
2550,-0.585,-0.215,
2551,-0.59,-0.225,
2552,-0.6,-0.225,
2553,-0.61,-0.225,
2554,-0.595,-0.215,
2555,-0.595,-0.205,
2556,-0.585,-0.2,
2557,-0.585,-0.195,
2558,-0.57,-0.205,
2559,-0.58,-0.2,
2560,-0.585,-0.205,
2561,-0.6,-0.215,
2562,-0.6,-0.22,
2563,-0.595,-0.23,
2564,-0.6,-0.225,
2565,-0.605,-0.22,
2566,-0.6,-0.215,
2567,-0.595,-0.215,
2568,-0.59,-0.195,
2569,-0.59,-0.2,
2570,-0.58,-0.2,
2571,-0.595,-0.195,
2572,-0.59,-0.205,
2573,-0.6,-0.215,
2574,-0.61,-0.215,
2575,-0.61,-0.23,
2576,-0.6,-0.225,
2577,-0.61,-0.21,
2578,-0.605,-0.205,
2579,-0.595,-0.205,
2580,-0.585,-0.205,
2581,-0.57,-0.205,
2582,-0.58,-0.2,
2583,-0.59,-0.205,
2584,-0.595,-0.22,
2585,-0.6,-0.225,
2586,-0.59,-0.23,
2587,-0.61,-0.235,
2588,-0.61,-0.225,
2589,-0.605,-0.235,
2590,-0.6,-0.215,
2591,-0.6,-0.205,
2592,-0.595,-0.195,
2593,-0.59,-0.19,
2594,-0.58,-0.205,
2595,-0.575,-0.21,
2596,-0.585,-0.2,
2597,-0.585,-0.215,
2598,-0.58,-0.225,
2599,-0.58,-0.22,
2600,-0.59,-0.22,
2601,-0.59,-0.225,
2602,-0.575,-0.21,
2603,-0.58,-0.215,
2604,-0.565,-0.215,
2605,-0.56,-0.205,
2606,-0.56,-0.205,
2607,-0.565,-0.2,
2608,-0.55,-0.21,
2609,-0.565,-0.22,
2610,-0.56,-0.22,
2611,-0.575,-0.23,
2612,-0.565,-0.215,
2613,-0.57,-0.225,
2614,-0.57,-0.21,
2615,-0.565,-0.19,
2616,-0.56,-0.18,
2617,-0.555,-0.17,
2618,-0.555,-0.17,
2619,-0.545,-0.17,
2620,-0.54,-0.165,
2621,-0.535,-0.16,
2622,-0.53,-0.165,
2623,-0.535,-0.16,
2624,-0.525,-0.155,
2625,-0.52,-0.155,
2626,-0.51,-0.145,
2627,-0.5,-0.155,
2628,-0.475,-0.16,
2629,-0.455,-0.165,
2630,-0.44,-0.185,
2631,-0.425,-0.195,
2632,-0.425,-0.215,
2633,-0.415,-0.21,
2634,-0.415,-0.22,
2635,-0.41,-0.22,
2636,-0.42,-0.205,
2637,-0.41,-0.21,
2638,-0.42,-0.2,
2639,-0.425,-0.185,
2640,-0.415,-0.18,
2641,-0.415,-0.185,
2642,-0.415,-0.185,
2643,-0.415,-0.185,
2644,-0.415,-0.205,
2645,-0.415,-0.2,
2646,-0.41,-0.215,
2647,-0.43,-0.225,
2648,-0.435,-0.23,
2649,-0.46,-0.21,
2650,-0.445,-0.22,
2651,-0.455,-0.225,
2652,-0.46,-0.205,
2653,-0.475,-0.21,
2654,-0.48,-0.215,
2655,-0.485,-0.22,
2656,-0.51,-0.235,
2657,-0.51,-0.23,
2658,-0.505,-0.225,
2659,-0.545,-0.24,
2660,-0.535,-0.235,
2661,-0.515,-0.235,
2662,-0.525,-0.23,
2663,-0.515,-0.225,
2664,-0.515,-0.225,
2665,-0.505,-0.225,
2666,-0.505,-0.22,
2667,-0.51,-0.215,
2668,-0.515,-0.23,
2669,-0.53,-0.225,
2670,-0.53,-0.24,
2671,-0.535,-0.24,
2672,-0.535,-0.235,
2673,-0.535,-0.23,
2674,-0.535,-0.235,
2675,-0.535,-0.22,
2676,-0.52,-0.2,
2677,-0.51,-0.21,
2678,-0.515,-0.21,
2679,-0.51,-0.215,
2680,-0.495,-0.225,
2681,-0.5,-0.22,
2682,-0.515,-0.22,
2683,-0.495,-0.225,
2684,-0.495,-0.2,
2685,-0.48,-0.2,
2686,-0.47,-0.185,
2687,-0.45,-0.165,
2688,-0.44,-0.185,
2689,-0.425,-0.215,
2690,-0.41,-0.275,
2691,-0.37,-0.35,
2692,-0.31,-0.45,
2693,-0.21,-0.56,
2694,-0.055,-0.66,
2695,0.175,-0.71,
2696,0.47,-0.715,
2697,0.85,-0.68,
2698,1.24,-0.61,
2699,1.58,-0.51,N
2700,1.765,-0.41,
2701,1.735,-0.315,
2702,1.415,-0.26,
2703,0.86,-0.225,
2704,0.22,-0.23,
2705,-0.42,-0.26,
2706,-1.025,-0.295,
2707,-1.27,-0.325,
2708,-1.235,-0.315,
2709,-1.045,-0.285,
2710,-0.785,-0.245,
2711,-0.56,-0.205,
2712,-0.41,-0.16,
2713,-0.325,-0.13,
2714,-0.3,-0.13,
2715,-0.31,-0.145,
2716,-0.325,-0.145,
2717,-0.37,-0.16,
2718,-0.4,-0.18,
2719,-0.415,-0.185,
2720,-0.415,-0.175,
2721,-0.415,-0.16,
2722,-0.395,-0.16,
2723,-0.39,-0.15,
2724,-0.37,-0.14,
2725,-0.37,-0.15,
2726,-0.365,-0.145,
2727,-0.375,-0.145,
2728,-0.38,-0.16,
2729,-0.385,-0.17,
2730,-0.37,-0.17,
2731,-0.39,-0.175,
2732,-0.4,-0.185,
2733,-0.39,-0.175,
2734,-0.395,-0.155,
2735,-0.385,-0.16,
2736,-0.37,-0.145,
2737,-0.36,-0.15,
2738,-0.365,-0.155,
2739,-0.36,-0.16,
2740,-0.365,-0.16,
2741,-0.37,-0.165,
2742,-0.36,-0.175,
2743,-0.37,-0.185,
2744,-0.37,-0.185,
2745,-0.38,-0.175,
2746,-0.365,-0.175,
2747,-0.355,-0.165,
2748,-0.36,-0.165,
2749,-0.35,-0.14,
2750,-0.335,-0.16,
2751,-0.34,-0.16,
2752,-0.33,-0.165,
2753,-0.345,-0.175,
2754,-0.34,-0.185,
2755,-0.345,-0.175,
2756,-0.345,-0.185,
2757,-0.36,-0.185,
2758,-0.37,-0.18,
2759,-0.34,-0.165,
2760,-0.355,-0.16,
2761,-0.34,-0.16,
2762,-0.325,-0.17,
2763,-0.33,-0.17,
2764,-0.335,-0.175,
2765,-0.33,-0.185,
2766,-0.335,-0.19,
2767,-0.35,-0.195,
2768,-0.365,-0.185,
2769,-0.34,-0.185,
2770,-0.345,-0.185,
2771,-0.325,-0.175,
2772,-0.325,-0.17,
2773,-0.32,-0.165,
2774,-0.3,-0.17,
2775,-0.3,-0.175,
2776,-0.295,-0.18,
2777,-0.295,-0.19,
2778,-0.31,-0.19,
2779,-0.32,-0.2,
2780,-0.325,-0.19,
2781,-0.335,-0.185,
2782,-0.315,-0.185,
2783,-0.305,-0.185,
2784,-0.29,-0.18,
2785,-0.28,-0.165,
2786,-0.28,-0.17,
2787,-0.27,-0.18,
2788,-0.27,-0.18,
2789,-0.28,-0.18,
2790,-0.28,-0.195,
2791,-0.28,-0.2,
2792,-0.29,-0.205,
2793,-0.28,-0.195,
2794,-0.285,-0.185,
2795,-0.28,-0.185,
2796,-0.265,-0.18,
2797,-0.255,-0.165,
2798,-0.23,-0.17,
2799,-0.23,-0.18,
2800,-0.23,-0.19,
2801,-0.23,-0.195,
2802,-0.235,-0.2,
2803,-0.235,-0.2,
2804,-0.245,-0.205,
2805,-0.23,-0.195,
2806,-0.235,-0.195,
2807,-0.215,-0.195,
2808,-0.21,-0.185,
2809,-0.205,-0.19,
2810,-0.2,-0.18,
2811,-0.215,-0.195,
2812,-0.2,-0.19,
2813,-0.2,-0.205,
2814,-0.21,-0.19,
2815,-0.215,-0.205,
2816,-0.22,-0.21,
2817,-0.23,-0.205,
2818,-0.225,-0.21,
2819,-0.225,-0.195,
2820,-0.215,-0.2,
2821,-0.215,-0.195,
2822,-0.2,-0.2,
2823,-0.19,-0.2,
2824,-0.19,-0.195,
2825,-0.2,-0.215,
2826,-0.21,-0.225,
2827,-0.22,-0.22,
2828,-0.21,-0.22,
2829,-0.2,-0.215,
2830,-0.215,-0.21,
2831,-0.22,-0.2,
2832,-0.215,-0.195,
2833,-0.21,-0.185,
2834,-0.22,-0.195,
2835,-0.225,-0.19,
2836,-0.24,-0.205,
2837,-0.26,-0.21,
2838,-0.275,-0.21,
2839,-0.305,-0.205,
2840,-0.295,-0.195,
2841,-0.32,-0.185,
2842,-0.33,-0.185,
2843,-0.34,-0.165,
2844,-0.34,-0.155,
2845,-0.345,-0.16,
2846,-0.345,-0.16,
2847,-0.36,-0.18,
2848,-0.38,-0.17,
2849,-0.405,-0.17,
2850,-0.395,-0.185,
2851,-0.42,-0.175,
2852,-0.42,-0.19,
2853,-0.43,-0.175,
2854,-0.425,-0.18,
2855,-0.43,-0.18,
2856,-0.43,-0.17,
2857,-0.425,-0.165,
2858,-0.42,-0.165,
2859,-0.425,-0.17,
2860,-0.43,-0.17,
2861,-0.43,-0.18,
2862,-0.435,-0.19,
2863,-0.455,-0.185,
2864,-0.455,-0.185,
2865,-0.455,-0.185,
2866,-0.45,-0.17,
2867,-0.44,-0.165,
2868,-0.435,-0.16,
2869,-0.43,-0.15,
2870,-0.41,-0.15,
2871,-0.42,-0.17,
2872,-0.42,-0.17,
2873,-0.43,-0.18,
2874,-0.425,-0.19,
2875,-0.44,-0.185,
2876,-0.445,-0.19,
2877,-0.435,-0.185,
2878,-0.43,-0.17,
2879,-0.425,-0.16,
2880,-0.42,-0.155,
2881,-0.41,-0.155,
2882,-0.4,-0.16,
2883,-0.4,-0.165,
2884,-0.395,-0.17,
2885,-0.405,-0.18,
2886,-0.405,-0.185,
2887,-0.41,-0.195,
2888,-0.395,-0.185,
2889,-0.4,-0.2,
2890,-0.395,-0.175,
2891,-0.4,-0.17,
2892,-0.395,-0.17,
2893,-0.39,-0.16,
2894,-0.375,-0.17,
2895,-0.38,-0.17,
2896,-0.38,-0.17,
2897,-0.39,-0.175,
2898,-0.395,-0.19,
2899,-0.39,-0.205,
2900,-0.405,-0.195,
2901,-0.39,-0.2,
2902,-0.39,-0.18,
2903,-0.395,-0.185,
2904,-0.39,-0.18,
2905,-0.39,-0.185,
2906,-0.395,-0.18,
2907,-0.38,-0.175,
2908,-0.4,-0.19,
2909,-0.4,-0.2,
2910,-0.4,-0.195,
2911,-0.415,-0.205,
2912,-0.42,-0.205,
2913,-0.43,-0.2,
2914,-0.415,-0.195,
2915,-0.415,-0.195,
2916,-0.41,-0.195,
2917,-0.405,-0.185,
2918,-0.395,-0.185,
2919,-0.4,-0.185,
2920,-0.405,-0.195,
2921,-0.41,-0.2,
2922,-0.415,-0.215,
2923,-0.425,-0.215,
2924,-0.435,-0.215,
2925,-0.435,-0.205,
2926,-0.425,-0.205,
2927,-0.415,-0.19,
2928,-0.415,-0.185,
2929,-0.41,-0.185,
2930,-0.41,-0.18,
2931,-0.42,-0.195,
2932,-0.405,-0.2,
2933,-0.415,-0.205,
2934,-0.425,-0.215,
2935,-0.435,-0.215,
2936,-0.445,-0.215,
2937,-0.44,-0.2,
2938,-0.435,-0.205,
2939,-0.435,-0.195,
2940,-0.425,-0.185,
2941,-0.45,-0.185,
2942,-0.43,-0.18,
2943,-0.415,-0.2,
2944,-0.415,-0.2,
2945,-0.42,-0.21,
2946,-0.435,-0.21,
2947,-0.44,-0.21,
2948,-0.45,-0.215,
2949,-0.46,-0.2,
2950,-0.445,-0.2,
2951,-0.44,-0.195,
2952,-0.43,-0.21,
2953,-0.43,-0.185,
2954,-0.415,-0.2,
2955,-0.425,-0.19,
2956,-0.42,-0.19,
2957,-0.435,-0.205,
2958,-0.43,-0.215,
2959,-0.45,-0.22,
2960,-0.455,-0.215,
2961,-0.45,-0.205,
2962,-0.445,-0.205,
2963,-0.44,-0.205,
2964,-0.435,-0.205,
2965,-0.43,-0.195,
2966,-0.425,-0.2,
2967,-0.43,-0.2,
2968,-0.44,-0.195,
2969,-0.435,-0.205,
2970,-0.445,-0.22,
2971,-0.435,-0.215,
2972,-0.46,-0.225,
2973,-0.45,-0.21,
2974,-0.455,-0.21,
2975,-0.455,-0.205,
2976,-0.45,-0.2,
2977,-0.435,-0.18,
2978,-0.43,-0.195,
2979,-0.44,-0.195,
2980,-0.445,-0.2,
2981,-0.44,-0.215,
2982,-0.44,-0.215,
2983,-0.455,-0.21,
2984,-0.455,-0.205,
2985,-0.46,-0.195,
2986,-0.445,-0.185,
2987,-0.435,-0.155,
2988,-0.425,-0.145,
2989,-0.41,-0.135,
2990,-0.405,-0.13,
2991,-0.4,-0.13,
2992,-0.38,-0.14,
2993,-0.38,-0.135,
2994,-0.38,-0.145,
2995,-0.38,-0.155,
2996,-0.36,-0.18,
2997,-0.345,-0.185,
2998,-0.345,-0.195,
2999,-0.325,-0.195,
3000,-0.305,-0.2,
3001,-0.305,-0.205,
3002,-0.295,-0.2,
3003,-0.28,-0.195,
3004,-0.28,-0.19,
3005,-0.285,-0.19,
3006,-0.29,-0.19,
3007,-0.32,-0.2,
3008,-0.32,-0.195,
3009,-0.33,-0.205,
3010,-0.33,-0.185,
3011,-0.32,-0.185,
3012,-0.315,-0.185,
3013,-0.3,-0.185,
3014,-0.305,-0.19,
3015,-0.32,-0.195,
3016,-0.335,-0.21,
3017,-0.345,-0.215,
3018,-0.37,-0.215,
3019,-0.39,-0.23,
3020,-0.41,-0.235,
3021,-0.43,-0.23,
3022,-0.44,-0.22,
3023,-0.44,-0.225,
3024,-0.44,-0.225,
3025,-0.425,-0.21,
3026,-0.42,-0.215,
3027,-0.425,-0.215,
3028,-0.425,-0.22,
3029,-0.425,-0.225,
3030,-0.435,-0.235,
3031,-0.445,-0.245,
3032,-0.455,-0.24,
3033,-0.465,-0.225,
3034,-0.465,-0.23,
3035,-0.455,-0.22,
3036,-0.455,-0.21,
3037,-0.44,-0.2,
3038,-0.435,-0.2,
3039,-0.43,-0.22,
3040,-0.43,-0.215,
3041,-0.44,-0.225,
3042,-0.44,-0.23,
3043,-0.455,-0.23,
3044,-0.45,-0.23,
3045,-0.46,-0.23,
3046,-0.445,-0.215,
3047,-0.435,-0.21,
3048,-0.42,-0.195,
3049,-0.405,-0.195,
3050,-0.4,-0.17,
3051,-0.4,-0.175,
3052,-0.39,-0.155,
3053,-0.385,-0.17,
3054,-0.38,-0.18,
3055,-0.38,-0.21,
3056,-0.37,-0.265,
3057,-0.34,-0.335,
3058,-0.29,-0.43,
3059,-0.185,-0.53,
3060,-0.03,-0.615,
3061,0.2,-0.665,
3062,0.51,-0.675,
3063,0.875,-0.665,
3064,1.27,-0.61,
3065,1.6,-0.52,N
3066,1.79,-0.43,
3067,1.8,-0.335,
3068,1.59,-0.27,
3069,1.145,-0.235,
3070,0.545,-0.2,
3071,-0.095,-0.22,
3072,-0.715,-0.235,
3073,-1.09,-0.255,
3074,-1.21,-0.27,
3075,-1.13,-0.275,
3076,-0.92,-0.245,
3077,-0.68,-0.215,
3078,-0.475,-0.175,
3079,-0.34,-0.16,
3080,-0.28,-0.155,
3081,-0.28,-0.135,
3082,-0.295,-0.145,
3083,-0.325,-0.15,
3084,-0.36,-0.14,
3085,-0.375,-0.15,
3086,-0.375,-0.14,
3087,-0.385,-0.145,
3088,-0.375,-0.14,
3089,-0.375,-0.15,
3090,-0.36,-0.15,
3091,-0.375,-0.16,
3092,-0.37,-0.155,
3093,-0.37,-0.15,
3094,-0.36,-0.155,
3095,-0.35,-0.145,
3096,-0.35,-0.14,
3097,-0.345,-0.135,
3098,-0.345,-0.135,
3099,-0.345,-0.14,
3100,-0.34,-0.135,
3101,-0.355,-0.15,
3102,-0.355,-0.155,
3103,-0.36,-0.16,
3104,-0.375,-0.16,
3105,-0.36,-0.155,
3106,-0.355,-0.15,
3107,-0.355,-0.145,
3108,-0.34,-0.14,
3109,-0.335,-0.135,
3110,-0.33,-0.13,
3111,-0.335,-0.145,
3112,-0.345,-0.16,
3113,-0.34,-0.16,
3114,-0.345,-0.155,
3115,-0.35,-0.17,
3116,-0.35,-0.16,
3117,-0.35,-0.165,
3118,-0.35,-0.155,
3119,-0.35,-0.155,
3120,-0.345,-0.15,
3121,-0.34,-0.13,
3122,-0.335,-0.14,
3123,-0.35,-0.135,
3124,-0.335,-0.145,
3125,-0.355,-0.155,
3126,-0.34,-0.155,
3127,-0.37,-0.17,
3128,-0.36,-0.175,
3129,-0.36,-0.165,
3130,-0.35,-0.155,
3131,-0.335,-0.16,
3132,-0.345,-0.15,
3133,-0.35,-0.145,
3134,-0.335,-0.135,
3135,-0.325,-0.15,
3136,-0.33,-0.155,
3137,-0.335,-0.17,
3138,-0.335,-0.17,
3139,-0.34,-0.175,
3140,-0.35,-0.18,
3141,-0.345,-0.17,
3142,-0.34,-0.165,
3143,-0.34,-0.16,
3144,-0.335,-0.15,
3145,-0.33,-0.155,
3146,-0.31,-0.14,
3147,-0.31,-0.165,
3148,-0.335,-0.165,
3149,-0.335,-0.17,
3150,-0.33,-0.175,
3151,-0.325,-0.175,
3152,-0.335,-0.18,
3153,-0.335,-0.18,
3154,-0.34,-0.17,
3155,-0.33,-0.16,
3156,-0.32,-0.155,
3157,-0.315,-0.155,
3158,-0.295,-0.145,
3159,-0.29,-0.155,
3160,-0.285,-0.165,
3161,-0.295,-0.17,
3162,-0.295,-0.18,
3163,-0.285,-0.18,
3164,-0.295,-0.165,
3165,-0.305,-0.17,
3166,-0.295,-0.165,
3167,-0.28,-0.16,
3168,-0.275,-0.15,
3169,-0.27,-0.16,
3170,-0.275,-0.17,
3171,-0.28,-0.17,
3172,-0.27,-0.165,
3173,-0.265,-0.185,
3174,-0.265,-0.175,
3175,-0.275,-0.19,
3176,-0.28,-0.185,
3177,-0.275,-0.19,
3178,-0.275,-0.19,
3179,-0.26,-0.18,
3180,-0.255,-0.175,
3181,-0.245,-0.17,
3182,-0.245,-0.175,
3183,-0.23,-0.18,
3184,-0.25,-0.18,
3185,-0.245,-0.19,
3186,-0.26,-0.185,
3187,-0.255,-0.2,
3188,-0.275,-0.195,
3189,-0.27,-0.19,
3190,-0.265,-0.19,
3191,-0.27,-0.19,
3192,-0.255,-0.185,
3193,-0.25,-0.17,
3194,-0.245,-0.175,
3195,-0.255,-0.18,
3196,-0.26,-0.19,
3197,-0.265,-0.195,
3198,-0.26,-0.205,
3199,-0.255,-0.2,
3200,-0.265,-0.21,
3201,-0.275,-0.195,
3202,-0.28,-0.195,
3203,-0.28,-0.175,
3204,-0.29,-0.15,
3205,-0.295,-0.15,
3206,-0.31,-0.15,
3207,-0.33,-0.155,
3208,-0.335,-0.155,
3209,-0.36,-0.165,
3210,-0.39,-0.165,
3211,-0.405,-0.165,
3212,-0.415,-0.17,
3213,-0.43,-0.165,
3214,-0.435,-0.155,
3215,-0.45,-0.145,
3216,-0.46,-0.14,
3217,-0.46,-0.13,
3218,-0.465,-0.14,
3219,-0.465,-0.14,
3220,-0.465,-0.135,
3221,-0.49,-0.14,
3222,-0.505,-0.155,
3223,-0.505,-0.165,
3224,-0.52,-0.155,
3225,-0.515,-0.15,
3226,-0.515,-0.16,
3227,-0.515,-0.13,
3228,-0.505,-0.14,
3229,-0.5,-0.13,
3230,-0.495,-0.125,
3231,-0.505,-0.135,
3232,-0.505,-0.125,
3233,-0.51,-0.145,
3234,-0.525,-0.145,
3235,-0.52,-0.155,
3236,-0.525,-0.155,
3237,-0.53,-0.145,
3238,-0.53,-0.14,
3239,-0.52,-0.125,
3240,-0.515,-0.135,
3241,-0.51,-0.13,
3242,-0.5,-0.125,
3243,-0.495,-0.125,
3244,-0.495,-0.13,
3245,-0.5,-0.15,
3246,-0.505,-0.16,
3247,-0.515,-0.15,
3248,-0.51,-0.16,
3249,-0.505,-0.145,
3250,-0.505,-0.15,
3251,-0.49,-0.14,
3252,-0.505,-0.14,
3253,-0.495,-0.145,
3254,-0.47,-0.12,
3255,-0.475,-0.135,
3256,-0.47,-0.15,
3257,-0.485,-0.15,
3258,-0.49,-0.16,
3259,-0.49,-0.15,
3260,-0.495,-0.16,
3261,-0.49,-0.165,
3262,-0.495,-0.15,
3263,-0.49,-0.145,
3264,-0.48,-0.145,
3265,-0.47,-0.135,
3266,-0.47,-0.14,
3267,-0.475,-0.15,
3268,-0.46,-0.145,
3269,-0.465,-0.16,
3270,-0.47,-0.165,
3271,-0.495,-0.175,
3272,-0.5,-0.18,
3273,-0.495,-0.165,
3274,-0.5,-0.16,
3275,-0.5,-0.16,
3276,-0.495,-0.145,
3277,-0.5,-0.15,
3278,-0.48,-0.14,
3279,-0.49,-0.16,
3280,-0.495,-0.15,
3281,-0.515,-0.155,
3282,-0.53,-0.175,
3283,-0.54,-0.18,
3284,-0.535,-0.175,
3285,-0.535,-0.17,
3286,-0.53,-0.17,
3287,-0.53,-0.165,
3288,-0.52,-0.155,
3289,-0.525,-0.145,
3290,-0.505,-0.155,
3291,-0.505,-0.155,
3292,-0.52,-0.155,
3293,-0.53,-0.165,
3294,-0.53,-0.185,
3295,-0.53,-0.19,
3296,-0.54,-0.19,
3297,-0.545,-0.185,
3298,-0.545,-0.18,
3299,-0.54,-0.17,
3300,-0.535,-0.17,
3301,-0.54,-0.15,
3302,-0.53,-0.155,
3303,-0.535,-0.165,
3304,-0.54,-0.18,
3305,-0.54,-0.175,
3306,-0.54,-0.185,
3307,-0.545,-0.185,
3308,-0.555,-0.185,
3309,-0.555,-0.17,
3310,-0.555,-0.18,
3311,-0.55,-0.165,
3312,-0.54,-0.165,
3313,-0.555,-0.165,
3314,-0.545,-0.15,
3315,-0.555,-0.155,
3316,-0.555,-0.155,
3317,-0.565,-0.17,
3318,-0.565,-0.175,
3319,-0.57,-0.175,
3320,-0.59,-0.17,
3321,-0.57,-0.155,
3322,-0.565,-0.145,
3323,-0.555,-0.125,
3324,-0.54,-0.11,
3325,-0.525,-0.11,
3326,-0.505,-0.1,
3327,-0.5,-0.1,
3328,-0.49,-0.105,
3329,-0.49,-0.11,
3330,-0.49,-0.12,
3331,-0.495,-0.15,
3332,-0.495,-0.16,
3333,-0.49,-0.17,
3334,-0.48,-0.17,
3335,-0.46,-0.175,
3336,-0.445,-0.18,
3337,-0.42,-0.165,
3338,-0.415,-0.135,
3339,-0.4,-0.14,
3340,-0.405,-0.15,
3341,-0.42,-0.145,
3342,-0.44,-0.155,
3343,-0.45,-0.17,
3344,-0.435,-0.17,
3345,-0.455,-0.165,
3346,-0.43,-0.175,
3347,-0.425,-0.16,
3348,-0.425,-0.155,
3349,-0.415,-0.155,
3350,-0.41,-0.16,
3351,-0.415,-0.165,
3352,-0.42,-0.165,
3353,-0.455,-0.185,
3354,-0.48,-0.185,
3355,-0.52,-0.2,
3356,-0.535,-0.19,
3357,-0.55,-0.19,
3358,-0.565,-0.19,
3359,-0.57,-0.19,
3360,-0.57,-0.175,
3361,-0.56,-0.185,
3362,-0.55,-0.17,
3363,-0.54,-0.185,
3364,-0.54,-0.175,
3365,-0.56,-0.195,
3366,-0.565,-0.2,
3367,-0.575,-0.2,
3368,-0.58,-0.205,
3369,-0.595,-0.195,
3370,-0.59,-0.185,
3371,-0.59,-0.18,
3372,-0.59,-0.18,
3373,-0.575,-0.18,
3374,-0.58,-0.16,
3375,-0.575,-0.185,
3376,-0.585,-0.175,
3377,-0.595,-0.18,
3378,-0.6,-0.19,
3379,-0.605,-0.195,
3380,-0.595,-0.195,
3381,-0.6,-0.195,
3382,-0.585,-0.18,
3383,-0.59,-0.18,
3384,-0.58,-0.18,
3385,-0.57,-0.17,
3386,-0.555,-0.175,
3387,-0.56,-0.18,
3388,-0.545,-0.165,
3389,-0.545,-0.175,
3390,-0.545,-0.17,
3391,-0.555,-0.17,
3392,-0.54,-0.155,
3393,-0.55,-0.15,
3394,-0.535,-0.165,
3395,-0.525,-0.18,
3396,-0.505,-0.225,
3397,-0.48,-0.27,
3398,-0.445,-0.345,
3399,-0.365,-0.435,
3400,-0.255,-0.53,
3401,-0.085,-0.605,
3402,0.165,-0.635,
3403,0.495,-0.62,
3404,0.875,-0.57,
3405,1.24,-0.485,
3406,1.54,-0.4,N
3407,1.71,-0.3,
3408,1.655,-0.215,
3409,1.365,-0.175,
3410,0.855,-0.14,
3411,0.215,-0.14,
3412,-0.425,-0.15,
3413,-1.015,-0.185,
3414,-1.325,-0.205,
3415,-1.37,-0.225,
3416,-1.21,-0.245,
3417,-0.975,-0.235,
3418,-0.745,-0.225,
3419,-0.57,-0.175,
3420,-0.465,-0.155,
3421,-0.415,-0.12,
3422,-0.415,-0.11,
3423,-0.445,-0.125,
3424,-0.475,-0.125,
3425,-0.495,-0.145,
3426,-0.5,-0.155,
3427,-0.51,-0.155,
3428,-0.52,-0.16,
3429,-0.52,-0.155,
3430,-0.52,-0.155,
3431,-0.515,-0.145,
3432,-0.495,-0.135,
3433,-0.49,-0.14,
3434,-0.48,-0.13,
3435,-0.475,-0.14,
3436,-0.48,-0.145,
3437,-0.485,-0.145,
3438,-0.49,-0.16,
3439,-0.5,-0.16,
3440,-0.495,-0.17,
3441,-0.5,-0.17,
3442,-0.495,-0.155,
3443,-0.49,-0.155,
3444,-0.485,-0.15,
3445,-0.47,-0.15,
3446,-0.46,-0.135,
3447,-0.47,-0.14,
3448,-0.47,-0.15,
3449,-0.47,-0.155,
3450,-0.475,-0.16,
3451,-0.475,-0.155,
3452,-0.49,-0.175,
3453,-0.485,-0.16,
3454,-0.49,-0.165,
3455,-0.475,-0.16,
3456,-0.475,-0.15,
3457,-0.465,-0.15,
3458,-0.455,-0.15,
3459,-0.46,-0.15,
3460,-0.47,-0.16,
3461,-0.475,-0.16,
3462,-0.485,-0.165,
3463,-0.48,-0.18,
3464,-0.495,-0.18,
3465,-0.505,-0.175,
3466,-0.49,-0.18,
3467,-0.495,-0.165,
3468,-0.48,-0.16,
3469,-0.475,-0.155,
3470,-0.485,-0.165,
3471,-0.475,-0.155,
3472,-0.455,-0.165,
3473,-0.46,-0.17,
3474,-0.47,-0.17,
3475,-0.48,-0.18,
3476,-0.48,-0.19,
3477,-0.48,-0.18,
3478,-0.49,-0.185,
3479,-0.475,-0.17,
3480,-0.47,-0.17,
3481,-0.46,-0.145,
3482,-0.45,-0.15,
3483,-0.455,-0.165,
3484,-0.45,-0.17,
3485,-0.46,-0.175,
3486,-0.46,-0.18,
3487,-0.46,-0.185,
3488,-0.47,-0.19,
3489,-0.47,-0.175,
3490,-0.475,-0.175,
3491,-0.46,-0.165,
3492,-0.455,-0.17,
3493,-0.45,-0.165,
3494,-0.445,-0.16,
3495,-0.425,-0.165,
3496,-0.43,-0.165,
3497,-0.44,-0.175,
3498,-0.435,-0.185,
3499,-0.435,-0.19,
3500,-0.435,-0.195,
3501,-0.445,-0.185,
3502,-0.435,-0.19,
3503,-0.42,-0.175,
3504,-0.42,-0.175,
3505,-0.4,-0.16,
3506,-0.39,-0.165,
3507,-0.39,-0.17,
3508,-0.39,-0.175,
3509,-0.4,-0.18,
3510,-0.405,-0.19,
3511,-0.41,-0.205,
3512,-0.41,-0.205,
3513,-0.405,-0.2,
3514,-0.405,-0.195,
3515,-0.395,-0.185,
3516,-0.38,-0.18,
3517,-0.38,-0.185,
3518,-0.365,-0.175,
3519,-0.355,-0.185,
3520,-0.365,-0.195,
3521,-0.37,-0.205,
3522,-0.365,-0.195,
3523,-0.375,-0.21,
3524,-0.37,-0.22,
3525,-0.375,-0.21,
3526,-0.365,-0.21,
3527,-0.36,-0.2,
3528,-0.345,-0.2,
3529,-0.34,-0.195,
3530,-0.345,-0.2,
3531,-0.34,-0.195,
3532,-0.345,-0.205,
3533,-0.35,-0.22,
3534,-0.36,-0.215,
3535,-0.36,-0.215,
3536,-0.37,-0.22,
3537,-0.385,-0.22,
3538,-0.365,-0.205,
3539,-0.37,-0.2,
3540,-0.355,-0.2,
3541,-0.355,-0.18,
3542,-0.36,-0.175,
3543,-0.365,-0.185,
3544,-0.375,-0.195,
3545,-0.385,-0.18,
3546,-0.41,-0.175,
3547,-0.44,-0.19,
3548,-0.465,-0.18,
3549,-0.47,-0.18,
3550,-0.48,-0.17,
3551,-0.485,-0.16,
3552,-0.5,-0.15,
3553,-0.515,-0.15,
3554,-0.525,-0.135,
3555,-0.55,-0.15,
3556,-0.56,-0.145,
3557,-0.575,-0.155,
3558,-0.59,-0.155,
3559,-0.595,-0.16,
3560,-0.605,-0.175,
3561,-0.625,-0.165,
3562,-0.625,-0.155,
3563,-0.615,-0.15,
3564,-0.62,-0.14,
3565,-0.635,-0.145,
3566,-0.63,-0.145,
3567,-0.625,-0.135,
3568,-0.625,-0.14,
3569,-0.635,-0.145,
3570,-0.64,-0.155,
3571,-0.66,-0.165,
3572,-0.65,-0.165,
3573,-0.655,-0.145,
3574,-0.64,-0.15,
3575,-0.63,-0.15,
3576,-0.63,-0.145,
3577,-0.625,-0.135,
3578,-0.615,-0.13,
3579,-0.62,-0.145,
3580,-0.61,-0.135,
3581,-0.625,-0.15,
3582,-0.625,-0.15,
3583,-0.63,-0.165,
3584,-0.63,-0.165,
3585,-0.63,-0.17,
3586,-0.63,-0.155,
3587,-0.62,-0.155,
3588,-0.615,-0.15,
3589,-0.615,-0.135,
3590,-0.6,-0.14,
3591,-0.585,-0.145,
3592,-0.585,-0.145,
3593,-0.58,-0.16,
3594,-0.605,-0.17,
3595,-0.6,-0.17,
3596,-0.605,-0.175,
3597,-0.605,-0.17,
3598,-0.61,-0.17,
3599,-0.595,-0.165,
3600,-0.58,-0.16,
3601,-0.57,-0.165,
3602,-0.565,-0.16,
3603,-0.565,-0.155,
3604,-0.58,-0.17,
3605,-0.575,-0.165,
3606,-0.585,-0.165,
3607,-0.59,-0.185,
3608,-0.6,-0.195,
3609,-0.6,-0.19,
3610,-0.6,-0.18,
3611,-0.605,-0.175,
3612,-0.6,-0.17,
3613,-0.595,-0.16,
3614,-0.585,-0.155,
3615,-0.59,-0.17,
3616,-0.59,-0.18,
3617,-0.59,-0.18,
3618,-0.605,-0.19,
3619,-0.605,-0.21,
3620,-0.63,-0.195,
3621,-0.64,-0.195,
3622,-0.635,-0.2,
3623,-0.62,-0.175,
3624,-0.62,-0.18,
3625,-0.605,-0.16,
3626,-0.615,-0.165,
3627,-0.61,-0.17,
3628,-0.61,-0.18,
3629,-0.61,-0.19,
3630,-0.63,-0.185,
3631,-0.63,-0.2,
3632,-0.65,-0.195,
3633,-0.64,-0.185,
3634,-0.655,-0.185,
3635,-0.635,-0.19,
3636,-0.64,-0.19,
3637,-0.65,-0.17,
3638,-0.63,-0.17,
3639,-0.62,-0.185,
3640,-0.625,-0.17,
3641,-0.63,-0.185,
3642,-0.63,-0.2,
3643,-0.645,-0.2,
3644,-0.655,-0.2,
3645,-0.66,-0.185,
3646,-0.665,-0.18,
3647,-0.64,-0.17,
3648,-0.63,-0.165,
3649,-0.625,-0.16,
3650,-0.63,-0.145,
3651,-0.615,-0.145,
3652,-0.61,-0.14,
3653,-0.61,-0.155,
3654,-0.62,-0.155,
3655,-0.615,-0.14,
3656,-0.615,-0.145,
3657,-0.605,-0.14,
3658,-0.605,-0.13,
3659,-0.585,-0.13,
3660,-0.565,-0.135,
3661,-0.54,-0.14,
3662,-0.52,-0.145,
3663,-0.51,-0.17,
3664,-0.505,-0.18,
3665,-0.51,-0.19,
3666,-0.49,-0.195,
3667,-0.495,-0.195,
3668,-0.505,-0.195,
3669,-0.51,-0.195,
3670,-0.53,-0.175,
3671,-0.53,-0.185,
3672,-0.52,-0.17,
3673,-0.495,-0.165,
3674,-0.495,-0.16,
3675,-0.48,-0.165,
3676,-0.485,-0.165,
3677,-0.49,-0.19,
3678,-0.51,-0.2,
3679,-0.515,-0.205,
3680,-0.525,-0.215,
3681,-0.545,-0.215,
3682,-0.565,-0.205,
3683,-0.57,-0.215,
3684,-0.585,-0.205,
3685,-0.595,-0.2,
3686,-0.62,-0.185,
3687,-0.625,-0.2,
3688,-0.63,-0.225,
3689,-0.655,-0.225,
3690,-0.65,-0.215,
3691,-0.645,-0.225,
3692,-0.66,-0.23,
3693,-0.655,-0.235,
3694,-0.64,-0.225,
3695,-0.65,-0.215,
3696,-0.665,-0.225,
3697,-0.655,-0.21,
3698,-0.645,-0.195,
3699,-0.645,-0.215,
3700,-0.65,-0.21,
3701,-0.655,-0.215,
3702,-0.66,-0.225,
3703,-0.69,-0.225,
3704,-0.675,-0.23,
3705,-0.685,-0.225,
3706,-0.665,-0.21,
3707,-0.675,-0.21,
3708,-0.675,-0.215,
3709,-0.665,-0.2,
3710,-0.64,-0.205,
3711,-0.645,-0.21,
3712,-0.645,-0.19,
3713,-0.65,-0.21,
3714,-0.645,-0.22,
3715,-0.65,-0.22,
3716,-0.65,-0.22,
3717,-0.65,-0.215,
3718,-0.645,-0.22,
3719,-0.645,-0.2,
3720,-0.625,-0.19,
3721,-0.62,-0.175,
3722,-0.59,-0.15,
3723,-0.585,-0.155,
3724,-0.58,-0.165,
3725,-0.57,-0.18,
3726,-0.58,-0.225,
3727,-0.565,-0.28,
3728,-0.535,-0.33,
3729,-0.485,-0.4,
3730,-0.43,-0.465,
3731,-0.3,-0.54,
3732,-0.13,-0.6,
3733,0.105,-0.655,
3734,0.41,-0.67,
3735,0.76,-0.655,
3736,1.14,-0.615,
3737,1.47,-0.545,N
3738,1.685,-0.47,
3739,1.715,-0.39,
3740,1.5,-0.33,
3741,1.075,-0.275,
3742,0.455,-0.255,
3743,-0.185,-0.24,
3744,-0.825,-0.25,
3745,-1.32,-0.26,
3746,-1.455,-0.28,
3747,-1.35,-0.295,
3748,-1.125,-0.27,
3749,-0.875,-0.25,
3750,-0.685,-0.21,
3751,-0.55,-0.185,
3752,-0.495,-0.165,
3753,-0.475,-0.17,
3754,-0.495,-0.165,
3755,-0.52,-0.155,
3756,-0.565,-0.155,
3757,-0.585,-0.16,
3758,-0.585,-0.15,
3759,-0.565,-0.17,
3760,-0.555,-0.15,
3761,-0.56,-0.16,
3762,-0.565,-0.165,
3763,-0.555,-0.18,
3764,-0.57,-0.19,
3765,-0.565,-0.185,
3766,-0.57,-0.175,
3767,-0.565,-0.16,
3768,-0.555,-0.16,
3769,-0.55,-0.16,
3770,-0.545,-0.145,
3771,-0.54,-0.165,
3772,-0.535,-0.165,
3773,-0.53,-0.175,
3774,-0.54,-0.17,
3775,-0.535,-0.18,
3776,-0.555,-0.18,
3777,-0.555,-0.18,
3778,-0.545,-0.185,
3779,-0.54,-0.18,
3780,-0.535,-0.16,
3781,-0.525,-0.16,
3782,-0.525,-0.155,
3783,-0.525,-0.17,
3784,-0.535,-0.165,
3785,-0.525,-0.17,
3786,-0.54,-0.17,
3787,-0.54,-0.19,
3788,-0.55,-0.2,
3789,-0.55,-0.2,
3790,-0.545,-0.195,
3791,-0.54,-0.185,
3792,-0.535,-0.17,
3793,-0.53,-0.17,
3794,-0.515,-0.165,
3795,-0.505,-0.165,
3796,-0.52,-0.18,
3797,-0.52,-0.18,
3798,-0.515,-0.18,
3799,-0.52,-0.185,
3800,-0.515,-0.19,
3801,-0.53,-0.19,
3802,-0.525,-0.195,
3803,-0.515,-0.19,
3804,-0.515,-0.175,
3805,-0.51,-0.17,
3806,-0.485,-0.16,
3807,-0.495,-0.17,
3808,-0.5,-0.18,
3809,-0.5,-0.185,
3810,-0.515,-0.18,
3811,-0.505,-0.195,
3812,-0.51,-0.195,
3813,-0.51,-0.205,
3814,-0.5,-0.18,
3815,-0.505,-0.195,
3816,-0.49,-0.18,
3817,-0.485,-0.18,
3818,-0.48,-0.175,
3819,-0.48,-0.175,
3820,-0.475,-0.185,
3821,-0.475,-0.185,
3822,-0.48,-0.2,
3823,-0.475,-0.19,
3824,-0.485,-0.205,
3825,-0.495,-0.2,
3826,-0.505,-0.21,
3827,-0.475,-0.2,
3828,-0.47,-0.18,
3829,-0.46,-0.185,
3830,-0.455,-0.175,
3831,-0.45,-0.19,
3832,-0.455,-0.18,
3833,-0.445,-0.195,
3834,-0.445,-0.19,
3835,-0.455,-0.2,
3836,-0.46,-0.205,
3837,-0.455,-0.205,
3838,-0.44,-0.21,
3839,-0.44,-0.19,
3840,-0.425,-0.185,
3841,-0.41,-0.18,
3842,-0.395,-0.17,
3843,-0.395,-0.17,
3844,-0.385,-0.185,
3845,-0.385,-0.195,
3846,-0.39,-0.205,
3847,-0.39,-0.205,
3848,-0.385,-0.2,
3849,-0.4,-0.21,
3850,-0.395,-0.205,
3851,-0.38,-0.21,
3852,-0.37,-0.2,
3853,-0.355,-0.195,
3854,-0.35,-0.18,
3855,-0.34,-0.19,
3856,-0.36,-0.19,
3857,-0.355,-0.205,
3858,-0.35,-0.215,
3859,-0.365,-0.21,
3860,-0.37,-0.225,
3861,-0.365,-0.22,
3862,-0.36,-0.215,
3863,-0.345,-0.21,
3864,-0.34,-0.2,
3865,-0.345,-0.2,
3866,-0.325,-0.19,
3867,-0.33,-0.205,
3868,-0.325,-0.195,
3869,-0.335,-0.205,
3870,-0.34,-0.21,
3871,-0.34,-0.225,
3872,-0.36,-0.23,
3873,-0.37,-0.215,
3874,-0.375,-0.2,
3875,-0.38,-0.195,
3876,-0.38,-0.195,
3877,-0.4,-0.19,
3878,-0.395,-0.185,
3879,-0.405,-0.185,
3880,-0.43,-0.19,
3881,-0.46,-0.185,
3882,-0.48,-0.2,
3883,-0.495,-0.195,
3884,-0.52,-0.2,
3885,-0.53,-0.2,
3886,-0.555,-0.19,
3887,-0.57,-0.185,
3888,-0.58,-0.165,
3889,-0.585,-0.16,
3890,-0.59,-0.165,
3891,-0.59,-0.165,
3892,-0.61,-0.175,
3893,-0.615,-0.185,
3894,-0.625,-0.185,
3895,-0.63,-0.195,
3896,-0.655,-0.19,
3897,-0.66,-0.19,
3898,-0.665,-0.175,
3899,-0.65,-0.185,
3900,-0.65,-0.17,
3901,-0.65,-0.17,
3902,-0.64,-0.145,
3903,-0.65,-0.16,
3904,-0.65,-0.165,
3905,-0.65,-0.175,
3906,-0.66,-0.18,
3907,-0.665,-0.195,
3908,-0.66,-0.19,
3909,-0.665,-0.19,
3910,-0.65,-0.18,
3911,-0.66,-0.175,
3912,-0.65,-0.18,
3913,-0.645,-0.16,
3914,-0.64,-0.155,
3915,-0.63,-0.17,
3916,-0.63,-0.16,
3917,-0.625,-0.165,
3918,-0.635,-0.185,
3919,-0.635,-0.19,
3920,-0.645,-0.2,
3921,-0.64,-0.2,
3922,-0.62,-0.18,
3923,-0.62,-0.18,
3924,-0.61,-0.18,
3925,-0.61,-0.17,
3926,-0.595,-0.175,
3927,-0.58,-0.17,
3928,-0.585,-0.175,
3929,-0.58,-0.185,
3930,-0.59,-0.185,
3931,-0.595,-0.19,
3932,-0.605,-0.195,
3933,-0.61,-0.2,
3934,-0.62,-0.195,
3935,-0.595,-0.185,
3936,-0.59,-0.17,
3937,-0.585,-0.17,
3938,-0.575,-0.175,
3939,-0.57,-0.18,
3940,-0.57,-0.18,
3941,-0.58,-0.18,
3942,-0.59,-0.19,
3943,-0.61,-0.19,
3944,-0.62,-0.195,
3945,-0.63,-0.2,
3946,-0.63,-0.2,
3947,-0.63,-0.195,
3948,-0.625,-0.19,
3949,-0.62,-0.175,
3950,-0.61,-0.175,
3951,-0.6,-0.19,
3952,-0.6,-0.19,
3953,-0.6,-0.19,
3954,-0.605,-0.2,
3955,-0.615,-0.21,
3956,-0.625,-0.21,
3957,-0.635,-0.205,
3958,-0.63,-0.205,
3959,-0.62,-0.2,
3960,-0.62,-0.18,
3961,-0.605,-0.185,
3962,-0.61,-0.175,
3963,-0.615,-0.19,
3964,-0.62,-0.185,
3965,-0.63,-0.2,
3966,-0.63,-0.205,
3967,-0.64,-0.21,
3968,-0.65,-0.22,
3969,-0.65,-0.215,
3970,-0.65,-0.21,
3971,-0.645,-0.205,
3972,-0.65,-0.2,
3973,-0.645,-0.19,
3974,-0.63,-0.18,
3975,-0.61,-0.205,
3976,-0.63,-0.19,
3977,-0.625,-0.21,
3978,-0.645,-0.195,
3979,-0.655,-0.205,
3980,-0.66,-0.215,
3981,-0.65,-0.22,
3982,-0.635,-0.21,
3983,-0.635,-0.195,
3984,-0.64,-0.2,
3985,-0.625,-0.195,
3986,-0.625,-0.195,
3987,-0.62,-0.195,
3988,-0.625,-0.205,
3989,-0.615,-0.2,
3990,-0.635,-0.205,
3991,-0.62,-0.22,
3992,-0.645,-0.22,
3993,-0.64,-0.215,
3994,-0.63,-0.225,
3995,-0.625,-0.2,
3996,-0.61,-0.195,
3997,-0.615,-0.2,
3998,-0.615,-0.19,
3999,-0.61,-0.195,
4000,-0.615,-0.195,
4001,-0.615,-0.2,
4002,-0.62,-0.2,
4003,-0.63,-0.22,
4004,-0.64,-0.22,
4005,-0.615,-0.215,
4006,-0.62,-0.21,
4007,-0.63,-0.2,
4008,-0.62,-0.2,
4009,-0.62,-0.185,
4010,-0.61,-0.185,
4011,-0.6,-0.185,
4012,-0.605,-0.19,
4013,-0.61,-0.19,
4014,-0.605,-0.205,
4015,-0.61,-0.215,
4016,-0.62,-0.225,
4017,-0.63,-0.21,
4018,-0.62,-0.2,
4019,-0.625,-0.195,
4020,-0.6,-0.19,
4021,-0.605,-0.175,
4022,-0.6,-0.175,
4023,-0.585,-0.18,
4024,-0.595,-0.165,
4025,-0.6,-0.16,
4026,-0.6,-0.17,
4027,-0.6,-0.175,
4028,-0.61,-0.155,
4029,-0.605,-0.16,
4030,-0.6,-0.15,
4031,-0.575,-0.13,
4032,-0.54,-0.12,
4033,-0.53,-0.12,
4034,-0.51,-0.105,
4035,-0.485,-0.125,
4036,-0.49,-0.135,
4037,-0.485,-0.155,
4038,-0.47,-0.18,
4039,-0.475,-0.205,
4040,-0.465,-0.205,
4041,-0.465,-0.205,
4042,-0.44,-0.2,
4043,-0.43,-0.18,
4044,-0.43,-0.175,
4045,-0.43,-0.16,
4046,-0.435,-0.165,
4047,-0.42,-0.16,
4048,-0.43,-0.17,
4049,-0.43,-0.18,
4050,-0.44,-0.19,
4051,-0.44,-0.19,
4052,-0.45,-0.18,
4053,-0.45,-0.195,
4054,-0.46,-0.195,
4055,-0.45,-0.19,
4056,-0.455,-0.175,
4057,-0.455,-0.18,
4058,-0.465,-0.18,
4059,-0.475,-0.185,
4060,-0.495,-0.195,
4061,-0.51,-0.205,
4062,-0.515,-0.205,
4063,-0.545,-0.215,
4064,-0.55,-0.225,
4065,-0.55,-0.215,
4066,-0.555,-0.215,
4067,-0.555,-0.205,
4068,-0.565,-0.19,
4069,-0.55,-0.185,
4070,-0.545,-0.195,
4071,-0.535,-0.185,
4072,-0.535,-0.185,
4073,-0.535,-0.2,
4074,-0.545,-0.195,
4075,-0.55,-0.205,
4076,-0.555,-0.22,
4077,-0.56,-0.21,
4078,-0.565,-0.205,
4079,-0.565,-0.195,
4080,-0.565,-0.2,
4081,-0.565,-0.2,
4082,-0.545,-0.18,
4083,-0.53,-0.175,
4084,-0.545,-0.19,
4085,-0.53,-0.2,
4086,-0.53,-0.205,
4087,-0.535,-0.205,
4088,-0.54,-0.215,
4089,-0.545,-0.205,
4090,-0.55,-0.2,
4091,-0.53,-0.19,
4092,-0.515,-0.175,
4093,-0.5,-0.185,
4094,-0.49,-0.175,
4095,-0.475,-0.175,
4096,-0.48,-0.175,
4097,-0.47,-0.155,
4098,-0.46,-0.15,
4099,-0.46,-0.145,
4100,-0.465,-0.145,
4101,-0.47,-0.155,
4102,-0.46,-0.165,
4103,-0.445,-0.19,
4104,-0.425,-0.24,
4105,-0.395,-0.29,
4106,-0.345,-0.35,
4107,-0.255,-0.445,
4108,-0.145,-0.525,
4109,0.025,-0.615,
4110,0.26,-0.665,
4111,0.555,-0.68,
4112,0.905,-0.67,
4113,1.275,-0.595,
4114,1.6,-0.515,N
4115,1.775,-0.405,
4116,1.74,-0.32,
4117,1.445,-0.25,
4118,0.9,-0.2,
4119,0.26,-0.21,
4120,-0.38,-0.215,
4121,-1.015,-0.25,
4122,-1.26,-0.275,
4123,-1.235,-0.285,
4124,-1.05,-0.26,
4125,-0.805,-0.225,
4126,-0.56,-0.17,
4127,-0.39,-0.14,
4128,-0.295,-0.11,
4129,-0.27,-0.1,
4130,-0.275,-0.1,
4131,-0.31,-0.1,
4132,-0.35,-0.12,
4133,-0.375,-0.13,
4134,-0.395,-0.135,
4135,-0.405,-0.13,
4136,-0.395,-0.135,
4137,-0.385,-0.13,
4138,-0.38,-0.13,
4139,-0.365,-0.115,
4140,-0.36,-0.12,
4141,-0.355,-0.115,
4142,-0.345,-0.1,
4143,-0.345,-0.11,
4144,-0.33,-0.12,
4145,-0.345,-0.115,
4146,-0.34,-0.13,
4147,-0.345,-0.125,
4148,-0.345,-0.14,
4149,-0.36,-0.125,
4150,-0.35,-0.125,
4151,-0.35,-0.125,
4152,-0.34,-0.11,
4153,-0.34,-0.115,
4154,-0.32,-0.11,
4155,-0.315,-0.115,
4156,-0.32,-0.125,
4157,-0.305,-0.12,
4158,-0.325,-0.13,
4159,-0.33,-0.13,
4160,-0.34,-0.14,
4161,-0.335,-0.135,
4162,-0.34,-0.125,
4163,-0.325,-0.13,
4164,-0.315,-0.11,
4165,-0.3,-0.115,
4166,-0.305,-0.11,
4167,-0.295,-0.105,
4168,-0.29,-0.12,
4169,-0.31,-0.12,
4170,-0.32,-0.13,
4171,-0.31,-0.135,
4172,-0.31,-0.13,
4173,-0.31,-0.13,
4174,-0.315,-0.135,
4175,-0.32,-0.125,
4176,-0.31,-0.125,
4177,-0.29,-0.105,
4178,-0.29,-0.115,
4179,-0.285,-0.1,
4180,-0.285,-0.11,
4181,-0.285,-0.12,
4182,-0.28,-0.13,
4183,-0.285,-0.135,
4184,-0.29,-0.145,
4185,-0.295,-0.13,
4186,-0.295,-0.13,
4187,-0.29,-0.13,
4188,-0.29,-0.125,
4189,-0.275,-0.12,
4190,-0.265,-0.125,
4191,-0.255,-0.105,
4192,-0.275,-0.11,
4193,-0.26,-0.115,
4194,-0.265,-0.135,
4195,-0.265,-0.13,
4196,-0.265,-0.155,
4197,-0.265,-0.145,
4198,-0.26,-0.15,
4199,-0.28,-0.125,
4200,-0.26,-0.13,
4201,-0.24,-0.11,
4202,-0.25,-0.11,
4203,-0.225,-0.13,
4204,-0.215,-0.13,
4205,-0.215,-0.13,
4206,-0.225,-0.14,
4207,-0.22,-0.14,
4208,-0.215,-0.145,
4209,-0.215,-0.145,
4210,-0.2,-0.145,
4211,-0.2,-0.135,
4212,-0.185,-0.12,
4213,-0.185,-0.13,
4214,-0.17,-0.11,
4215,-0.17,-0.115,
4216,-0.165,-0.115,
4217,-0.17,-0.125,
4218,-0.17,-0.135,
4219,-0.18,-0.14,
4220,-0.165,-0.14,
4221,-0.17,-0.15,
4222,-0.175,-0.145,
4223,-0.145,-0.145,
4224,-0.14,-0.135,
4225,-0.14,-0.125,
4226,-0.125,-0.115,
4227,-0.115,-0.11,
4228,-0.11,-0.125,
4229,-0.12,-0.135,
4230,-0.125,-0.14,
4231,-0.13,-0.145,
4232,-0.145,-0.15,
4233,-0.145,-0.155,
4234,-0.14,-0.15,
4235,-0.14,-0.145,
4236,-0.135,-0.135,
4237,-0.13,-0.135,
4238,-0.115,-0.13,
4239,-0.105,-0.145,
4240,-0.1,-0.14,
4241,-0.105,-0.14,
4242,-0.105,-0.155,
4243,-0.105,-0.155,
4244,-0.11,-0.16,
4245,-0.115,-0.16,
4246,-0.115,-0.15,
4247,-0.12,-0.14,
4248,-0.12,-0.14,
4249,-0.125,-0.13,
4250,-0.12,-0.115,
4251,-0.13,-0.115,
4252,-0.135,-0.125,
4253,-0.15,-0.135,
4254,-0.16,-0.125,
4255,-0.18,-0.135,
4256,-0.21,-0.14,
4257,-0.22,-0.13,
4258,-0.235,-0.13,
4259,-0.255,-0.125,
4260,-0.26,-0.125,
4261,-0.265,-0.12,
4262,-0.275,-0.1,
4263,-0.28,-0.105,
4264,-0.28,-0.11,
4265,-0.295,-0.115,
4266,-0.29,-0.11,
4267,-0.3,-0.125,
4268,-0.31,-0.12,
4269,-0.32,-0.125,
4270,-0.325,-0.12,
4271,-0.35,-0.1,
4272,-0.34,-0.11,
4273,-0.325,-0.1,
4274,-0.32,-0.095,
4275,-0.315,-0.1,
4276,-0.315,-0.09,
4277,-0.32,-0.1,
4278,-0.325,-0.125,
4279,-0.345,-0.12,
4280,-0.34,-0.11,
4281,-0.35,-0.125,
4282,-0.345,-0.115,
4283,-0.33,-0.105,
4284,-0.33,-0.095,
4285,-0.325,-0.1,
4286,-0.3,-0.09,
4287,-0.295,-0.09,
4288,-0.295,-0.1,
4289,-0.285,-0.09,
4290,-0.285,-0.1,
4291,-0.28,-0.12,
4292,-0.29,-0.115,
4293,-0.305,-0.12,
4294,-0.315,-0.105,
4295,-0.285,-0.11,
4296,-0.285,-0.1,
4297,-0.275,-0.11,
4298,-0.25,-0.09,
4299,-0.265,-0.105,
4300,-0.255,-0.1,
4301,-0.25,-0.105,
4302,-0.255,-0.1,
4303,-0.27,-0.13,
4304,-0.275,-0.115,
4305,-0.265,-0.12,
4306,-0.27,-0.115,
4307,-0.27,-0.115,
4308,-0.265,-0.1,
4309,-0.255,-0.095,
4310,-0.24,-0.09,
4311,-0.235,-0.1,
4312,-0.24,-0.11,
4313,-0.23,-0.1,
4314,-0.25,-0.115,
4315,-0.25,-0.135,
4316,-0.255,-0.125,
4317,-0.265,-0.13,
4318,-0.265,-0.12,
4319,-0.265,-0.12,
4320,-0.245,-0.115,
4321,-0.26,-0.115,
4322,-0.25,-0.11,
4323,-0.24,-0.115,
4324,-0.255,-0.12,
4325,-0.245,-0.12,
4326,-0.25,-0.125,
4327,-0.255,-0.135,
4328,-0.27,-0.135,
4329,-0.275,-0.15,
4330,-0.285,-0.13,
4331,-0.28,-0.135,
4332,-0.27,-0.135,
4333,-0.275,-0.115,
4334,-0.255,-0.115,
4335,-0.255,-0.115,
4336,-0.26,-0.12,
4337,-0.25,-0.12,
4338,-0.265,-0.14,
4339,-0.265,-0.14,
4340,-0.27,-0.14,
4341,-0.29,-0.155,
4342,-0.29,-0.145,
4343,-0.3,-0.13,
4344,-0.285,-0.125,
4345,-0.28,-0.12,
4346,-0.275,-0.11,
4347,-0.265,-0.12,
4348,-0.27,-0.115,
4349,-0.28,-0.125,
4350,-0.285,-0.125,
4351,-0.29,-0.13,
4352,-0.29,-0.145,
4353,-0.295,-0.135,
4354,-0.28,-0.14,
4355,-0.28,-0.13,
4356,-0.29,-0.135,
4357,-0.295,-0.125,
4358,-0.295,-0.12,
4359,-0.275,-0.11,
4360,-0.27,-0.125,
4361,-0.27,-0.125,
4362,-0.27,-0.14,
4363,-0.28,-0.15,
4364,-0.285,-0.135,
4365,-0.275,-0.15,
4366,-0.28,-0.13,
4367,-0.29,-0.125,
4368,-0.275,-0.12,
4369,-0.29,-0.13,
4370,-0.29,-0.12,
4371,-0.275,-0.125,
4372,-0.26,-0.13,
4373,-0.27,-0.12,
4374,-0.275,-0.14,
4375,-0.29,-0.135,
4376,-0.3,-0.145,
4377,-0.305,-0.14,
4378,-0.295,-0.14,
4379,-0.295,-0.135,
4380,-0.29,-0.125,
4381,-0.28,-0.125,
4382,-0.265,-0.115,
4383,-0.265,-0.12,
4384,-0.27,-0.11,
4385,-0.27,-0.13,
4386,-0.27,-0.135,
4387,-0.29,-0.145,
4388,-0.285,-0.145,
4389,-0.285,-0.13,
4390,-0.29,-0.135,
4391,-0.28,-0.14,
4392,-0.28,-0.125,
4393,-0.275,-0.115,
4394,-0.28,-0.11,
4395,-0.28,-0.105,
4396,-0.275,-0.125,
4397,-0.265,-0.125,
4398,-0.275,-0.12,
4399,-0.29,-0.145,
4400,-0.29,-0.125,
4401,-0.295,-0.125,
4402,-0.295,-0.12,
4403,-0.295,-0.105,
4404,-0.29,-0.1,
4405,-0.28,-0.07,
4406,-0.28,-0.075,
4407,-0.25,-0.055,
4408,-0.24,-0.055,
4409,-0.23,-0.06,
4410,-0.24,-0.065,
4411,-0.225,-0.075,
4412,-0.215,-0.07,
4413,-0.21,-0.09,
4414,-0.205,-0.09,
4415,-0.19,-0.1,
4416,-0.175,-0.105,
4417,-0.17,-0.11,
4418,-0.15,-0.115,
4419,-0.14,-0.115,
4420,-0.125,-0.115,
4421,-0.12,-0.115,
4422,-0.13,-0.125,
4423,-0.135,-0.12,
4424,-0.16,-0.12,
4425,-0.155,-0.12,
4426,-0.175,-0.125,
4427,-0.155,-0.11,
4428,-0.165,-0.105,
4429,-0.15,-0.105,
4430,-0.145,-0.095,
4431,-0.145,-0.1,
4432,-0.145,-0.115,
4433,-0.15,-0.115,
4434,-0.16,-0.125,
4435,-0.175,-0.135,
4436,-0.195,-0.155,
4437,-0.21,-0.16,
4438,-0.23,-0.155,
4439,-0.245,-0.15,
4440,-0.25,-0.135,
4441,-0.255,-0.14,
4442,-0.265,-0.13,
4443,-0.265,-0.13,
4444,-0.265,-0.13,
4445,-0.27,-0.135,
4446,-0.26,-0.155,
4447,-0.29,-0.155,
4448,-0.285,-0.15,
4449,-0.295,-0.155,
4450,-0.295,-0.145,
4451,-0.295,-0.14,
4452,-0.285,-0.14,
4453,-0.28,-0.13,
4454,-0.28,-0.115,
4455,-0.27,-0.12,
4456,-0.275,-0.125,
4457,-0.275,-0.125,
4458,-0.285,-0.14,
4459,-0.3,-0.145,
4460,-0.3,-0.15,
4461,-0.3,-0.15,
4462,-0.3,-0.135,
4463,-0.3,-0.135,
4464,-0.285,-0.14,
4465,-0.275,-0.12,
4466,-0.285,-0.12,
4467,-0.265,-0.12,
4468,-0.27,-0.13,
4469,-0.26,-0.13,
4470,-0.275,-0.13,
4471,-0.285,-0.14,
4472,-0.28,-0.14,
4473,-0.28,-0.135,
4474,-0.27,-0.12,
4475,-0.245,-0.095,
4476,-0.235,-0.09,
4477,-0.225,-0.085,
4478,-0.2,-0.095,
4479,-0.2,-0.135,
4480,-0.17,-0.21,
4481,-0.135,-0.305,
4482,-0.05,-0.41,
4483,0.08,-0.515,
4484,0.295,-0.585,
4485,0.585,-0.62,
4486,0.94,-0.59,
4487,1.32,-0.535,
4488,1.645,-0.43,N
4489,1.85,-0.32,
4490,1.87,-0.23,
4491,1.64,-0.17,
4492,1.16,-0.135,
4493,0.52,-0.12,
4494,-0.12,-0.135,
4495,-0.745,-0.16,
4496,-1.04,-0.2,
4497,-1.065,-0.22,
4498,-0.89,-0.2,
4499,-0.645,-0.175,
4500,-0.4,-0.13,
4501,-0.21,-0.09,
4502,-0.12,-0.055,
4503,-0.07,-0.05,
4504,-0.075,-0.05,
4505,-0.13,-0.065,
4506,-0.165,-0.075,
4507,-0.215,-0.085,
4508,-0.225,-0.09,
4509,-0.24,-0.095,
4510,-0.23,-0.095,
4511,-0.21,-0.09,
4512,-0.195,-0.08,
4513,-0.18,-0.065,
4514,-0.175,-0.065,
4515,-0.165,-0.06,
4516,-0.165,-0.065,
4517,-0.17,-0.075,
4518,-0.175,-0.075,
4519,-0.185,-0.085,
4520,-0.195,-0.095,
4521,-0.19,-0.09,
4522,-0.2,-0.09,
4523,-0.195,-0.095,
4524,-0.175,-0.07,
4525,-0.175,-0.075,
4526,-0.185,-0.07,
4527,-0.175,-0.08,
4528,-0.17,-0.075,
4529,-0.17,-0.075,
4530,-0.165,-0.09,
4531,-0.175,-0.08,
4532,-0.16,-0.1,
4533,-0.18,-0.1,
4534,-0.18,-0.095,
4535,-0.185,-0.085,
4536,-0.185,-0.075,
4537,-0.175,-0.08,
4538,-0.155,-0.07,
4539,-0.16,-0.08,
4540,-0.15,-0.08,
4541,-0.165,-0.08,
4542,-0.16,-0.08,
4543,-0.165,-0.1,
4544,-0.18,-0.105,
4545,-0.195,-0.105,
4546,-0.19,-0.105,
4547,-0.19,-0.095,
4548,-0.18,-0.09,
4549,-0.18,-0.09,
4550,-0.175,-0.085,
4551,-0.16,-0.08,
4552,-0.18,-0.095,
4553,-0.165,-0.095,
4554,-0.175,-0.09,
4555,-0.19,-0.1,
4556,-0.19,-0.11,
4557,-0.195,-0.11,
4558,-0.19,-0.105,
4559,-0.18,-0.11,
4560,-0.18,-0.095,
4561,-0.185,-0.105,
4562,-0.18,-0.08,
4563,-0.175,-0.085,
4564,-0.165,-0.095,
4565,-0.175,-0.1,
4566,-0.175,-0.095,
4567,-0.18,-0.115,
4568,-0.18,-0.11,
4569,-0.18,-0.11,
4570,-0.175,-0.115,
4571,-0.175,-0.105,
4572,-0.17,-0.11,
4573,-0.17,-0.105,
4574,-0.16,-0.095,
4575,-0.155,-0.09,
4576,-0.15,-0.11,
4577,-0.135,-0.105,
4578,-0.145,-0.115,
4579,-0.14,-0.125,
4580,-0.145,-0.13,
4581,-0.155,-0.12,
4582,-0.15,-0.12,
4583,-0.15,-0.115,
4584,-0.145,-0.115,
4585,-0.13,-0.115,
4586,-0.125,-0.11,
4587,-0.125,-0.09,
4588,-0.115,-0.11,
4589,-0.125,-0.105,
4590,-0.13,-0.125,
4591,-0.125,-0.12,
4592,-0.13,-0.135,
4593,-0.125,-0.135,
4594,-0.125,-0.13,
4595,-0.115,-0.12,
4596,-0.115,-0.13,
4597,-0.115,-0.125,
4598,-0.095,-0.125,
4599,-0.095,-0.115,
4600,-0.095,-0.125,
4601,-0.105,-0.12,
4602,-0.11,-0.13,
4603,-0.105,-0.135,
4604,-0.115,-0.15,
4605,-0.125,-0.145,
4606,-0.13,-0.135,
4607,-0.125,-0.135,
4608,-0.115,-0.14,
4609,-0.12,-0.135,
4610,-0.11,-0.13,
4611,-0.1,-0.12,
4612,-0.095,-0.12,
4613,-0.11,-0.125,
4614,-0.11,-0.14,
4615,-0.11,-0.15,
4616,-0.1,-0.15,
4617,-0.125,-0.15,
4618,-0.12,-0.145,
4619,-0.12,-0.135,
4620,-0.115,-0.135,
4621,-0.12,-0.125,
4622,-0.115,-0.115,
4623,-0.13,-0.11,
4624,-0.145,-0.115,
4625,-0.16,-0.11,
4626,-0.18,-0.115,
4627,-0.2,-0.12,
4628,-0.235,-0.12,
4629,-0.25,-0.125,
4630,-0.26,-0.11,
4631,-0.28,-0.11,
4632,-0.29,-0.1,
4633,-0.295,-0.1,
4634,-0.29,-0.1,
4635,-0.295,-0.075,
4636,-0.305,-0.085,
4637,-0.32,-0.085,
4638,-0.325,-0.095,
4639,-0.335,-0.1,
4640,-0.35,-0.11,
4641,-0.37,-0.11,
4642,-0.375,-0.105,
4643,-0.37,-0.11,
4644,-0.37,-0.095,
4645,-0.36,-0.095,
4646,-0.35,-0.08,
4647,-0.35,-0.085,
4648,-0.345,-0.08,
4649,-0.35,-0.085,
4650,-0.37,-0.095,
4651,-0.37,-0.095,
4652,-0.395,-0.105,
4653,-0.4,-0.105,
4654,-0.39,-0.11,
4655,-0.395,-0.1,
4656,-0.395,-0.085,
4657,-0.36,-0.085,
4658,-0.36,-0.085,
4659,-0.36,-0.08,
4660,-0.35,-0.085,
4661,-0.36,-0.095,
4662,-0.355,-0.105,
4663,-0.365,-0.12,
4664,-0.37,-0.12,
4665,-0.375,-0.115,
4666,-0.355,-0.105,
4667,-0.35,-0.105,
4668,-0.35,-0.11,
4669,-0.345,-0.095,
4670,-0.36,-0.09,
4671,-0.34,-0.085,
4672,-0.345,-0.095,
4673,-0.34,-0.095,
4674,-0.35,-0.11,
4675,-0.35,-0.11,
4676,-0.355,-0.11,
4677,-0.36,-0.115,
4678,-0.345,-0.115,
4679,-0.35,-0.11,
4680,-0.34,-0.1,
4681,-0.34,-0.105,
4682,-0.34,-0.09,
4683,-0.345,-0.09,
4684,-0.335,-0.105,
4685,-0.335,-0.105,
4686,-0.345,-0.115,
4687,-0.345,-0.115,
4688,-0.36,-0.125,
4689,-0.375,-0.125,
4690,-0.38,-0.12,
4691,-0.37,-0.125,
4692,-0.38,-0.11,
4693,-0.37,-0.095,
4694,-0.365,-0.1,
4695,-0.375,-0.1,
4696,-0.375,-0.105,
4697,-0.38,-0.105,
4698,-0.38,-0.12,
4699,-0.38,-0.125,
4700,-0.395,-0.135,
4701,-0.395,-0.14,
4702,-0.41,-0.12,
4703,-0.41,-0.12,
4704,-0.4,-0.125,
4705,-0.415,-0.115,
4706,-0.405,-0.105,
4707,-0.385,-0.1,
4708,-0.4,-0.12,
4709,-0.39,-0.11,
4710,-0.4,-0.13,
4711,-0.41,-0.13,
4712,-0.425,-0.135,
4713,-0.43,-0.15,
4714,-0.44,-0.135,
4715,-0.435,-0.135,
4716,-0.43,-0.12,
4717,-0.44,-0.125,
4718,-0.43,-0.125,
4719,-0.42,-0.09,
4720,-0.43,-0.12,
4721,-0.415,-0.12,
4722,-0.435,-0.135,
4723,-0.435,-0.135,
4724,-0.435,-0.135,
4725,-0.45,-0.135,
4726,-0.45,-0.135,
4727,-0.45,-0.13,
4728,-0.44,-0.125,
4729,-0.44,-0.12,
4730,-0.44,-0.115,
4731,-0.435,-0.12,
4732,-0.44,-0.12,
4733,-0.43,-0.125,
4734,-0.435,-0.12,
4735,-0.445,-0.14,
4736,-0.445,-0.13,
4737,-0.45,-0.135,
4738,-0.46,-0.125,
4739,-0.465,-0.11,
4740,-0.47,-0.095,
4741,-0.45,-0.09,
4742,-0.435,-0.07,
4743,-0.41,-0.065,
4744,-0.41,-0.07,
4745,-0.395,-0.07,
4746,-0.375,-0.08,
4747,-0.38,-0.095,
4748,-0.375,-0.115,
4749,-0.37,-0.115,
4750,-0.36,-0.12,
4751,-0.345,-0.14,
4752,-0.35,-0.14,
4753,-0.325,-0.115,
4754,-0.305,-0.125,
4755,-0.295,-0.105,
4756,-0.285,-0.115,
4757,-0.295,-0.115,
4758,-0.305,-0.115,
4759,-0.315,-0.12,
4760,-0.325,-0.14,
4761,-0.335,-0.13,
4762,-0.335,-0.12,
4763,-0.345,-0.12,
4764,-0.335,-0.105,
4765,-0.33,-0.11,
4766,-0.335,-0.11,
4767,-0.335,-0.115,
4768,-0.345,-0.12,
4769,-0.355,-0.135,
4770,-0.37,-0.145,
4771,-0.4,-0.16,
4772,-0.42,-0.16,
4773,-0.445,-0.175,
4774,-0.465,-0.165,
4775,-0.485,-0.16,
4776,-0.48,-0.145,
4777,-0.475,-0.14,
4778,-0.455,-0.145,
4779,-0.455,-0.13,
4780,-0.46,-0.145,
4781,-0.465,-0.145,
4782,-0.465,-0.15,
4783,-0.475,-0.15,
4784,-0.49,-0.165,
4785,-0.505,-0.17,
4786,-0.505,-0.16,
4787,-0.515,-0.16,
4788,-0.515,-0.15,
4789,-0.495,-0.145,
4790,-0.5,-0.15,
4791,-0.495,-0.14,
4792,-0.49,-0.145,
4793,-0.49,-0.145,
4794,-0.5,-0.165,
4795,-0.5,-0.17,
4796,-0.51,-0.165,
4797,-0.51,-0.165,
4798,-0.515,-0.155,
4799,-0.52,-0.17,
4800,-0.51,-0.145,
4801,-0.5,-0.15,
4802,-0.49,-0.135,
4803,-0.49,-0.125,
4804,-0.48,-0.14,
4805,-0.475,-0.135,
4806,-0.47,-0.14,
4807,-0.475,-0.135,
4808,-0.48,-0.14,
4809,-0.48,-0.125,
4810,-0.475,-0.11,
4811,-0.455,-0.135,
4812,-0.455,-0.165,
4813,-0.43,-0.205,
4814,-0.4,-0.275,
4815,-0.34,-0.34,
4816,-0.27,-0.44,
4817,-0.125,-0.525,
4818,0.065,-0.575,
4819,0.315,-0.61,
4820,0.64,-0.605,
4821,0.99,-0.555,
4822,1.33,-0.47,
4823,1.595,-0.365,N
4824,1.71,-0.285,
4825,1.645,-0.205,
4826,1.37,-0.16,
4827,0.91,-0.115,
4828,0.295,-0.13,
4829,-0.345,-0.14,
4830,-0.9,-0.17,
4831,-1.21,-0.195,
4832,-1.27,-0.225,
4833,-1.145,-0.23,
4834,-0.91,-0.2,
4835,-0.68,-0.18,
4836,-0.485,-0.145,
4837,-0.38,-0.1,
4838,-0.325,-0.1,
4839,-0.33,-0.09,
4840,-0.35,-0.1,
4841,-0.395,-0.11,
4842,-0.425,-0.12,
4843,-0.45,-0.125,
4844,-0.455,-0.13,
4845,-0.465,-0.145,
4846,-0.445,-0.135,
4847,-0.44,-0.13,
4848,-0.435,-0.13,
4849,-0.42,-0.12,
4850,-0.415,-0.12,
4851,-0.42,-0.11,
4852,-0.42,-0.12,
4853,-0.43,-0.125,
4854,-0.42,-0.125,
4855,-0.42,-0.14,
4856,-0.435,-0.14,
4857,-0.44,-0.155,
4858,-0.435,-0.13,
4859,-0.44,-0.13,
4860,-0.425,-0.125,
4861,-0.425,-0.12,
4862,-0.42,-0.125,
4863,-0.41,-0.115,
4864,-0.415,-0.125,
4865,-0.41,-0.13,
4866,-0.41,-0.14,
4867,-0.41,-0.145,
4868,-0.415,-0.155,
4869,-0.43,-0.15,
4870,-0.43,-0.155,
4871,-0.43,-0.145,
4872,-0.425,-0.14,
4873,-0.42,-0.135,
4874,-0.415,-0.13,
4875,-0.41,-0.135,
4876,-0.405,-0.15,
4877,-0.415,-0.14,
4878,-0.415,-0.155,
4879,-0.425,-0.16,
4880,-0.425,-0.16,
4881,-0.43,-0.17,
4882,-0.43,-0.17,
4883,-0.43,-0.16,
4884,-0.42,-0.145,
4885,-0.42,-0.155,
4886,-0.415,-0.14,
4887,-0.405,-0.145,
4888,-0.41,-0.14,
4889,-0.41,-0.155,
4890,-0.41,-0.155,
4891,-0.42,-0.155,
4892,-0.425,-0.17,
4893,-0.425,-0.175,
4894,-0.43,-0.17,
4895,-0.435,-0.16,
4896,-0.425,-0.165,
4897,-0.415,-0.155,
4898,-0.41,-0.145,
4899,-0.39,-0.15,
4900,-0.4,-0.16,
4901,-0.395,-0.16,
4902,-0.4,-0.165,
4903,-0.395,-0.18,
4904,-0.4,-0.165,
4905,-0.41,-0.18,
4906,-0.415,-0.175,
4907,-0.41,-0.175,
4908,-0.405,-0.16,
4909,-0.395,-0.16,
4910,-0.39,-0.16,
4911,-0.38,-0.15,
4912,-0.375,-0.16,
4913,-0.365,-0.165,
4914,-0.375,-0.165,
4915,-0.375,-0.175,
4916,-0.385,-0.185,
4917,-0.39,-0.185,
4918,-0.405,-0.18,
4919,-0.385,-0.175,
4920,-0.385,-0.18,
4921,-0.395,-0.175,
4922,-0.375,-0.17,
4923,-0.355,-0.155,
4924,-0.35,-0.18,
4925,-0.34,-0.175,
4926,-0.345,-0.18,
4927,-0.35,-0.195,
4928,-0.35,-0.195,
4929,-0.35,-0.2,
4930,-0.365,-0.195,
4931,-0.36,-0.19,
4932,-0.335,-0.195,
4933,-0.345,-0.19,
4934,-0.335,-0.175,
4935,-0.325,-0.17,
4936,-0.315,-0.185,
4937,-0.32,-0.18,
4938,-0.32,-0.195,
4939,-0.33,-0.205,
4940,-0.335,-0.21,
4941,-0.355,-0.21,
4942,-0.35,-0.215,
4943,-0.34,-0.215,
4944,-0.335,-0.21,
4945,-0.34,-0.2,
4946,-0.325,-0.19,
4947,-0.315,-0.18,
4948,-0.315,-0.19,
4949,-0.32,-0.205,
4950,-0.33,-0.205,
4951,-0.33,-0.22,
4952,-0.35,-0.235,
4953,-0.345,-0.23,
4954,-0.35,-0.225,
4955,-0.345,-0.215,
4956,-0.345,-0.215,
4957,-0.335,-0.195,
4958,-0.325,-0.195,
4959,-0.345,-0.195,
4960,-0.345,-0.185,
4961,-0.35,-0.205,
4962,-0.365,-0.185,
4963,-0.38,-0.21,
4964,-0.405,-0.205,
4965,-0.42,-0.215,
4966,-0.445,-0.21,
4967,-0.45,-0.2,
4968,-0.45,-0.18,
4969,-0.465,-0.19,
4970,-0.48,-0.17,
4971,-0.485,-0.175,
4972,-0.495,-0.18,
4973,-0.5,-0.175,
4974,-0.515,-0.185,
4975,-0.535,-0.185,
4976,-0.545,-0.185,
4977,-0.575,-0.185,
4978,-0.58,-0.195,
4979,-0.575,-0.185,
4980,-0.59,-0.19,
4981,-0.59,-0.185,
4982,-0.59,-0.18,
4983,-0.59,-0.17,
4984,-0.59,-0.17,
4985,-0.605,-0.175,
4986,-0.6,-0.185,
4987,-0.61,-0.195,
4988,-0.625,-0.19,
4989,-0.635,-0.2,
4990,-0.635,-0.185,
4991,-0.635,-0.185,
4992,-0.635,-0.175,
4993,-0.635,-0.17,
4994,-0.625,-0.18,
4995,-0.615,-0.17,
4996,-0.61,-0.18,
4997,-0.605,-0.17,
4998,-0.62,-0.19,
4999,-0.635,-0.195,
5000,-0.62,-0.195,
5001,-0.635,-0.2,
5002,-0.635,-0.195,
5003,-0.625,-0.2,
5004,-0.615,-0.19,
5005,-0.61,-0.18,
5006,-0.595,-0.175,
5007,-0.59,-0.16,
5008,-0.59,-0.18,
5009,-0.585,-0.18,
5010,-0.575,-0.185,
5011,-0.585,-0.195,
5012,-0.59,-0.2,
5013,-0.6,-0.21,
5014,-0.6,-0.2,
5015,-0.595,-0.2,
5016,-0.595,-0.2,
5017,-0.59,-0.195,
5018,-0.59,-0.195,
5019,-0.57,-0.185,
5020,-0.56,-0.18,
5021,-0.555,-0.195,
5022,-0.55,-0.2,
5023,-0.555,-0.21,
5024,-0.565,-0.215,
5025,-0.58,-0.225,
5026,-0.59,-0.21,
5027,-0.575,-0.215,
5028,-0.575,-0.205,
5029,-0.575,-0.215,
5030,-0.57,-0.19,
5031,-0.56,-0.195,
5032,-0.565,-0.2,
5033,-0.575,-0.2,
5034,-0.58,-0.22,
5035,-0.575,-0.22,
5036,-0.59,-0.23,
5037,-0.595,-0.23,
5038,-0.605,-0.22,
5039,-0.605,-0.225,
5040,-0.6,-0.215,
5041,-0.6,-0.205,
5042,-0.575,-0.205,
5043,-0.58,-0.205,
5044,-0.585,-0.21,
5045,-0.585,-0.205,
5046,-0.595,-0.215,
5047,-0.605,-0.225,
5048,-0.62,-0.24,
5049,-0.61,-0.235,
5050,-0.62,-0.24,
5051,-0.61,-0.235,
5052,-0.61,-0.23,
5053,-0.6,-0.22,
5054,-0.605,-0.215,
5055,-0.605,-0.215,
5056,-0.59,-0.22,
5057,-0.595,-0.225,
5058,-0.595,-0.24,
5059,-0.61,-0.24,
5060,-0.615,-0.24,
5061,-0.625,-0.25,
5062,-0.635,-0.24,
5063,-0.63,-0.24,
5064,-0.635,-0.235,
5065,-0.625,-0.22,
5066,-0.63,-0.215,
5067,-0.62,-0.21,
5068,-0.625,-0.215,
5069,-0.63,-0.215,
5070,-0.625,-0.23,
5071,-0.635,-0.235,
5072,-0.64,-0.26,
5073,-0.645,-0.25,
5074,-0.665,-0.25,
5075,-0.65,-0.245,
5076,-0.65,-0.24,
5077,-0.635,-0.225,
5078,-0.63,-0.23,
5079,-0.62,-0.225,
5080,-0.62,-0.235,
5081,-0.61,-0.225,
5082,-0.615,-0.23,
5083,-0.62,-0.245,
5084,-0.645,-0.255,
5085,-0.65,-0.265,
5086,-0.645,-0.25,
5087,-0.645,-0.255,
5088,-0.64,-0.24,
5089,-0.645,-0.225,
5090,-0.635,-0.21,
5091,-0.625,-0.21,
5092,-0.625,-0.22,
5093,-0.615,-0.21,
5094,-0.625,-0.205,
5095,-0.625,-0.2,
5096,-0.625,-0.205,
5097,-0.625,-0.2,
5098,-0.62,-0.185,
5099,-0.615,-0.2,
5100,-0.59,-0.18,
5101,-0.58,-0.17,
5102,-0.56,-0.18,
5103,-0.545,-0.18,
5104,-0.525,-0.2,
5105,-0.525,-0.225,
5106,-0.515,-0.24,
5107,-0.51,-0.25,
5108,-0.5,-0.265,
5109,-0.5,-0.255,
5110,-0.49,-0.25,
5111,-0.485,-0.235,
5112,-0.495,-0.225,
5113,-0.48,-0.225,
5114,-0.495,-0.23,
5115,-0.495,-0.215,
5116,-0.48,-0.23,
5117,-0.48,-0.225,
5118,-0.485,-0.235,
5119,-0.495,-0.23,
5120,-0.5,-0.245,
5121,-0.505,-0.25,
5122,-0.525,-0.245,
5123,-0.535,-0.255,
5124,-0.535,-0.26,
5125,-0.53,-0.24,
5126,-0.555,-0.245,
5127,-0.565,-0.26,
5128,-0.58,-0.255,
5129,-0.585,-0.265,
5130,-0.605,-0.27,
5131,-0.62,-0.27,
5132,-0.65,-0.285,
5133,-0.655,-0.29,
5134,-0.655,-0.28,
5135,-0.645,-0.285,
5136,-0.65,-0.27,
5137,-0.635,-0.27,
5138,-0.635,-0.26,
5139,-0.62,-0.26,
5140,-0.625,-0.265,
5141,-0.635,-0.265,
5142,-0.65,-0.275,
5143,-0.655,-0.27,
5144,-0.66,-0.285,
5145,-0.67,-0.3,
5146,-0.675,-0.29,
5147,-0.675,-0.285,
5148,-0.68,-0.275,
5149,-0.665,-0.26,
5150,-0.66,-0.27,
5151,-0.66,-0.25,
5152,-0.66,-0.26,
5153,-0.645,-0.26,
5154,-0.645,-0.265,
5155,-0.655,-0.28,
5156,-0.655,-0.28,
5157,-0.665,-0.28,
5158,-0.665,-0.275,
5159,-0.65,-0.27,
5160,-0.635,-0.265,
5161,-0.625,-0.26,
5162,-0.61,-0.24,
5163,-0.605,-0.215,
5164,-0.595,-0.205,
5165,-0.585,-0.22,
5166,-0.59,-0.22,
5167,-0.575,-0.25,
5168,-0.58,-0.275,
5169,-0.575,-0.315,
5170,-0.56,-0.355,
5171,-0.515,-0.43,
5172,-0.445,-0.495,
5173,-0.32,-0.565,
5174,-0.155,-0.65,
5175,0.07,-0.715,
5176,0.36,-0.755,
5177,0.695,-0.735,
5178,1.065,-0.685,
5179,1.4,-0.64,N
5180,1.605,-0.545,
5181,1.635,-0.47,
5182,1.425,-0.4,
5183,0.975,-0.34,
5184,0.355,-0.305,
5185,-0.285,-0.31,
5186,-0.925,-0.31,
5187,-1.33,-0.32,
5188,-1.455,-0.34,
5189,-1.345,-0.34,
5190,-1.115,-0.32,
5191,-0.88,-0.29,
5192,-0.665,-0.265,
5193,-0.54,-0.235,
5194,-0.475,-0.21,
5195,-0.46,-0.215,
5196,-0.48,-0.205,
5197,-0.515,-0.2,
5198,-0.555,-0.21,
5199,-0.555,-0.205,
5200,-0.56,-0.2,
5201,-0.57,-0.21,
5202,-0.57,-0.205,
5203,-0.565,-0.21,
5204,-0.565,-0.23,
5205,-0.575,-0.23,
5206,-0.575,-0.235,
5207,-0.585,-0.22,
5208,-0.585,-0.21,
5209,-0.58,-0.21,
5210,-0.575,-0.2,
5211,-0.56,-0.205,
5212,-0.565,-0.205,
5213,-0.565,-0.21,
5214,-0.565,-0.21,
5215,-0.57,-0.21,
5216,-0.585,-0.235,
5217,-0.585,-0.245,
5218,-0.58,-0.235,
5219,-0.59,-0.225,
5220,-0.575,-0.22,
5221,-0.57,-0.22,
5222,-0.565,-0.2,
5223,-0.565,-0.2,
5224,-0.57,-0.21,
5225,-0.56,-0.21,
5226,-0.56,-0.225,
5227,-0.565,-0.225,
5228,-0.565,-0.24,
5229,-0.585,-0.24,
5230,-0.58,-0.25,
5231,-0.575,-0.225,
5232,-0.575,-0.22,
5233,-0.57,-0.22,
5234,-0.565,-0.205,
5235,-0.555,-0.21,
5236,-0.555,-0.205,
5237,-0.55,-0.23,
5238,-0.56,-0.225,
5239,-0.555,-0.24,
5240,-0.565,-0.24,
5241,-0.565,-0.245,
5242,-0.565,-0.25,
5243,-0.57,-0.245,
5244,-0.57,-0.22,
5245,-0.565,-0.225,
5246,-0.56,-0.22,
5247,-0.55,-0.215,
5248,-0.55,-0.205,
5249,-0.54,-0.225,
5250,-0.545,-0.235,
5251,-0.555,-0.23,
5252,-0.56,-0.245,
5253,-0.55,-0.24,
5254,-0.56,-0.25,
5255,-0.57,-0.245,
5256,-0.565,-0.24,
5257,-0.56,-0.225,
5258,-0.565,-0.22,
5259,-0.545,-0.215,
5260,-0.525,-0.225,
5261,-0.525,-0.215,
5262,-0.525,-0.225,
5263,-0.53,-0.24,
5264,-0.53,-0.25,
5265,-0.54,-0.25,
5266,-0.54,-0.245,
5267,-0.53,-0.24,
5268,-0.53,-0.235,
5269,-0.52,-0.23,
5270,-0.53,-0.22,
5271,-0.51,-0.21,
5272,-0.49,-0.225,
5273,-0.49,-0.23,
5274,-0.5,-0.225,
5275,-0.505,-0.23,
5276,-0.515,-0.25,
5277,-0.51,-0.245,
5278,-0.51,-0.245,
5279,-0.5,-0.24,
5280,-0.5,-0.235,
5281,-0.49,-0.23,
5282,-0.48,-0.235,
5283,-0.47,-0.22,
5284,-0.455,-0.23,
5285,-0.46,-0.235,
5286,-0.455,-0.245,
5287,-0.455,-0.255,
5288,-0.46,-0.255,
5289,-0.465,-0.265,
5290,-0.47,-0.255,
5291,-0.46,-0.25,
5292,-0.465,-0.245,
5293,-0.44,-0.245,
5294,-0.435,-0.235,
5295,-0.425,-0.235,
5296,-0.425,-0.23,
5297,-0.43,-0.235,
5298,-0.41,-0.255,
5299,-0.415,-0.255,
5300,-0.42,-0.26,
5301,-0.415,-0.265,
5302,-0.425,-0.265,
5303,-0.425,-0.27,
5304,-0.415,-0.26,
5305,-0.41,-0.25,
5306,-0.41,-0.25,
5307,-0.4,-0.24,
5308,-0.415,-0.25,
5309,-0.4,-0.25,
5310,-0.4,-0.26,
5311,-0.42,-0.265,
5312,-0.425,-0.275,
5313,-0.44,-0.27,
5314,-0.46,-0.27,
5315,-0.475,-0.27,
5316,-0.5,-0.26,
5317,-0.505,-0.255,
5318,-0.515,-0.25,
5319,-0.525,-0.23,
5320,-0.525,-0.225,
5321,-0.53,-0.23,
5322,-0.565,-0.245,
5323,-0.565,-0.255,
5324,-0.59,-0.25,
5325,-0.62,-0.255,
5326,-0.63,-0.255,
5327,-0.635,-0.25,
5328,-0.645,-0.245,
5329,-0.65,-0.23,
5330,-0.655,-0.215,
5331,-0.65,-0.23,
5332,-0.65,-0.215,
5333,-0.66,-0.225,
5334,-0.675,-0.23,
5335,-0.68,-0.24,
5336,-0.7,-0.24,
5337,-0.7,-0.255,
5338,-0.7,-0.245,
5339,-0.715,-0.235,
5340,-0.71,-0.225,
5341,-0.705,-0.225,
5342,-0.705,-0.225,
5343,-0.695,-0.21,
5344,-0.69,-0.22,
5345,-0.705,-0.215,
5346,-0.705,-0.235,
5347,-0.705,-0.235,
5348,-0.715,-0.23,
5349,-0.73,-0.24,
5350,-0.72,-0.245,
5351,-0.72,-0.24,
5352,-0.72,-0.225,
5353,-0.715,-0.22,
5354,-0.7,-0.215,
5355,-0.68,-0.22,
5356,-0.68,-0.215,
5357,-0.68,-0.22,
5358,-0.68,-0.22,
5359,-0.68,-0.24,
5360,-0.685,-0.23,
5361,-0.69,-0.235,
5362,-0.68,-0.24,
5363,-0.685,-0.24,
5364,-0.68,-0.24,
5365,-0.665,-0.23,
5366,-0.675,-0.225,
5367,-0.665,-0.225,
5368,-0.65,-0.22,
5369,-0.65,-0.23,
5370,-0.64,-0.24,
5371,-0.65,-0.25,
5372,-0.66,-0.245,
5373,-0.675,-0.265,
5374,-0.665,-0.26,
5375,-0.665,-0.255,
5376,-0.66,-0.255,
5377,-0.66,-0.245,
5378,-0.655,-0.24,
5379,-0.655,-0.24,
5380,-0.645,-0.24,
5381,-0.655,-0.25,
5382,-0.655,-0.255,
5383,-0.675,-0.265,
5384,-0.68,-0.27,
5385,-0.685,-0.265,
5386,-0.675,-0.275,
5387,-0.68,-0.265,
5388,-0.68,-0.265,
5389,-0.68,-0.265,
5390,-0.68,-0.24,
5391,-0.67,-0.235,
5392,-0.675,-0.245,
5393,-0.69,-0.255,
5394,-0.7,-0.245,
5395,-0.7,-0.265,
5396,-0.685,-0.275,
5397,-0.695,-0.28,
5398,-0.7,-0.28,
5399,-0.705,-0.27,
5400,-0.69,-0.26,
5401,-0.69,-0.26,
5402,-0.695,-0.255,
5403,-0.695,-0.25,
5404,-0.685,-0.255,
5405,-0.695,-0.265,
5406,-0.7,-0.265,
5407,-0.71,-0.27,
5408,-0.71,-0.285,
5409,-0.715,-0.285,
5410,-0.72,-0.285,
5411,-0.72,-0.265,
5412,-0.72,-0.265,
5413,-0.705,-0.265,
5414,-0.715,-0.265,
5415,-0.7,-0.25,
5416,-0.695,-0.26,
5417,-0.695,-0.26,
5418,-0.7,-0.265,
5419,-0.715,-0.275,
5420,-0.71,-0.28,
5421,-0.725,-0.285,
5422,-0.725,-0.275,
5423,-0.725,-0.265,
5424,-0.725,-0.27,
5425,-0.715,-0.265,
5426,-0.715,-0.26,
5427,-0.715,-0.255,
5428,-0.71,-0.245,
5429,-0.7,-0.255,
5430,-0.71,-0.26,
5431,-0.715,-0.27,
5432,-0.715,-0.26,
5433,-0.725,-0.255,
5434,-0.73,-0.26,
5435,-0.715,-0.225,
5436,-0.72,-0.215,
5437,-0.695,-0.19,
5438,-0.68,-0.195,
5439,-0.67,-0.18,
5440,-0.65,-0.19,
5441,-0.64,-0.19,
5442,-0.635,-0.2,
5443,-0.64,-0.215,
5444,-0.625,-0.235,
5445,-0.625,-0.26,
5446,-0.61,-0.265,
5447,-0.605,-0.27,
5448,-0.59,-0.275,
5449,-0.56,-0.255,
5450,-0.555,-0.245,
5451,-0.56,-0.24,
5452,-0.55,-0.225,
5453,-0.57,-0.245,
5454,-0.57,-0.25,
5455,-0.575,-0.255,
5456,-0.59,-0.265,
5457,-0.58,-0.26,
5458,-0.585,-0.265,
5459,-0.575,-0.245,
5460,-0.58,-0.245,
5461,-0.575,-0.245,
5462,-0.575,-0.25,
5463,-0.58,-0.245,
5464,-0.58,-0.235,
5465,-0.595,-0.255,
5466,-0.605,-0.265,
5467,-0.63,-0.265,
5468,-0.66,-0.29,
5469,-0.69,-0.285,
5470,-0.695,-0.3,
5471,-0.715,-0.28,
5472,-0.725,-0.29,
5473,-0.735,-0.28,
5474,-0.73,-0.27,
5475,-0.71,-0.26,
5476,-0.695,-0.275,
5477,-0.705,-0.275,
5478,-0.72,-0.28,
5479,-0.72,-0.295,
5480,-0.725,-0.29,
5481,-0.745,-0.295,
5482,-0.75,-0.285,
5483,-0.75,-0.285,
5484,-0.755,-0.28,
5485,-0.75,-0.275,
5486,-0.75,-0.27,
5487,-0.73,-0.255,
5488,-0.715,-0.265,
5489,-0.73,-0.27,
5490,-0.72,-0.265,
5491,-0.725,-0.285,
5492,-0.735,-0.29,
5493,-0.74,-0.3,
5494,-0.75,-0.295,
5495,-0.74,-0.28,
5496,-0.735,-0.275,
5497,-0.73,-0.27,
5498,-0.73,-0.275,
5499,-0.71,-0.27,
5500,-0.715,-0.265,
5501,-0.72,-0.27,
5502,-0.71,-0.28,
5503,-0.71,-0.27,
5504,-0.705,-0.27,
5505,-0.705,-0.27,
5506,-0.7,-0.255,
5507,-0.68,-0.23,
5508,-0.675,-0.235,
5509,-0.665,-0.245,
5510,-0.64,-0.29,
5511,-0.61,-0.345,
5512,-0.565,-0.435,
5513,-0.475,-0.54,
5514,-0.33,-0.64,
5515,-0.135,-0.73,
5516,0.14,-0.785,
5517,0.49,-0.785,
5518,0.9,-0.755,
5519,1.255,-0.67,N
5520,1.495,-0.57,
5521,1.53,-0.47,
5522,1.33,-0.38,
5523,0.855,-0.325,
5524,0.215,-0.295,
5525,-0.425,-0.305,
5526,-1.065,-0.325,
5527,-1.48,-0.345,
5528,-1.585,-0.375,
5529,-1.455,-0.375,
5530,-1.23,-0.355,
5531,-0.97,-0.31,
5532,-0.765,-0.27,
5533,-0.645,-0.23,
5534,-0.585,-0.2,
5535,-0.57,-0.19,
5536,-0.58,-0.18,
5537,-0.605,-0.205,
5538,-0.63,-0.215,
5539,-0.66,-0.21,
5540,-0.67,-0.23,
5541,-0.68,-0.23,
5542,-0.685,-0.225,
5543,-0.675,-0.215,
5544,-0.67,-0.215,
5545,-0.665,-0.225,
5546,-0.65,-0.205,
5547,-0.645,-0.21,
5548,-0.645,-0.215,
5549,-0.65,-0.21,
5550,-0.64,-0.22,
5551,-0.65,-0.225,
5552,-0.66,-0.23,
5553,-0.675,-0.235,
5554,-0.675,-0.24,
5555,-0.67,-0.22,
5556,-0.67,-0.215,
5557,-0.66,-0.23,
5558,-0.635,-0.21,
5559,-0.635,-0.21,
5560,-0.64,-0.2,
5561,-0.635,-0.21,
5562,-0.635,-0.225,
5563,-0.645,-0.225,
5564,-0.655,-0.24,
5565,-0.655,-0.225,
5566,-0.665,-0.245,
5567,-0.65,-0.225,
5568,-0.645,-0.225,
5569,-0.64,-0.215,
5570,-0.63,-0.22,
5571,-0.635,-0.215,
5572,-0.625,-0.21,
5573,-0.63,-0.22,
5574,-0.63,-0.22,
5575,-0.625,-0.225,
5576,-0.645,-0.235,
5577,-0.63,-0.24,
5578,-0.645,-0.245,
5579,-0.65,-0.23,
5580,-0.645,-0.23,
5581,-0.63,-0.235,
5582,-0.625,-0.225,
5583,-0.62,-0.22,
5584,-0.605,-0.225,
5585,-0.61,-0.225,
5586,-0.61,-0.23,
5587,-0.615,-0.24,
5588,-0.62,-0.25,
5589,-0.625,-0.255,
5590,-0.625,-0.24,
5591,-0.625,-0.235,
5592,-0.615,-0.245,
5593,-0.605,-0.235,
5594,-0.605,-0.235,
5595,-0.59,-0.22,
5596,-0.585,-0.215,
5597,-0.6,-0.22,
5598,-0.595,-0.24,
5599,-0.6,-0.24,
5600,-0.61,-0.24,
5601,-0.61,-0.255,
5602,-0.605,-0.255,
5603,-0.615,-0.245,
5604,-0.61,-0.24,
5605,-0.605,-0.235,
5606,-0.6,-0.225,
5607,-0.58,-0.22,
5608,-0.565,-0.22,
5609,-0.565,-0.23,
5610,-0.57,-0.225,
5611,-0.575,-0.24,
5612,-0.58,-0.245,
5613,-0.585,-0.245,
5614,-0.59,-0.245,
5615,-0.58,-0.235,
5616,-0.575,-0.23,
5617,-0.56,-0.23,
5618,-0.565,-0.22,
5619,-0.545,-0.225,
5620,-0.525,-0.225,
5621,-0.53,-0.24,
5622,-0.53,-0.235,
5623,-0.535,-0.24,
5624,-0.525,-0.25,
5625,-0.55,-0.25,
5626,-0.545,-0.255,
5627,-0.53,-0.26,
5628,-0.535,-0.245,
5629,-0.51,-0.24,
5630,-0.515,-0.235,
5631,-0.505,-0.225,
5632,-0.505,-0.23,
5633,-0.5,-0.24,
5634,-0.505,-0.25,
5635,-0.48,-0.245,
5636,-0.485,-0.245,
5637,-0.495,-0.255,
5638,-0.495,-0.255,
5639,-0.495,-0.25,
5640,-0.495,-0.25,
5641,-0.49,-0.245,
5642,-0.485,-0.235,
5643,-0.485,-0.235,
5644,-0.47,-0.245,
5645,-0.47,-0.245,
5646,-0.465,-0.245,
5647,-0.48,-0.255,
5648,-0.48,-0.26,
5649,-0.5,-0.27,
5650,-0.51,-0.25,
5651,-0.52,-0.255,
5652,-0.53,-0.25,
5653,-0.545,-0.245,
5654,-0.555,-0.23,
5655,-0.575,-0.215,
5656,-0.59,-0.215,
5657,-0.6,-0.225,
5658,-0.61,-0.22,
5659,-0.63,-0.235,
5660,-0.66,-0.225,
5661,-0.68,-0.245,
5662,-0.71,-0.245,
5663,-0.715,-0.225,
5664,-0.715,-0.22,
5665,-0.73,-0.215,
5666,-0.735,-0.21,
5667,-0.74,-0.205,
5668,-0.74,-0.195,
5669,-0.74,-0.21,
5670,-0.75,-0.2,
5671,-0.745,-0.215,
5672,-0.775,-0.22,
5673,-0.77,-0.23,
5674,-0.775,-0.22,
5675,-0.79,-0.21,
5676,-0.78,-0.21,
5677,-0.78,-0.21,
5678,-0.775,-0.2,
5679,-0.765,-0.205,
5680,-0.765,-0.185,
5681,-0.755,-0.19,
5682,-0.765,-0.2,
5683,-0.765,-0.2,
5684,-0.775,-0.21,
5685,-0.795,-0.225,
5686,-0.795,-0.205,
5687,-0.785,-0.21,
5688,-0.78,-0.21,
5689,-0.765,-0.195,
5690,-0.75,-0.19,
5691,-0.755,-0.185,
5692,-0.73,-0.175,
5693,-0.735,-0.195,
5694,-0.74,-0.205,
5695,-0.745,-0.2,
5696,-0.76,-0.205,
5697,-0.76,-0.21,
5698,-0.765,-0.215,
5699,-0.755,-0.21,
5700,-0.755,-0.205,
5701,-0.75,-0.195,
5702,-0.745,-0.2,
5703,-0.73,-0.185,
5704,-0.73,-0.185,
5705,-0.72,-0.19,
5706,-0.725,-0.195,
5707,-0.73,-0.215,
5708,-0.735,-0.22,
5709,-0.735,-0.215,
5710,-0.74,-0.22,
5711,-0.735,-0.21,
5712,-0.745,-0.21,
5713,-0.73,-0.205,
5714,-0.725,-0.205,
5715,-0.725,-0.195,
5716,-0.7,-0.2,
5717,-0.73,-0.215,
5718,-0.73,-0.21,
5719,-0.745,-0.2,
5720,-0.74,-0.22,
5721,-0.75,-0.23,
5722,-0.75,-0.235,
5723,-0.76,-0.23,
5724,-0.765,-0.225,
5725,-0.76,-0.22,
5726,-0.765,-0.215,
5727,-0.745,-0.215,
5728,-0.745,-0.205,
5729,-0.755,-0.21,
5730,-0.755,-0.22,
5731,-0.77,-0.215,
5732,-0.76,-0.225,
5733,-0.765,-0.24,
5734,-0.775,-0.24,
5735,-0.785,-0.23,
5736,-0.785,-0.22,
5737,-0.78,-0.205,
5738,-0.765,-0.2,
5739,-0.77,-0.2,
5740,-0.76,-0.2,
5741,-0.755,-0.215,
5742,-0.765,-0.22,
5743,-0.775,-0.225,
5744,-0.78,-0.23,
5745,-0.795,-0.235,
5746,-0.815,-0.235,
5747,-0.825,-0.225,
5748,-0.81,-0.225,
5749,-0.8,-0.215,
5750,-0.805,-0.21,
5751,-0.795,-0.2,
5752,-0.775,-0.2,
5753,-0.775,-0.195,
5754,-0.775,-0.195,
5755,-0.78,-0.21,
5756,-0.78,-0.21,
5757,-0.79,-0.205,
5758,-0.79,-0.21,
5759,-0.8,-0.195,
5760,-0.78,-0.175,
5761,-0.78,-0.16,
5762,-0.77,-0.155,
5763,-0.745,-0.155,
5764,-0.73,-0.14,
5765,-0.725,-0.145,
5766,-0.71,-0.15,
5767,-0.715,-0.16,
5768,-0.715,-0.165,
5769,-0.71,-0.175,
5770,-0.7,-0.19,
5771,-0.7,-0.2,
5772,-0.695,-0.21,
5773,-0.67,-0.205,
5774,-0.655,-0.2,
5775,-0.64,-0.18,
5776,-0.62,-0.185,
5777,-0.615,-0.18,
5778,-0.615,-0.19,
5779,-0.63,-0.195,
5780,-0.635,-0.2,
5781,-0.66,-0.21,
5782,-0.68,-0.21,
5783,-0.675,-0.205,
5784,-0.67,-0.21,
5785,-0.655,-0.19,
5786,-0.65,-0.19,
5787,-0.64,-0.17,
5788,-0.65,-0.195,
5789,-0.66,-0.195,
5790,-0.66,-0.2,
5791,-0.675,-0.21,
5792,-0.695,-0.22,
5793,-0.715,-0.235,
5794,-0.73,-0.25,
5795,-0.77,-0.24,
5796,-0.78,-0.235,
5797,-0.8,-0.225,
5798,-0.8,-0.225,
5799,-0.795,-0.225,
5800,-0.79,-0.225,
5801,-0.8,-0.225,
5802,-0.785,-0.225,
5803,-0.79,-0.235,
5804,-0.795,-0.235,
5805,-0.815,-0.25,
5806,-0.84,-0.25,
5807,-0.83,-0.24,
5808,-0.835,-0.235,
5809,-0.835,-0.23,
5810,-0.835,-0.215,
5811,-0.82,-0.215,
5812,-0.81,-0.21,
5813,-0.825,-0.22,
5814,-0.825,-0.215,
5815,-0.835,-0.23,
5816,-0.835,-0.235,
5817,-0.825,-0.235,
5818,-0.825,-0.245,
5819,-0.825,-0.225,
5820,-0.825,-0.23,
5821,-0.815,-0.22,
5822,-0.815,-0.215,
5823,-0.81,-0.215,
5824,-0.8,-0.205,
5825,-0.805,-0.21,
5826,-0.795,-0.205,
5827,-0.79,-0.22,
5828,-0.79,-0.22,
5829,-0.785,-0.21,
5830,-0.775,-0.2,
5831,-0.77,-0.19,
5832,-0.77,-0.175,
5833,-0.745,-0.175,
5834,-0.745,-0.19,
5835,-0.73,-0.225,
5836,-0.7,-0.275,
5837,-0.665,-0.36,
5838,-0.58,-0.46,
5839,-0.485,-0.565,
5840,-0.3,-0.64,
5841,-0.05,-0.675,
5842,0.28,-0.68,
5843,0.66,-0.635,
5844,1.05,-0.555,
5845,1.335,-0.44,N
5846,1.46,-0.35,
5847,1.38,-0.255,
5848,1.035,-0.215,
5849,0.46,-0.185,
5850,-0.18,-0.185,
5851,-0.82,-0.205,
5852,-1.36,-0.24,
5853,-1.605,-0.265,
5854,-1.595,-0.28,
5855,-1.415,-0.275,
5856,-1.175,-0.275,
5857,-0.945,-0.235,
5858,-0.785,-0.2,
5859,-0.69,-0.17,
5860,-0.665,-0.15,
5861,-0.665,-0.14,
5862,-0.695,-0.155,
5863,-0.705,-0.16,
5864,-0.735,-0.17,
5865,-0.75,-0.185,
5866,-0.755,-0.19,
5867,-0.76,-0.18,
5868,-0.755,-0.17,
5869,-0.75,-0.175,
5870,-0.735,-0.165,
5871,-0.735,-0.165,
5872,-0.725,-0.16,
5873,-0.725,-0.165,
5874,-0.715,-0.17,
5875,-0.715,-0.17,
5876,-0.72,-0.185,
5877,-0.725,-0.185,
5878,-0.735,-0.195,
5879,-0.73,-0.18,
5880,-0.74,-0.19,
5881,-0.725,-0.18,
5882,-0.715,-0.17,
5883,-0.71,-0.16,
5884,-0.695,-0.18,
5885,-0.71,-0.185,
5886,-0.71,-0.18,
5887,-0.725,-0.18,
5888,-0.725,-0.19,
5889,-0.72,-0.195,
5890,-0.74,-0.2,
5891,-0.73,-0.2,
5892,-0.73,-0.195,
5893,-0.73,-0.185,
5894,-0.72,-0.18,
5895,-0.705,-0.18,
5896,-0.705,-0.17,
5897,-0.705,-0.185,
5898,-0.7,-0.18,
5899,-0.7,-0.185,
5900,-0.7,-0.2,
5901,-0.715,-0.205,
5902,-0.715,-0.2,
5903,-0.71,-0.2,
5904,-0.695,-0.195,
5905,-0.69,-0.18,
5906,-0.7,-0.175,
5907,-0.7,-0.175,
5908,-0.705,-0.175,
5909,-0.705,-0.185,
5910,-0.7,-0.175,
5911,-0.695,-0.2,
5912,-0.7,-0.2,
5913,-0.705,-0.21,
5914,-0.71,-0.21,
5915,-0.705,-0.21,
5916,-0.715,-0.21,
5917,-0.705,-0.19,
5918,-0.7,-0.195,
5919,-0.705,-0.19,
5920,-0.68,-0.19,
5921,-0.675,-0.2,
5922,-0.685,-0.2,
5923,-0.67,-0.215,
5924,-0.685,-0.21,
5925,-0.69,-0.215,
5926,-0.71,-0.215,
5927,-0.705,-0.215,
5928,-0.705,-0.22,
5929,-0.695,-0.205,
5930,-0.685,-0.2,
5931,-0.665,-0.19,
5932,-0.65,-0.185,
5933,-0.635,-0.195,
5934,-0.645,-0.185,
5935,-0.64,-0.21,
5936,-0.645,-0.215,
5937,-0.65,-0.23,
5938,-0.655,-0.23,
5939,-0.655,-0.215,
5940,-0.665,-0.215,
5941,-0.64,-0.21,
5942,-0.64,-0.2,
5943,-0.62,-0.2,
5944,-0.605,-0.19,
5945,-0.61,-0.21,
5946,-0.595,-0.205,
5947,-0.605,-0.215,
5948,-0.595,-0.225,
5949,-0.61,-0.23,
5950,-0.605,-0.225,
5951,-0.605,-0.22,
5952,-0.61,-0.24,
5953,-0.61,-0.23,
5954,-0.6,-0.24,
5955,-0.585,-0.225,
5956,-0.59,-0.215,
5957,-0.585,-0.225,
5958,-0.59,-0.23,
5959,-0.585,-0.235,
5960,-0.59,-0.24,
5961,-0.59,-0.25,
5962,-0.59,-0.24,
5963,-0.59,-0.235,
5964,-0.59,-0.23,
5965,-0.59,-0.225,
5966,-0.565,-0.22,
5967,-0.57,-0.205,
5968,-0.57,-0.21,
5969,-0.58,-0.21,
5970,-0.56,-0.22,
5971,-0.565,-0.215,
5972,-0.58,-0.23,
5973,-0.58,-0.23,
5974,-0.605,-0.23,
5975,-0.59,-0.22,
5976,-0.6,-0.215,
5977,-0.61,-0.22,
5978,-0.605,-0.195,
5979,-0.61,-0.19,
5980,-0.62,-0.185,
5981,-0.63,-0.185,
5982,-0.65,-0.19,
5983,-0.675,-0.2,
5984,-0.695,-0.2,
5985,-0.73,-0.205,
5986,-0.75,-0.21,
5987,-0.765,-0.2,
5988,-0.78,-0.2,
5989,-0.785,-0.195,
5990,-0.8,-0.165,
5991,-0.8,-0.17,
5992,-0.805,-0.165,
5993,-0.815,-0.17,
5994,-0.81,-0.175,
5995,-0.825,-0.18,
5996,-0.835,-0.185,
5997,-0.84,-0.19,
5998,-0.855,-0.185,
5999,-0.87,-0.185,
6000,-0.865,-0.18,
6001,-0.855,-0.175,
6002,-0.85,-0.165,
6003,-0.845,-0.16,
6004,-0.85,-0.17,
6005,-0.845,-0.155,
6006,-0.855,-0.17,
6007,-0.865,-0.17,
6008,-0.86,-0.175,
6009,-0.865,-0.175,
6010,-0.87,-0.175,
6011,-0.865,-0.165,
6012,-0.865,-0.175,
6013,-0.865,-0.175,
6014,-0.875,-0.155,
6015,-0.855,-0.15,
6016,-0.845,-0.15,
6017,-0.84,-0.165,
6018,-0.84,-0.145,
6019,-0.84,-0.17,
6020,-0.855,-0.18,
6021,-0.85,-0.2,
6022,-0.855,-0.185,
6023,-0.85,-0.18,
6024,-0.845,-0.175,
6025,-0.84,-0.165,
6026,-0.83,-0.16,
6027,-0.825,-0.16,
6028,-0.81,-0.15,
6029,-0.81,-0.16,
6030,-0.82,-0.165,
6031,-0.805,-0.175,
6032,-0.83,-0.18,
6033,-0.825,-0.2,
6034,-0.83,-0.205,
6035,-0.825,-0.19,
6036,-0.825,-0.18,
6037,-0.84,-0.18,
6038,-0.82,-0.165,
6039,-0.825,-0.17,
6040,-0.82,-0.155,
6041,-0.815,-0.175,
6042,-0.81,-0.175,
6043,-0.83,-0.185,
6044,-0.835,-0.19,
6045,-0.84,-0.195,
6046,-0.835,-0.19,
6047,-0.86,-0.195,
6048,-0.845,-0.195,
6049,-0.845,-0.185,
6050,-0.84,-0.175,
6051,-0.84,-0.165,
6052,-0.83,-0.175,
6053,-0.835,-0.175,
6054,-0.83,-0.17,
6055,-0.845,-0.18,
6056,-0.845,-0.195,
6057,-0.865,-0.195,
6058,-0.87,-0.21,
6059,-0.87,-0.19,
6060,-0.865,-0.2,
6061,-0.86,-0.19,
6062,-0.86,-0.175,
6063,-0.86,-0.17,
6064,-0.855,-0.165,
6065,-0.845,-0.17,
6066,-0.845,-0.17,
6067,-0.855,-0.175,
6068,-0.86,-0.19,
6069,-0.855,-0.19,
6070,-0.875,-0.195,
6071,-0.88,-0.19,
6072,-0.875,-0.19,
6073,-0.87,-0.17,
6074,-0.865,-0.16,
6075,-0.855,-0.135,
6076,-0.85,-0.135,
6077,-0.85,-0.14,
6078,-0.835,-0.14,
6079,-0.835,-0.14,
6080,-0.84,-0.14,
6081,-0.83,-0.15,
6082,-0.82,-0.145,
6083,-0.83,-0.145,
6084,-0.82,-0.14,
6085,-0.81,-0.135,
6086,-0.79,-0.15,
6087,-0.785,-0.15,
6088,-0.765,-0.155,
6089,-0.75,-0.18,
6090,-0.735,-0.185,
6091,-0.72,-0.19,
6092,-0.725,-0.19,
6093,-0.725,-0.185,
6094,-0.725,-0.19,
6095,-0.735,-0.185,
6096,-0.75,-0.18,
6097,-0.755,-0.18,
6098,-0.735,-0.175,
6099,-0.735,-0.175,
6100,-0.72,-0.155,
6101,-0.72,-0.16,
6102,-0.725,-0.165,
6103,-0.735,-0.18,
6104,-0.75,-0.19,
6105,-0.77,-0.195,
6106,-0.79,-0.21,
6107,-0.805,-0.21,
6108,-0.825,-0.22,
6109,-0.835,-0.21,
6110,-0.85,-0.19,
6111,-0.865,-0.19,
6112,-0.865,-0.19,
6113,-0.885,-0.195,
6114,-0.885,-0.21,
6115,-0.885,-0.215,
6116,-0.895,-0.21,
6117,-0.9,-0.23,
6118,-0.905,-0.225,
6119,-0.9,-0.22,
6120,-0.915,-0.225,
6121,-0.915,-0.22,
6122,-0.91,-0.2,
6123,-0.9,-0.2,
6124,-0.905,-0.18,
6125,-0.905,-0.205,
6126,-0.9,-0.21,
6127,-0.895,-0.205,
6128,-0.91,-0.22,
6129,-0.915,-0.225,
6130,-0.92,-0.225,
6131,-0.935,-0.22,
6132,-0.93,-0.22,
6133,-0.92,-0.215,
6134,-0.915,-0.205,
6135,-0.92,-0.21,
6136,-0.89,-0.19,
6137,-0.89,-0.21,
6138,-0.905,-0.205,
6139,-0.91,-0.215,
6140,-0.91,-0.21,
6141,-0.905,-0.22,
6142,-0.92,-0.225,
6143,-0.91,-0.205,
6144,-0.9,-0.205,
6145,-0.885,-0.19,
6146,-0.86,-0.175,
6147,-0.845,-0.155,
6148,-0.82,-0.145,
6149,-0.82,-0.17,
6150,-0.83,-0.185,
6151,-0.82,-0.22,
6152,-0.8,-0.29,
6153,-0.785,-0.35,
6154,-0.705,-0.425,
6155,-0.61,-0.52,
6156,-0.445,-0.6,
6157,-0.185,-0.655,
6158,0.165,-0.66,
6159,0.59,-0.63,
6160,1.025,-0.55,
6161,1.35,-0.47,N
6162,1.475,-0.365,
6163,1.315,-0.275,
6164,0.815,-0.23,
6165,0.175,-0.21,
6166,-0.465,-0.235,
6167,-1.105,-0.24,
6168,-1.655,-0.27,
6169,-1.68,-0.275,
6170,-1.47,-0.27,
6171,-1.2,-0.245,
6172,-0.93,-0.185,
6173,-0.745,-0.175,
6174,-0.66,-0.155,
6175,-0.645,-0.16,
6176,-0.69,-0.17,
6177,-0.75,-0.18,
6178,-0.81,-0.205,
6179,-0.845,-0.2,
6180,-0.855,-0.2,
6181,-0.845,-0.185,
6182,-0.825,-0.165,
6183,-0.805,-0.16,
6184,-0.79,-0.16,
6185,-0.785,-0.165,
6186,-0.795,-0.165,
6187,-0.78,-0.18,
6188,-0.805,-0.18,
6189,-0.805,-0.2,
6190,-0.8,-0.2,
6191,-0.815,-0.19,
6192,-0.82,-0.19,
6193,-0.805,-0.19,
6194,-0.78,-0.17,
6195,-0.79,-0.175,
6196,-0.775,-0.18,
6197,-0.765,-0.185,
6198,-0.795,-0.18,
6199,-0.795,-0.185,
6200,-0.8,-0.195,
6201,-0.79,-0.205,
6202,-0.795,-0.2,
6203,-0.795,-0.2,
6204,-0.795,-0.205,
6205,-0.805,-0.185,
6206,-0.79,-0.19,
6207,-0.78,-0.185,
6208,-0.77,-0.185,
6209,-0.755,-0.19,
6210,-0.765,-0.19,
6211,-0.775,-0.19,
6212,-0.78,-0.2,
6213,-0.78,-0.215,
6214,-0.785,-0.21,
6215,-0.78,-0.21,
6216,-0.78,-0.2,
6217,-0.78,-0.205,
6218,-0.765,-0.2,
6219,-0.775,-0.205,
6220,-0.755,-0.185,
6221,-0.755,-0.19,
6222,-0.76,-0.195,
6223,-0.77,-0.215,
6224,-0.765,-0.215,
6225,-0.77,-0.215,
6226,-0.77,-0.225,
6227,-0.765,-0.215,
6228,-0.765,-0.21,
6229,-0.76,-0.205,
6230,-0.75,-0.2,
6231,-0.76,-0.19,
6232,-0.735,-0.2,
6233,-0.74,-0.205,
6234,-0.735,-0.205,
6235,-0.735,-0.21,
6236,-0.73,-0.225,
6237,-0.74,-0.23,
6238,-0.745,-0.23,
6239,-0.745,-0.22,
6240,-0.745,-0.215,
6241,-0.735,-0.205,
6242,-0.735,-0.195,
6243,-0.725,-0.195,
6244,-0.725,-0.195,
6245,-0.7,-0.195,
6246,-0.7,-0.2,
6247,-0.7,-0.22,
6248,-0.705,-0.215,
6249,-0.705,-0.225,
6250,-0.71,-0.23,
6251,-0.71,-0.225,
6252,-0.71,-0.215,
6253,-0.71,-0.215,
6254,-0.69,-0.215,
6255,-0.695,-0.21,
6256,-0.665,-0.205,
6257,-0.64,-0.2,
6258,-0.655,-0.205,
6259,-0.64,-0.215,
6260,-0.64,-0.225,
6261,-0.645,-0.225,
6262,-0.65,-0.235,
6263,-0.655,-0.24,
6264,-0.655,-0.24,
6265,-0.65,-0.22,
6266,-0.64,-0.23,
6267,-0.64,-0.215,
6268,-0.625,-0.21,
6269,-0.615,-0.215,
6270,-0.62,-0.225,
6271,-0.61,-0.23,
6272,-0.615,-0.25,
6273,-0.62,-0.25,
6274,-0.61,-0.255,
6275,-0.625,-0.24,
6276,-0.63,-0.24,
6277,-0.62,-0.235,
6278,-0.615,-0.23,
6279,-0.595,-0.22,
6280,-0.6,-0.225,
6281,-0.595,-0.22,
6282,-0.595,-0.22,
6283,-0.59,-0.225,
6284,-0.61,-0.235,
6285,-0.615,-0.24,
6286,-0.625,-0.245,
6287,-0.64,-0.24,
6288,-0.645,-0.225,
6289,-0.645,-0.225,
6290,-0.655,-0.21,
6291,-0.675,-0.21,
6292,-0.685,-0.2,
6293,-0.695,-0.205,
6294,-0.705,-0.21,
6295,-0.725,-0.22,
6296,-0.74,-0.22,
6297,-0.76,-0.22,
6298,-0.785,-0.235,
6299,-0.81,-0.22,
6300,-0.825,-0.22,
6301,-0.835,-0.215,
6302,-0.83,-0.2,
6303,-0.84,-0.195,
6304,-0.855,-0.195,
6305,-0.85,-0.2,
6306,-0.865,-0.195,
6307,-0.865,-0.205,
6308,-0.875,-0.215,
6309,-0.89,-0.215,
6310,-0.89,-0.225,
6311,-0.9,-0.215,
6312,-0.91,-0.205,
6313,-0.91,-0.195,
6314,-0.905,-0.205,
6315,-0.89,-0.185,
6316,-0.885,-0.185,
6317,-0.885,-0.185,
6318,-0.885,-0.2,
6319,-0.89,-0.2,
6320,-0.89,-0.21,
6321,-0.89,-0.22,
6322,-0.9,-0.215,
6323,-0.905,-0.21,
6324,-0.9,-0.225,
6325,-0.905,-0.195,
6326,-0.89,-0.205,
6327,-0.89,-0.195,
6328,-0.885,-0.18,
6329,-0.865,-0.195,
6330,-0.87,-0.205,
6331,-0.865,-0.205,
6332,-0.875,-0.215,
6333,-0.865,-0.215,
6334,-0.885,-0.22,
6335,-0.875,-0.21,
6336,-0.875,-0.21,
6337,-0.865,-0.205,
6338,-0.86,-0.2,
6339,-0.84,-0.205,
6340,-0.845,-0.19,
6341,-0.835,-0.195,
6342,-0.84,-0.195,
6343,-0.84,-0.205,
6344,-0.84,-0.215,
6345,-0.84,-0.225,
6346,-0.845,-0.235,
6347,-0.845,-0.23,
6348,-0.84,-0.215,
6349,-0.845,-0.22,
6350,-0.84,-0.21,
6351,-0.845,-0.2,
6352,-0.835,-0.21,
6353,-0.835,-0.21,
6354,-0.83,-0.21,
6355,-0.845,-0.225,
6356,-0.845,-0.225,
6357,-0.86,-0.23,
6358,-0.86,-0.23,
6359,-0.855,-0.25,
6360,-0.855,-0.23,
6361,-0.85,-0.23,
6362,-0.855,-0.215,
6363,-0.855,-0.215,
6364,-0.84,-0.22,
6365,-0.84,-0.225,
6366,-0.845,-0.22,
6367,-0.855,-0.23,
6368,-0.845,-0.24,
6369,-0.85,-0.25,
6370,-0.865,-0.245,
6371,-0.875,-0.245,
6372,-0.875,-0.23,
6373,-0.87,-0.23,
6374,-0.865,-0.22,
6375,-0.855,-0.225,
6376,-0.86,-0.215,
6377,-0.845,-0.225,
6378,-0.845,-0.21,
6379,-0.87,-0.23,
6380,-0.86,-0.23,
6381,-0.865,-0.235,
6382,-0.875,-0.245,
6383,-0.87,-0.24,
6384,-0.88,-0.235,
6385,-0.89,-0.23,
6386,-0.885,-0.23,
6387,-0.88,-0.22,
6388,-0.87,-0.22,
6389,-0.86,-0.22,
6390,-0.865,-0.21,
6391,-0.87,-0.225,
6392,-0.88,-0.235,
6393,-0.885,-0.245,
6394,-0.89,-0.245,
6395,-0.89,-0.245,
6396,-0.9,-0.235,
6397,-0.885,-0.235,
6398,-0.895,-0.225,
6399,-0.88,-0.22,
6400,-0.865,-0.22,
6401,-0.86,-0.22,
6402,-0.865,-0.225,
6403,-0.86,-0.23,
6404,-0.875,-0.235,
6405,-0.86,-0.24,
6406,-0.88,-0.24,
6407,-0.875,-0.235,
6408,-0.885,-0.23,
6409,-0.875,-0.21,
6410,-0.875,-0.2,
6411,-0.87,-0.19,
6412,-0.85,-0.18,
6413,-0.835,-0.175,
6414,-0.835,-0.165,
6415,-0.83,-0.17,
6416,-0.82,-0.18,
6417,-0.815,-0.18,
6418,-0.81,-0.18,
6419,-0.82,-0.185,
6420,-0.795,-0.195,
6421,-0.8,-0.195,
6422,-0.79,-0.2,
6423,-0.765,-0.21,
