,MLII,V1,symbol
0,-0.32,-1.24,
1,-0.32,-1.24,
2,-0.32,-1.24,
3,-0.32,-1.24,
4,-0.32,-1.24,
5,-0.32,-1.24,
6,-0.32,-1.24,
7,-0.32,-1.31,
8,-0.025,-1.375,
9,0.265,-1.445,
10,0.58,-1.515,
11,0.925,-1.565,
12,1.31,-1.575,
13,1.67,-1.575,
14,2.01,-1.54,
15,2.24,-1.465,
16,2.315,-1.365,
17,2.185,-1.245,
18,1.77,-1.145,
19,1.13,-1.055,
20,0.49,-1.02,
21,-0.15,-0.975,
22,-0.79,-0.945,
23,-1.43,-0.91,
24,-1.64,-0.87,
25,-1.385,-0.85,
26,-1.105,-0.85,
27,-0.92,-0.865,
28,-0.855,-0.88,
29,-0.9,-0.885,
30,-0.995,-0.875,
31,-1.09,-0.85,
32,-1.17,-0.835,
33,-1.2,-0.82,
34,-1.18,-0.8,
35,-1.185,-0.805,
36,-1.155,-0.765,
37,-1.145,-0.765,
38,-1.125,-0.775,
39,-1.135,-0.785,
40,-1.155,-0.795,
41,-1.165,-0.79,
42,-1.175,-0.79,
43,-1.185,-0.775,
44,-1.185,-0.78,
45,-1.185,-0.755,
46,-1.145,-0.755,
47,-1.135,-0.735,
48,-1.12,-0.755,
49,-1.1,-0.76,
50,-1.075,-0.76,
51,-1.09,-0.77,
52,-1.1,-0.79,
53,-1.105,-0.795,
54,-1.11,-0.78,
55,-1.11,-0.775,
56,-1.115,-0.76,
57,-1.11,-0.74,
58,-1.075,-0.725,
59,-1.08,-0.735,
60,-1.05,-0.73,
61,-1.035,-0.73,
62,-1.035,-0.74,
63,-1.025,-0.75,
64,-1.02,-0.73,
65,-1.01,-0.76,
66,-1.0,-0.755,
67,-1.0,-0.755,
68,-0.98,-0.73,
69,-0.96,-0.72,
70,-0.935,-0.69,
71,-0.92,-0.68,
72,-0.895,-0.68,
73,-0.885,-0.69,
74,-0.895,-0.705,
75,-0.865,-0.71,
76,-0.84,-0.71,
77,-0.83,-0.7,
78,-0.82,-0.695,
79,-0.81,-0.67,
80,-0.775,-0.655,
81,-0.735,-0.64,
82,-0.695,-0.635,
83,-0.655,-0.625,
84,-0.61,-0.62,
85,-0.575,-0.625,
86,-0.555,-0.63,
87,-0.515,-0.64,
88,-0.515,-0.64,
89,-0.49,-0.65,
90,-0.485,-0.645,
91,-0.47,-0.64,
92,-0.47,-0.625,
93,-0.445,-0.615,
94,-0.425,-0.6,
95,-0.395,-0.575,
96,-0.355,-0.575,
97,-0.34,-0.59,
98,-0.335,-0.595,
99,-0.34,-0.625,
100,-0.35,-0.64,
101,-0.375,-0.65,
102,-0.39,-0.64,
103,-0.415,-0.625,
104,-0.44,-0.625,
105,-0.48,-0.625,
106,-0.495,-0.63,
107,-0.53,-0.645,
108,-0.565,-0.645,
109,-0.605,-0.66,
110,-0.66,-0.68,
111,-0.7,-0.7,
112,-0.74,-0.71,
113,-0.8,-0.74,
114,-0.835,-0.735,
115,-0.895,-0.71,
116,-0.945,-0.725,
117,-0.99,-0.725,
118,-1.02,-0.725,
119,-1.05,-0.73,
120,-1.06,-0.7,
121,-1.09,-0.695,
122,-1.12,-0.68,
123,-1.12,-0.71,
124,-1.145,-0.74,
125,-1.17,-0.79,
126,-1.205,-0.81,
127,-1.255,-0.82,
128,-1.26,-0.79,
129,-1.26,-0.775,
130,-1.245,-0.725,
131,-1.225,-0.72,
132,-1.215,-0.735,
133,-1.215,-0.75,
134,-1.23,-0.76,
135,-1.24,-0.765,
136,-1.245,-0.78,
137,-1.26,-0.775,
138,-1.265,-0.775,
139,-1.275,-0.735,
140,-1.27,-0.745,
141,-1.28,-0.745,
142,-1.26,-0.745,
143,-1.26,-0.74,
144,-1.235,-0.75,
145,-1.24,-0.735,
146,-1.24,-0.73,
147,-1.235,-0.735,
148,-1.245,-0.75,
149,-1.245,-0.745,
150,-1.25,-0.75,
151,-1.27,-0.755,
152,-1.265,-0.74,
153,-1.245,-0.73,
154,-1.23,-0.72,
155,-1.21,-0.715,
156,-1.205,-0.71,
157,-1.215,-0.7,
158,-1.23,-0.72,
159,-1.235,-0.73,
160,-1.25,-0.725,
161,-1.265,-0.74,
162,-1.265,-0.72,
163,-1.27,-0.705,
164,-1.27,-0.72,
165,-1.265,-0.705,
166,-1.25,-0.71,
167,-1.24,-0.725,
168,-1.225,-0.735,
169,-1.235,-0.76,
170,-1.245,-0.76,
171,-1.26,-0.74,
172,-1.28,-0.76,
173,-1.3,-0.75,
174,-1.3,-0.755,+
175,-1.305,-0.775,
176,-1.305,-0.785,
177,-1.285,-0.775,
178,-1.29,-0.755,
179,-1.295,-0.745,
180,-1.295,-0.725,
181,-1.3,-0.715,
182,-1.305,-0.715,
183,-1.31,-0.76,
184,-1.325,-0.77,
185,-1.315,-0.79,
186,-1.34,-0.79,
187,-1.34,-0.775,
188,-1.345,-0.78,
189,-1.325,-0.75,
190,-1.33,-0.735,
191,-1.315,-0.72,
192,-1.305,-0.7,
193,-1.295,-0.71,
194,-1.305,-0.725,
195,-1.3,-0.74,
196,-1.305,-0.76,
197,-1.32,-0.765,
198,-1.335,-0.765,
199,-1.335,-0.755,
200,-1.36,-0.775,
201,-1.355,-0.76,
202,-1.35,-0.73,
203,-1.355,-0.73,
204,-1.34,-0.715,
205,-1.345,-0.705,
206,-1.35,-0.705,
207,-1.375,-0.725,
208,-1.385,-0.735,
209,-1.385,-0.78,
210,-1.365,-0.755,
211,-1.365,-0.76,
212,-1.37,-0.75,
213,-1.36,-0.725,
214,-1.345,-0.7,
215,-1.325,-0.67,
216,-1.305,-0.665,
217,-1.27,-0.65,
218,-1.27,-0.665,
219,-1.265,-0.65,
220,-1.275,-0.67,
221,-1.305,-0.69,
222,-1.325,-0.695,
223,-1.33,-0.7,
224,-1.325,-0.72,
225,-1.3,-0.715,
226,-1.27,-0.705,
227,-1.255,-0.705,
228,-1.24,-0.695,
229,-1.235,-0.685,
230,-1.21,-0.7,
231,-1.195,-0.68,
232,-1.195,-0.69,
233,-1.2,-0.7,
234,-1.205,-0.72,
235,-1.2,-0.74,
236,-1.2,-0.775,
237,-1.205,-0.76,
238,-1.215,-0.74,
239,-1.21,-0.7,
240,-1.215,-0.69,
241,-1.23,-0.69,
242,-1.245,-0.695,
243,-1.26,-0.725,
244,-1.28,-0.735,
245,-1.3,-0.755,
246,-1.31,-0.77,
247,-1.35,-0.765,
248,-1.375,-0.77,
249,-1.385,-0.745,
250,-1.4,-0.75,
251,-1.4,-0.74,
252,-1.4,-0.755,
253,-1.4,-0.75,
254,-1.39,-0.76,
255,-1.375,-0.76,
256,-1.385,-0.775,
257,-1.38,-0.78,
258,-1.39,-0.775,
259,-1.41,-0.775,
260,-1.425,-0.76,
261,-1.43,-0.74,
262,-1.42,-0.74,
263,-1.42,-0.715,
264,-1.4,-0.695,
265,-1.385,-0.7,
266,-1.395,-0.71,
267,-1.395,-0.74,
268,-1.395,-0.775,
269,-1.375,-0.825,
270,-1.34,-0.86,
271,-1.29,-0.905,
272,-1.205,-0.945,
273,-1.045,-0.97,
274,-0.87,-1.005,
275,-0.625,-1.035,
276,-0.38,-1.08,
277,-0.105,-1.135,
278,0.135,-1.195,
279,0.395,-1.28,
280,0.665,-1.35,
281,0.975,-1.36,
282,1.255,-1.31,N
283,1.43,-1.205,
284,1.45,-1.08,
285,1.205,-0.97,
286,0.665,-0.92,
287,0.025,-0.885,
288,-0.615,-0.89,
289,-1.255,-0.875,
290,-1.895,-0.87,
291,-2.07,-0.855,
292,-1.9,-0.825,
293,-1.64,-0.785,
294,-1.39,-0.745,
295,-1.235,-0.725,
296,-1.185,-0.72,
297,-1.2,-0.72,
298,-1.24,-0.72,
299,-1.285,-0.74,
300,-1.32,-0.715,
301,-1.35,-0.72,
302,-1.36,-0.71,
303,-1.36,-0.71,
304,-1.365,-0.71,
305,-1.365,-0.695,
306,-1.365,-0.72,
307,-1.395,-0.71,
308,-1.395,-0.715,
309,-1.38,-0.695,
310,-1.38,-0.69,
311,-1.365,-0.695,
312,-1.335,-0.675,
313,-1.305,-0.685,
314,-1.29,-0.685,
315,-1.285,-0.695,
316,-1.295,-0.695,
317,-1.3,-0.715,
318,-1.29,-0.71,
319,-1.29,-0.715,
320,-1.295,-0.695,
321,-1.275,-0.685,
322,-1.26,-0.66,
323,-1.235,-0.675,
324,-1.225,-0.63,
325,-1.225,-0.635,
326,-1.215,-0.65,
327,-1.21,-0.665,
328,-1.23,-0.69,
329,-1.215,-0.695,
330,-1.195,-0.705,
331,-1.19,-0.705,
332,-1.18,-0.695,
333,-1.155,-0.68,
334,-1.135,-0.665,
335,-1.1,-0.665,
336,-1.075,-0.665,
337,-1.065,-0.655,
338,-1.045,-0.68,
339,-1.035,-0.67,
340,-1.04,-0.685,
341,-1.045,-0.675,
342,-1.025,-0.665,
343,-1.025,-0.675,
344,-1.015,-0.65,
345,-0.98,-0.64,
346,-0.945,-0.625,
347,-0.925,-0.615,
348,-0.875,-0.595,
349,-0.855,-0.605,
350,-0.83,-0.615,
351,-0.81,-0.6,
352,-0.77,-0.61,
353,-0.75,-0.625,
354,-0.73,-0.63,
355,-0.755,-0.62,
356,-0.7,-0.62,
357,-0.705,-0.59,
358,-0.685,-0.575,
359,-0.66,-0.565,
360,-0.635,-0.575,
361,-0.61,-0.595,
362,-0.6,-0.6,
363,-0.6,-0.62,
364,-0.6,-0.615,
365,-0.6,-0.62,
366,-0.605,-0.605,
367,-0.62,-0.595,
368,-0.615,-0.585,
369,-0.64,-0.585,
370,-0.64,-0.6,
371,-0.65,-0.625,
372,-0.665,-0.61,
373,-0.7,-0.62,
374,-0.75,-0.625,
375,-0.77,-0.63,
376,-0.83,-0.655,
377,-0.885,-0.675,
378,-0.925,-0.69,
379,-0.975,-0.68,
380,-0.995,-0.675,
381,-1.01,-0.675,
382,-1.055,-0.675,
383,-1.065,-0.68,
384,-1.07,-0.69,
385,-1.08,-0.69,
386,-1.115,-0.695,
387,-1.13,-0.705,
388,-1.155,-0.715,
389,-1.18,-0.725,
390,-1.21,-0.715,
391,-1.235,-0.75,
392,-1.24,-0.735,
393,-1.23,-0.745,
394,-1.225,-0.765,
395,-1.22,-0.745,
396,-1.215,-0.735,
397,-1.22,-0.735,
398,-1.21,-0.745,
399,-1.23,-0.745,
400,-1.235,-0.74,
401,-1.245,-0.745,
402,-1.25,-0.74,
403,-1.25,-0.73,
404,-1.255,-0.725,
405,-1.25,-0.715,
406,-1.24,-0.72,
407,-1.23,-0.72,
408,-1.215,-0.72,
409,-1.2,-0.715,
410,-1.205,-0.745,
411,-1.2,-0.765,
412,-1.215,-0.77,
413,-1.22,-0.755,
414,-1.19,-0.75,
415,-1.2,-0.73,
416,-1.19,-0.72,
417,-1.185,-0.72,
418,-1.165,-0.69,
419,-1.15,-0.67,
420,-1.15,-0.69,
421,-1.14,-0.705,
422,-1.145,-0.7,
423,-1.145,-0.725,
424,-1.155,-0.745,
425,-1.165,-0.755,
426,-1.155,-0.78,
427,-1.15,-0.77,
428,-1.15,-0.775,
429,-1.15,-0.76,
430,-1.16,-0.755,
431,-1.16,-0.74,
432,-1.155,-0.715,
433,-1.145,-0.715,
434,-1.14,-0.73,
435,-1.12,-0.725,
436,-1.135,-0.725,
437,-1.135,-0.725,
438,-1.135,-0.725,
439,-1.165,-0.735,
440,-1.16,-0.72,
441,-1.15,-0.715,
442,-1.145,-0.705,
443,-1.145,-0.695,
444,-1.135,-0.68,
445,-1.14,-0.68,
446,-1.175,-0.68,
447,-1.17,-0.705,
448,-1.185,-0.725,
449,-1.195,-0.765,
450,-1.19,-0.78,
451,-1.19,-0.79,
452,-1.21,-0.775,
453,-1.205,-0.76,
454,-1.18,-0.75,
455,-1.175,-0.75,
456,-1.16,-0.745,
457,-1.17,-0.75,
458,-1.175,-0.73,
459,-1.185,-0.73,
460,-1.175,-0.72,
461,-1.185,-0.755,
462,-1.195,-0.785,
463,-1.2,-0.8,
464,-1.2,-0.82,
465,-1.205,-0.82,
466,-1.21,-0.785,
467,-1.21,-0.755,
468,-1.175,-0.735,
469,-1.175,-0.71,
470,-1.165,-0.695,
471,-1.15,-0.72,
472,-1.165,-0.73,
473,-1.19,-0.745,
474,-1.205,-0.765,
475,-1.235,-0.79,
476,-1.24,-0.785,
477,-1.22,-0.77,
478,-1.205,-0.76,
479,-1.2,-0.75,
480,-1.19,-0.735,
481,-1.205,-0.73,
482,-1.195,-0.74,
483,-1.2,-0.745,
484,-1.225,-0.765,
485,-1.205,-0.765,
486,-1.215,-0.76,
487,-1.21,-0.73,
488,-1.205,-0.705,
489,-1.2,-0.67,
490,-1.16,-0.675,
491,-1.14,-0.68,
492,-1.125,-0.71,
493,-1.12,-0.71,
494,-1.115,-0.72,
495,-1.105,-0.715,
496,-1.09,-0.695,
497,-1.09,-0.695,
498,-1.105,-0.685,
499,-1.105,-0.695,
500,-1.11,-0.695,
501,-1.115,-0.7,
502,-1.095,-0.715,
503,-1.09,-0.715,
504,-1.075,-0.705,
505,-1.05,-0.715,
506,-1.05,-0.73,
507,-1.015,-0.74,
508,-0.995,-0.755,
509,-0.985,-0.765,
510,-0.97,-0.775,
511,-0.965,-0.77,
512,-0.99,-0.765,
513,-1.005,-0.74,
514,-1.015,-0.72,
515,-0.995,-0.715,
516,-0.995,-0.705,
517,-0.985,-0.705,
518,-0.99,-0.73,
519,-1.005,-0.73,
520,-1.035,-0.745,
521,-1.065,-0.745,
522,-1.075,-0.75,
523,-1.11,-0.745,
524,-1.145,-0.74,
525,-1.155,-0.735,
526,-1.185,-0.725,
527,-1.18,-0.74,
528,-1.185,-0.735,
529,-1.2,-0.76,
530,-1.21,-0.75,
531,-1.21,-0.75,
532,-1.22,-0.755,
533,-1.205,-0.755,
534,-1.21,-0.755,
535,-1.205,-0.75,
536,-1.205,-0.74,
537,-1.2,-0.74,
538,-1.2,-0.715,
539,-1.2,-0.72,
540,-1.185,-0.705,
541,-1.175,-0.72,
542,-1.175,-0.74,
543,-1.17,-0.74,
544,-1.205,-0.75,
545,-1.23,-0.77,
546,-1.215,-0.8,
547,-1.205,-0.825,
548,-1.19,-0.825,
549,-1.135,-0.89,
550,-1.02,-0.94,
551,-0.87,-1.015,
552,-0.66,-1.09,
553,-0.36,-1.185,
554,-0.02,-1.255,
555,0.35,-1.34,
556,0.74,-1.42,
557,1.13,-1.51,
558,1.52,-1.545,
559,1.875,-1.56,
560,2.135,-1.51,
561,2.315,-1.42,N
562,2.375,-1.285,
563,2.32,-1.17,
564,2.07,-1.03,
565,1.565,-0.95,
566,0.925,-0.915,
567,0.285,-0.915,
568,-0.355,-0.905,
569,-0.995,-0.885,
570,-1.635,-0.855,
571,-1.67,-0.8,
572,-1.4,-0.765,
573,-1.105,-0.725,
574,-0.88,-0.72,
575,-0.8,-0.69,
576,-0.84,-0.71,
577,-0.915,-0.725,
578,-1.02,-0.745,
579,-1.105,-0.75,
580,-1.16,-0.765,
581,-1.16,-0.755,
582,-1.165,-0.73,
583,-1.145,-0.72,
584,-1.15,-0.705,
585,-1.135,-0.675,
586,-1.14,-0.66,
587,-1.145,-0.66,
588,-1.135,-0.675,
589,-1.125,-0.665,
590,-1.135,-0.68,
591,-1.12,-0.685,
592,-1.105,-0.705,
593,-1.1,-0.705,
594,-1.1,-0.69,
595,-1.12,-0.71,
596,-1.115,-0.7,
597,-1.1,-0.705,
598,-1.085,-0.7,
599,-1.065,-0.675,
600,-1.06,-0.665,
601,-1.04,-0.655,
602,-1.04,-0.655,
603,-1.04,-0.64,
604,-1.04,-0.665,
605,-1.03,-0.68,
606,-1.04,-0.69,
607,-1.04,-0.7,
608,-1.025,-0.705,
609,-1.02,-0.675,
610,-1.005,-0.67,
611,-1.0,-0.64,
612,-0.975,-0.635,
613,-0.95,-0.64,
614,-0.955,-0.64,
615,-0.93,-0.67,
616,-0.92,-0.68,
617,-0.915,-0.675,
618,-0.895,-0.67,
619,-0.875,-0.655,
620,-0.86,-0.65,
621,-0.855,-0.62,
622,-0.84,-0.605,
623,-0.825,-0.615,
624,-0.79,-0.61,
625,-0.77,-0.61,
626,-0.72,-0.61,
627,-0.7,-0.615,
628,-0.66,-0.625,
629,-0.66,-0.62,
630,-0.66,-0.63,
631,-0.645,-0.64,
632,-0.63,-0.645,
633,-0.605,-0.62,
634,-0.565,-0.595,
635,-0.515,-0.595,
636,-0.475,-0.56,
637,-0.415,-0.56,
638,-0.38,-0.56,
639,-0.355,-0.555,
640,-0.335,-0.565,
641,-0.33,-0.59,
642,-0.325,-0.575,
643,-0.295,-0.57,
644,-0.275,-0.56,
645,-0.25,-0.535,
646,-0.23,-0.53,
647,-0.21,-0.525,
648,-0.205,-0.55,
649,-0.19,-0.555,
650,-0.21,-0.575,
651,-0.185,-0.585,
652,-0.225,-0.58,
653,-0.225,-0.585,
654,-0.25,-0.59,
655,-0.28,-0.59,
656,-0.305,-0.615,
657,-0.35,-0.605,
658,-0.38,-0.63,
659,-0.435,-0.63,
660,-0.485,-0.64,
661,-0.535,-0.63,
662,-0.615,-0.64,
663,-0.68,-0.665,
664,-0.75,-0.685,
665,-0.815,-0.715,
666,-0.885,-0.74,
667,-0.93,-0.76,
668,-0.975,-0.74,
669,-0.99,-0.73,
670,-0.995,-0.71,
671,-1.02,-0.68,
672,-1.02,-0.675,
673,-1.02,-0.675,
674,-1.04,-0.7,
675,-1.05,-0.71,
676,-1.065,-0.74,
677,-1.09,-0.735,
678,-1.105,-0.745,
679,-1.125,-0.73,
680,-1.125,-0.73,
681,-1.14,-0.715,
682,-1.14,-0.71,
683,-1.135,-0.695,
684,-1.13,-0.665,
685,-1.11,-0.67,
686,-1.11,-0.7,
687,-1.11,-0.715,
688,-1.12,-0.745,
689,-1.145,-0.765,
690,-1.135,-0.77,
691,-1.135,-0.745,
692,-1.145,-0.72,
693,-1.13,-0.72,
694,-1.13,-0.685,
695,-1.115,-0.675,
696,-1.11,-0.67,
697,-1.1,-0.67,
698,-1.095,-0.7,
699,-1.11,-0.695,
700,-1.11,-0.71,
701,-1.11,-0.72,
702,-1.105,-0.74,
703,-1.095,-0.725,
704,-1.105,-0.73,
705,-1.11,-0.73,
706,-1.095,-0.71,
707,-1.085,-0.71,
708,-1.08,-0.69,
709,-1.065,-0.69,
710,-1.06,-0.69,
711,-1.08,-0.685,
712,-1.075,-0.69,
713,-1.09,-0.7,
714,-1.095,-0.705,
715,-1.11,-0.695,
716,-1.115,-0.71,
717,-1.105,-0.7,
718,-1.115,-0.7,
719,-1.125,-0.69,
720,-1.105,-0.675,
721,-1.095,-0.67,
722,-1.075,-0.7,
723,-1.11,-0.705,
724,-1.105,-0.72,
725,-1.115,-0.705,
726,-1.135,-0.725,
727,-1.155,-0.72,
728,-1.16,-0.7,
729,-1.155,-0.7,
730,-1.15,-0.705,
731,-1.145,-0.705,
732,-1.14,-0.705,
733,-1.12,-0.715,
734,-1.135,-0.71,
735,-1.14,-0.695,
736,-1.14,-0.72,
737,-1.16,-0.72,
738,-1.18,-0.73,
739,-1.18,-0.72,
740,-1.175,-0.72,
741,-1.185,-0.715,
742,-1.185,-0.705,
743,-1.185,-0.69,
744,-1.18,-0.685,
745,-1.175,-0.68,
746,-1.19,-0.67,
747,-1.185,-0.685,
748,-1.19,-0.69,
749,-1.185,-0.695,
750,-1.195,-0.73,
751,-1.195,-0.73,
752,-1.2,-0.725,
753,-1.195,-0.73,
754,-1.2,-0.725,
755,-1.19,-0.71,
756,-1.19,-0.695,
757,-1.19,-0.69,
758,-1.2,-0.695,
759,-1.205,-0.685,
760,-1.21,-0.695,
761,-1.21,-0.72,
762,-1.22,-0.735,
763,-1.23,-0.715,
764,-1.235,-0.72,
765,-1.225,-0.705,
766,-1.21,-0.675,
767,-1.195,-0.66,
768,-1.175,-0.645,
769,-1.135,-0.62,
770,-1.125,-0.605,
771,-1.105,-0.605,
772,-1.095,-0.605,
773,-1.115,-0.615,
774,-1.12,-0.645,
775,-1.115,-0.655,
776,-1.13,-0.66,
777,-1.11,-0.665,
778,-1.11,-0.665,
779,-1.1,-0.665,
780,-1.08,-0.63,
781,-1.065,-0.645,
782,-1.04,-0.65,
783,-1.03,-0.665,
784,-1.005,-0.69,
785,-1.01,-0.71,
786,-1.0,-0.715,
787,-1.015,-0.71,
788,-1.01,-0.7,
789,-1.0,-0.685,
790,-1.005,-0.69,
791,-1.0,-0.655,
792,-1.01,-0.655,
793,-1.01,-0.66,
794,-1.03,-0.68,
795,-1.07,-0.695,
796,-1.085,-0.71,
797,-1.09,-0.7,
798,-1.11,-0.69,
799,-1.105,-0.69,
800,-1.125,-0.68,
801,-1.16,-0.68,
802,-1.18,-0.685,
803,-1.195,-0.675,
804,-1.225,-0.685,
805,-1.23,-0.68,
806,-1.23,-0.69,
807,-1.25,-0.71,
808,-1.265,-0.725,
809,-1.275,-0.735,
810,-1.275,-0.73,
811,-1.27,-0.725,
812,-1.285,-0.695,
813,-1.29,-0.68,
814,-1.265,-0.675,
815,-1.265,-0.655,
816,-1.24,-0.65,
817,-1.225,-0.655,
818,-1.225,-0.675,
819,-1.21,-0.68,
820,-1.215,-0.675,
821,-1.225,-0.67,
822,-1.24,-0.685,
823,-1.23,-0.72,
824,-1.205,-0.765,
825,-1.165,-0.81,
826,-1.07,-0.875,
827,-0.925,-0.985,
828,-0.72,-1.06,
829,-0.415,-1.14,
830,-0.065,-1.22,
831,0.315,-1.305,
832,0.745,-1.385,
833,1.175,-1.46,
834,1.61,-1.505,
835,1.975,-1.52,
836,2.26,-1.46,
837,2.435,-1.36,N
838,2.495,-1.225,
839,2.44,-1.07,
840,2.22,-0.93,
841,1.79,-0.83,
842,1.15,-0.785,
843,0.51,-0.795,
844,-0.13,-0.8,
845,-0.77,-0.795,
846,-1.41,-0.76,
847,-1.75,-0.74,
848,-1.505,-0.7,
849,-1.2,-0.66,
850,-0.945,-0.62,
851,-0.82,-0.615,
852,-0.82,-0.605,
853,-0.89,-0.625,
854,-1.02,-0.625,
855,-1.11,-0.64,
856,-1.165,-0.615,
857,-1.185,-0.615,
858,-1.185,-0.61,
859,-1.165,-0.595,
860,-1.15,-0.595,
861,-1.135,-0.595,
862,-1.115,-0.59,
863,-1.145,-0.59,
864,-1.15,-0.565,
865,-1.165,-0.565,
866,-1.175,-0.58,
867,-1.175,-0.59,
868,-1.17,-0.61,
869,-1.165,-0.615,
870,-1.16,-0.64,
871,-1.115,-0.615,
872,-1.1,-0.615,
873,-1.11,-0.585,
874,-1.1,-0.57,
875,-1.1,-0.55,
876,-1.09,-0.54,
877,-1.05,-0.535,
878,-1.055,-0.54,
879,-1.04,-0.57,
880,-1.055,-0.595,
881,-1.05,-0.62,
882,-1.05,-0.625,
883,-1.05,-0.595,
884,-1.05,-0.57,
885,-1.03,-0.55,
886,-1.02,-0.535,
887,-1.0,-0.545,
888,-0.97,-0.54,
889,-0.95,-0.55,
890,-0.93,-0.58,
891,-0.92,-0.595,
892,-0.93,-0.595,
893,-0.925,-0.595,
894,-0.93,-0.595,
895,-0.91,-0.59,
896,-0.89,-0.575,
897,-0.865,-0.56,
898,-0.84,-0.56,
899,-0.825,-0.535,
900,-0.795,-0.53,
901,-0.77,-0.51,
902,-0.745,-0.5,
903,-0.7,-0.5,
904,-0.68,-0.505,
905,-0.675,-0.525,
906,-0.675,-0.535,
907,-0.63,-0.54,
908,-0.615,-0.54,
909,-0.58,-0.525,
910,-0.54,-0.51,
911,-0.5,-0.5,
912,-0.45,-0.495,
913,-0.4,-0.495,
914,-0.365,-0.48,
915,-0.325,-0.47,
916,-0.31,-0.47,
917,-0.305,-0.48,
918,-0.28,-0.485,
919,-0.27,-0.495,
920,-0.275,-0.48,
921,-0.255,-0.455,
922,-0.25,-0.455,
923,-0.23,-0.445,
924,-0.23,-0.45,
925,-0.225,-0.455,
926,-0.24,-0.47,
927,-0.23,-0.49,
928,-0.24,-0.495,
929,-0.275,-0.5,
930,-0.31,-0.5,
931,-0.355,-0.525,
932,-0.39,-0.545,
933,-0.445,-0.56,
934,-0.485,-0.585,
935,-0.55,-0.56,
936,-0.6,-0.545,
937,-0.65,-0.55,
938,-0.715,-0.585,
939,-0.76,-0.585,
940,-0.81,-0.62,
941,-0.88,-0.63,
942,-0.935,-0.635,
943,-0.995,-0.625,
944,-1.03,-0.63,
945,-1.065,-0.6,
946,-1.055,-0.585,
947,-1.075,-0.575,
948,-1.075,-0.565,
949,-1.09,-0.56,
950,-1.085,-0.59,
951,-1.105,-0.595,
952,-1.125,-0.615,
953,-1.125,-0.62,
954,-1.15,-0.64,
955,-1.16,-0.65,
956,-1.165,-0.64,
957,-1.165,-0.645,
958,-1.175,-0.61,
959,-1.17,-0.58,
960,-1.175,-0.59,
961,-1.175,-0.58,
962,-1.135,-0.595,
963,-1.16,-0.63,
964,-1.175,-0.635,
965,-1.175,-0.66,
966,-1.175,-0.66,
967,-1.18,-0.64,
968,-1.175,-0.605,
969,-1.16,-0.59,
970,-1.135,-0.585,
971,-1.13,-0.58,
972,-1.11,-0.595,
973,-1.1,-0.595,
974,-1.12,-0.62,
975,-1.11,-0.635,
976,-1.14,-0.615,
977,-1.15,-0.605,
978,-1.145,-0.595,
979,-1.15,-0.605,
980,-1.15,-0.6,
981,-1.16,-0.59,
982,-1.145,-0.6,
983,-1.14,-0.6,
984,-1.14,-0.605,
985,-1.145,-0.595,
986,-1.14,-0.585,
987,-1.145,-0.58,
988,-1.12,-0.585,
989,-1.135,-0.585,
990,-1.15,-0.585,
991,-1.15,-0.595,
992,-1.17,-0.6,
993,-1.155,-0.595,
994,-1.16,-0.58,
995,-1.145,-0.58,
996,-1.15,-0.57,
997,-1.145,-0.565,
998,-1.15,-0.57,
999,-1.17,-0.585,
1000,-1.19,-0.59,
1001,-1.215,-0.6,
1002,-1.225,-0.605,
1003,-1.235,-0.6,
1004,-1.21,-0.6,
1005,-1.225,-0.58,
1006,-1.22,-0.575,
1007,-1.2,-0.56,
1008,-1.2,-0.57,
1009,-1.205,-0.585,
1010,-1.195,-0.595,
1011,-1.205,-0.595,
1012,-1.225,-0.605,
1013,-1.23,-0.62,
1014,-1.235,-0.6,
1015,-1.25,-0.595,
1016,-1.26,-0.58,
1017,-1.28,-0.575,
1018,-1.255,-0.55,
1019,-1.245,-0.53,
1020,-1.225,-0.545,
1021,-1.235,-0.58,
1022,-1.245,-0.6,
1023,-1.26,-0.62,
1024,-1.275,-0.615,
1025,-1.28,-0.615,
1026,-1.305,-0.595,
1027,-1.31,-0.575,
1028,-1.31,-0.58,
1029,-1.285,-0.57,
1030,-1.285,-0.56,
1031,-1.275,-0.57,
1032,-1.26,-0.545,
1033,-1.265,-0.55,
1034,-1.26,-0.56,
1035,-1.27,-0.545,
1036,-1.275,-0.565,
1037,-1.29,-0.565,
1038,-1.3,-0.575,
1039,-1.295,-0.575,
1040,-1.29,-0.545,
1041,-1.28,-0.53,
1042,-1.255,-0.51,
1043,-1.24,-0.48,
1044,-1.22,-0.465,
1045,-1.195,-0.465,
1046,-1.185,-0.49,
1047,-1.21,-0.515,
1048,-1.215,-0.515,
1049,-1.215,-0.54,
1050,-1.225,-0.535,
1051,-1.21,-0.545,
1052,-1.21,-0.535,
1053,-1.18,-0.52,
1054,-1.16,-0.52,
1055,-1.14,-0.495,
1056,-1.12,-0.52,
1057,-1.105,-0.56,
1058,-1.095,-0.57,
1059,-1.09,-0.575,
1060,-1.1,-0.585,
1061,-1.14,-0.575,
1062,-1.145,-0.545,
1063,-1.18,-0.545,
1064,-1.21,-0.53,
1065,-1.215,-0.535,
1066,-1.215,-0.525,
1067,-1.23,-0.53,
1068,-1.215,-0.54,
1069,-1.24,-0.53,
1070,-1.26,-0.535,
1071,-1.285,-0.55,
1072,-1.32,-0.55,
1073,-1.345,-0.54,
1074,-1.35,-0.53,
1075,-1.365,-0.54,
1076,-1.385,-0.54,
1077,-1.39,-0.545,
1078,-1.405,-0.535,
1079,-1.4,-0.54,
1080,-1.375,-0.525,
1081,-1.385,-0.515,
1082,-1.365,-0.51,
1083,-1.365,-0.51,
1084,-1.37,-0.51,
1085,-1.38,-0.54,
1086,-1.39,-0.545,
1087,-1.405,-0.55,
1088,-1.405,-0.545,
1089,-1.4,-0.535,
1090,-1.39,-0.51,
1091,-1.37,-0.52,
1092,-1.34,-0.52,
1093,-1.305,-0.58,
1094,-1.22,-0.665,
1095,-1.14,-0.775,
1096,-1.005,-0.875,
1097,-0.785,-0.965,
1098,-0.475,-1.07,
1099,-0.075,-1.145,
1100,0.38,-1.225,
1101,0.915,-1.28,
1102,1.435,-1.28,
1103,1.9,-1.2,
1104,2.225,-1.055,N
1105,2.33,-0.915,
1106,2.13,-0.795,
1107,1.58,-0.705,
1108,0.94,-0.655,
1109,0.3,-0.655,
1110,-0.34,-0.655,
1111,-0.98,-0.655,
1112,-1.62,-0.605,
1113,-1.975,-0.57,
1114,-1.625,-0.545,
1115,-1.28,-0.495,
1116,-1.05,-0.48,
1117,-0.98,-0.475,
1118,-1.025,-0.48,
1119,-1.125,-0.495,
1120,-1.25,-0.52,
1121,-1.355,-0.545,
1122,-1.395,-0.525,
1123,-1.405,-0.51,
1124,-1.38,-0.475,
1125,-1.35,-0.45,
1126,-1.335,-0.44,
1127,-1.31,-0.425,
1128,-1.31,-0.43,
1129,-1.3,-0.455,
1130,-1.335,-0.47,
1131,-1.325,-0.49,
1132,-1.35,-0.5,
1133,-1.34,-0.495,
1134,-1.35,-0.495,
1135,-1.335,-0.485,
1136,-1.34,-0.49,
1137,-1.34,-0.465,
1138,-1.31,-0.45,
1139,-1.305,-0.445,
1140,-1.255,-0.39,
1141,-1.255,-0.4,
1142,-1.26,-0.425,
1143,-1.245,-0.42,
1144,-1.245,-0.445,
1145,-1.25,-0.45,
1146,-1.245,-0.475,
1147,-1.24,-0.46,
1148,-1.23,-0.46,
1149,-1.22,-0.45,
1150,-1.185,-0.42,
1151,-1.185,-0.395,
1152,-1.15,-0.41,
1153,-1.13,-0.415,
1154,-1.125,-0.425,
1155,-1.125,-0.45,
1156,-1.105,-0.45,
1157,-1.105,-0.45,
1158,-1.09,-0.45,
1159,-1.08,-0.45,
1160,-1.065,-0.44,
1161,-1.05,-0.41,
1162,-1.025,-0.415,
1163,-1.01,-0.42,
1164,-0.975,-0.39,
1165,-0.975,-0.405,
1166,-0.95,-0.395,
1167,-0.955,-0.4,
1168,-0.9,-0.405,
1169,-0.875,-0.405,
1170,-0.84,-0.39,
1171,-0.82,-0.38,
1172,-0.81,-0.375,
1173,-0.775,-0.375,
1174,-0.75,-0.37,
1175,-0.705,-0.355,
1176,-0.655,-0.345,
1177,-0.61,-0.35,
1178,-0.6,-0.365,
1179,-0.595,-0.38,
1180,-0.595,-0.395,
1181,-0.58,-0.385,
1182,-0.555,-0.375,
1183,-0.545,-0.38,
1184,-0.54,-0.375,
1185,-0.505,-0.375,
1186,-0.475,-0.36,
1187,-0.45,-0.355,
1188,-0.43,-0.335,
1189,-0.43,-0.33,
1190,-0.43,-0.355,
1191,-0.445,-0.34,
1192,-0.47,-0.365,
1193,-0.495,-0.375,
1194,-0.52,-0.41,
1195,-0.57,-0.41,
1196,-0.61,-0.42,
1197,-0.675,-0.385,
1198,-0.715,-0.365,
1199,-0.74,-0.365,
1200,-0.785,-0.38,
1201,-0.835,-0.38,
1202,-0.915,-0.415,
1203,-0.965,-0.445,
1204,-0.995,-0.45,
1205,-1.035,-0.47,
1206,-1.1,-0.46,
1207,-1.155,-0.445,
1208,-1.195,-0.45,
1209,-1.225,-0.435,
1210,-1.24,-0.435,
1211,-1.26,-0.44,
1212,-1.275,-0.445,
1213,-1.295,-0.455,
1214,-1.31,-0.47,
1215,-1.335,-0.48,
1216,-1.35,-0.465,
1217,-1.38,-0.47,
1218,-1.38,-0.48,
1219,-1.395,-0.47,
1220,-1.4,-0.46,
1221,-1.385,-0.465,
1222,-1.38,-0.45,
1223,-1.395,-0.46,
1224,-1.365,-0.445,
1225,-1.365,-0.46,
1226,-1.365,-0.46,
1227,-1.37,-0.48,
1228,-1.395,-0.475,
1229,-1.39,-0.475,
1230,-1.405,-0.45,
1231,-1.415,-0.46,
1232,-1.415,-0.46,
1233,-1.4,-0.445,
1234,-1.375,-0.46,
1235,-1.365,-0.455,
1236,-1.35,-0.455,
1237,-1.345,-0.475,
1238,-1.345,-0.5,
1239,-1.35,-0.49,
1240,-1.345,-0.5,
1241,-1.355,-0.5,
1242,-1.35,-0.49,
1243,-1.355,-0.49,
1244,-1.365,-0.465,
1245,-1.37,-0.45,
1246,-1.36,-0.445,
1247,-1.345,-0.445,
1248,-1.34,-0.445,
1249,-1.33,-0.455,
1250,-1.33,-0.47,
1251,-1.335,-0.455,
1252,-1.345,-0.47,
1253,-1.36,-0.475,
1254,-1.365,-0.47,
1255,-1.365,-0.475,
1256,-1.375,-0.475,
1257,-1.365,-0.465,
1258,-1.35,-0.47,
1259,-1.35,-0.465,
1260,-1.35,-0.45,
1261,-1.36,-0.445,
1262,-1.395,-0.45,
1263,-1.405,-0.47,
1264,-1.42,-0.48,
1265,-1.42,-0.49,
1266,-1.435,-0.47,
1267,-1.415,-0.485,
1268,-1.43,-0.475,
1269,-1.435,-0.465,
1270,-1.43,-0.46,
1271,-1.405,-0.46,
1272,-1.385,-0.45,
1273,-1.385,-0.465,
1274,-1.385,-0.46,
1275,-1.405,-0.47,
1276,-1.41,-0.47,
1277,-1.42,-0.485,
1278,-1.42,-0.455,
1279,-1.445,-0.46,
1280,-1.445,-0.46,
1281,-1.445,-0.45,
1282,-1.43,-0.445,
1283,-1.435,-0.445,
1284,-1.42,-0.445,
1285,-1.425,-0.445,
1286,-1.405,-0.45,
1287,-1.415,-0.46,
1288,-1.425,-0.475,
1289,-1.41,-0.48,
1290,-1.425,-0.475,
1291,-1.435,-0.49,
1292,-1.44,-0.505,
1293,-1.445,-0.475,
1294,-1.44,-0.48,
1295,-1.44,-0.45,
1296,-1.435,-0.445,
1297,-1.435,-0.44,
1298,-1.425,-0.44,
1299,-1.44,-0.455,
1300,-1.43,-0.44,
1301,-1.425,-0.44,
1302,-1.4,-0.41,
1303,-1.405,-0.405,
1304,-1.39,-0.39,
1305,-1.36,-0.365,
1306,-1.33,-0.38,
1307,-1.325,-0.365,
1308,-1.305,-0.39,
1309,-1.31,-0.39,
1310,-1.31,-0.415,
1311,-1.31,-0.425,
1312,-1.33,-0.43,
1313,-1.325,-0.445,
1314,-1.325,-0.46,
1315,-1.33,-0.455,
1316,-1.325,-0.455,
1317,-1.335,-0.445,
1318,-1.305,-0.445,
1319,-1.275,-0.42,
1320,-1.245,-0.425,
1321,-1.215,-0.42,
1322,-1.205,-0.43,
1323,-1.195,-0.435,
1324,-1.21,-0.455,
1325,-1.23,-0.485,
1326,-1.245,-0.48,
1327,-1.275,-0.48,
1328,-1.3,-0.47,
1329,-1.305,-0.475,
1330,-1.295,-0.45,
1331,-1.295,-0.45,
1332,-1.28,-0.435,
1333,-1.295,-0.44,
1334,-1.315,-0.455,
1335,-1.335,-0.475,
1336,-1.37,-0.47,
1337,-1.405,-0.48,
1338,-1.41,-0.47,
1339,-1.415,-0.47,
1340,-1.435,-0.46,
1341,-1.43,-0.485,
1342,-1.435,-0.455,
1343,-1.435,-0.465,
1344,-1.42,-0.43,
1345,-1.43,-0.425,
1346,-1.43,-0.44,
1347,-1.425,-0.475,
1348,-1.42,-0.49,
1349,-1.425,-0.5,
1350,-1.425,-0.49,
1351,-1.435,-0.45,
1352,-1.425,-0.43,
1353,-1.41,-0.42,
1354,-1.4,-0.425,
1355,-1.385,-0.435,
1356,-1.365,-0.45,
1357,-1.34,-0.51,
1358,-1.28,-0.57,
1359,-1.23,-0.645,
1360,-1.125,-0.72,
1361,-0.965,-0.8,
1362,-0.69,-0.87,
1363,-0.39,-0.95,
1364,0.015,-1.02,
1365,0.47,-1.09,
1366,0.93,-1.13,
1367,1.395,-1.135,
1368,1.845,-1.08,
1369,2.12,-0.965,N
1370,2.185,-0.81,
1371,2.0,-0.69,
1372,1.475,-0.59,
1373,0.835,-0.56,
1374,0.195,-0.555,
1375,-0.445,-0.585,
1376,-1.085,-0.55,
1377,-1.725,-0.52,
1378,-2.095,-0.485,
1379,-1.77,-0.465,
1380,-1.42,-0.455,
1381,-1.16,-0.465,
1382,-1.05,-0.455,
1383,-1.045,-0.45,
1384,-1.1,-0.445,
1385,-1.195,-0.45,
1386,-1.265,-0.45,
1387,-1.34,-0.44,
1388,-1.36,-0.45,
1389,-1.37,-0.435,
1390,-1.355,-0.435,
1391,-1.31,-0.425,
1392,-1.305,-0.4,
1393,-1.295,-0.405,
1394,-1.295,-0.395,
1395,-1.3,-0.39,
1396,-1.305,-0.42,
1397,-1.3,-0.42,
1398,-1.29,-0.425,
1399,-1.285,-0.415,
1400,-1.285,-0.43,
1401,-1.275,-0.41,
1402,-1.26,-0.405,
1403,-1.255,-0.385,
1404,-1.225,-0.39,
1405,-1.215,-0.385,
1406,-1.215,-0.375,
1407,-1.21,-0.385,
1408,-1.22,-0.39,
1409,-1.225,-0.395,
1410,-1.22,-0.405,
1411,-1.21,-0.4,
1412,-1.19,-0.4,
1413,-1.18,-0.385,
1414,-1.135,-0.365,
1415,-1.105,-0.36,
1416,-1.085,-0.37,
1417,-1.055,-0.385,
1418,-1.05,-0.41,
1419,-1.05,-0.425,
1420,-1.055,-0.415,
1421,-1.065,-0.41,
1422,-1.06,-0.385,
1423,-1.06,-0.39,
1424,-1.06,-0.36,
1425,-1.045,-0.355,
1426,-0.995,-0.34,
1427,-0.97,-0.345,
1428,-0.94,-0.345,
1429,-0.915,-0.38,
1430,-0.865,-0.375,
1431,-0.845,-0.375,
1432,-0.83,-0.385,
1433,-0.81,-0.375,
1434,-0.795,-0.355,
1435,-0.79,-0.345,
1436,-0.785,-0.34,
1437,-0.735,-0.31,
1438,-0.695,-0.31,
1439,-0.655,-0.3,
1440,-0.61,-0.295,
1441,-0.58,-0.305,
1442,-0.545,-0.305,
1443,-0.52,-0.315,
1444,-0.505,-0.315,
1445,-0.495,-0.315,
1446,-0.465,-0.31,
1447,-0.46,-0.285,
1448,-0.445,-0.27,
1449,-0.415,-0.265,
1450,-0.395,-0.255,
1451,-0.39,-0.275,
1452,-0.37,-0.275,
1453,-0.38,-0.29,
1454,-0.39,-0.3,
1455,-0.405,-0.315,
1456,-0.42,-0.32,
1457,-0.44,-0.32,
1458,-0.47,-0.31,
1459,-0.5,-0.315,
1460,-0.535,-0.315,
1461,-0.56,-0.3,
1462,-0.605,-0.32,
1463,-0.645,-0.31,
1464,-0.675,-0.305,
1465,-0.71,-0.325,
1466,-0.755,-0.34,
1467,-0.805,-0.38,
1468,-0.865,-0.405,
1469,-0.925,-0.42,
1470,-0.975,-0.405,
1471,-1.04,-0.4,
1472,-1.08,-0.405,
1473,-1.125,-0.385,
1474,-1.155,-0.4,
1475,-1.175,-0.38,
1476,-1.17,-0.385,
1477,-1.195,-0.38,
1478,-1.215,-0.39,
1479,-1.23,-0.395,
1480,-1.255,-0.42,
1481,-1.27,-0.45,
1482,-1.285,-0.455,
1483,-1.295,-0.44,
1484,-1.325,-0.425,
1485,-1.315,-0.4,
1486,-1.32,-0.405,
1487,-1.315,-0.39,
1488,-1.28,-0.395,
1489,-1.285,-0.41,
1490,-1.275,-0.405,
1491,-1.265,-0.45,
1492,-1.28,-0.455,
1493,-1.29,-0.44,
1494,-1.28,-0.44,
1495,-1.305,-0.43,
1496,-1.31,-0.41,
1497,-1.295,-0.39,
1498,-1.26,-0.405,
1499,-1.245,-0.41,
1500,-1.235,-0.405,
1501,-1.225,-0.405,
1502,-1.225,-0.4,
1503,-1.235,-0.385,
1504,-1.225,-0.41,
1505,-1.23,-0.42,
1506,-1.225,-0.435,
1507,-1.235,-0.45,
1508,-1.25,-0.455,
1509,-1.25,-0.425,
1510,-1.24,-0.42,
1511,-1.245,-0.415,
1512,-1.23,-0.405,
1513,-1.225,-0.405,
1514,-1.22,-0.41,
1515,-1.225,-0.4,
1516,-1.235,-0.4,
1517,-1.24,-0.395,
1518,-1.25,-0.39,
1519,-1.255,-0.425,
1520,-1.27,-0.44,
1521,-1.26,-0.445,
1522,-1.25,-0.45,
1523,-1.25,-0.45,
1524,-1.24,-0.445,
1525,-1.265,-0.43,
1526,-1.26,-0.395,
1527,-1.265,-0.405,
1528,-1.275,-0.39,
1529,-1.29,-0.4,
1530,-1.315,-0.415,
1531,-1.32,-0.445,
1532,-1.33,-0.46,
1533,-1.32,-0.445,
1534,-1.32,-0.45,
1535,-1.32,-0.435,
1536,-1.305,-0.405,
1537,-1.29,-0.405,
1538,-1.3,-0.395,
1539,-1.3,-0.41,
1540,-1.3,-0.435,
1541,-1.31,-0.455,
1542,-1.33,-0.45,
1543,-1.34,-0.45,
1544,-1.35,-0.425,
1545,-1.36,-0.415,
1546,-1.345,-0.395,
1547,-1.335,-0.4,
1548,-1.325,-0.385,
1549,-1.32,-0.405,
1550,-1.32,-0.395,
1551,-1.315,-0.42,
1552,-1.33,-0.43,
1553,-1.34,-0.465,
1554,-1.34,-0.49,
1555,-1.355,-0.48,
1556,-1.35,-0.47,
1557,-1.34,-0.45,
1558,-1.33,-0.415,
1559,-1.325,-0.4,
1560,-1.33,-0.385,
1561,-1.325,-0.4,
1562,-1.33,-0.405,
1563,-1.325,-0.42,
1564,-1.34,-0.445,
1565,-1.34,-0.48,
1566,-1.36,-0.48,
1567,-1.365,-0.465,
1568,-1.375,-0.445,
1569,-1.37,-0.42,
1570,-1.38,-0.395,
1571,-1.345,-0.375,
1572,-1.32,-0.355,
1573,-1.31,-0.37,
1574,-1.29,-0.385,
1575,-1.29,-0.395,
1576,-1.28,-0.4,
1577,-1.265,-0.4,
1578,-1.265,-0.385,
1579,-1.285,-0.39,
1580,-1.275,-0.375,
1581,-1.285,-0.375,
1582,-1.28,-0.36,
1583,-1.26,-0.375,
1584,-1.235,-0.4,
1585,-1.23,-0.44,
1586,-1.215,-0.465,
1587,-1.21,-0.47,
1588,-1.2,-0.455,
1589,-1.205,-0.435,
1590,-1.205,-0.43,
1591,-1.185,-0.435,
1592,-1.155,-0.41,
1593,-1.125,-0.43,
1594,-1.12,-0.415,
1595,-1.125,-0.425,
1596,-1.125,-0.425,
1597,-1.155,-0.425,
1598,-1.185,-0.44,
1599,-1.21,-0.44,
1600,-1.24,-0.465,
1601,-1.26,-0.465,
1602,-1.27,-0.455,
1603,-1.28,-0.45,
1604,-1.29,-0.455,
1605,-1.31,-0.44,
1606,-1.34,-0.455,
1607,-1.355,-0.45,
1608,-1.365,-0.43,
1609,-1.38,-0.45,
1610,-1.375,-0.47,
1611,-1.4,-0.475,
1612,-1.42,-0.475,
1613,-1.4,-0.49,
1614,-1.405,-0.47,
1615,-1.39,-0.475,
1616,-1.4,-0.495,
1617,-1.4,-0.48,
1618,-1.41,-0.47,
1619,-1.4,-0.46,
1620,-1.37,-0.44,
1621,-1.38,-0.42,
1622,-1.37,-0.39,
1623,-1.39,-0.41,
1624,-1.395,-0.415,
1625,-1.38,-0.45,
1626,-1.37,-0.51,
1627,-1.325,-0.57,
1628,-1.26,-0.61,
1629,-1.14,-0.66,
1630,-0.96,-0.735,
1631,-0.73,-0.79,
1632,-0.44,-0.87,
1633,-0.085,-0.985,
1634,0.3,-1.09,
1635,0.71,-1.19,
1636,1.17,-1.25,
1637,1.625,-1.27,
1638,1.99,-1.215,
1639,2.24,-1.065,N
1640,2.31,-0.915,
1641,2.15,-0.735,
1642,1.67,-0.635,
1643,1.03,-0.575,
1644,0.39,-0.555,
1645,-0.25,-0.56,
1646,-0.89,-0.545,
1647,-1.53,-0.52,
1648,-1.875,-0.505,
1649,-1.605,-0.495,
1650,-1.29,-0.47,
1651,-1.07,-0.46,
1652,-0.99,-0.43,
1653,-1.0,-0.415,
1654,-1.09,-0.395,
1655,-1.195,-0.365,
1656,-1.28,-0.365,
1657,-1.31,-0.375,
1658,-1.34,-0.38,
1659,-1.325,-0.38,
1660,-1.325,-0.395,
1661,-1.3,-0.365,
1662,-1.31,-0.37,
1663,-1.305,-0.375,
1664,-1.32,-0.36,
1665,-1.315,-0.36,
1666,-1.3,-0.35,
1667,-1.3,-0.345,
1668,-1.295,-0.355,
1669,-1.265,-0.36,
1670,-1.265,-0.37,
1671,-1.25,-0.395,
1672,-1.26,-0.415,
1673,-1.265,-0.4,
1674,-1.27,-0.41,
1675,-1.27,-0.385,
1676,-1.26,-0.395,
1677,-1.26,-0.38,
1678,-1.24,-0.365,
1679,-1.215,-0.355,
1680,-1.2,-0.355,
1681,-1.17,-0.35,
1682,-1.165,-0.345,
1683,-1.17,-0.365,
1684,-1.175,-0.355,
1685,-1.165,-0.34,
1686,-1.175,-0.35,
1687,-1.17,-0.345,
1688,-1.155,-0.33,
1689,-1.145,-0.315,
1690,-1.125,-0.335,
1691,-1.08,-0.32,
1692,-1.08,-0.34,
1693,-1.03,-0.36,
1694,-1.03,-0.385,
1695,-1.015,-0.365,
1696,-1.015,-0.37,
1697,-1.01,-0.365,
1698,-1.0,-0.365,
1699,-0.995,-0.34,
1700,-0.975,-0.33,
1701,-0.95,-0.305,
1702,-0.935,-0.295,
1703,-0.895,-0.285,
1704,-0.855,-0.285,
1705,-0.82,-0.28,
1706,-0.79,-0.275,
1707,-0.76,-0.3,
1708,-0.735,-0.31,
1709,-0.7,-0.315,
1710,-0.67,-0.325,
1711,-0.64,-0.34,
1712,-0.625,-0.33,
1713,-0.595,-0.305,
1714,-0.555,-0.27,
1715,-0.54,-0.25,
1716,-0.51,-0.245,
1717,-0.5,-0.255,
1718,-0.45,-0.245,
1719,-0.425,-0.245,
1720,-0.425,-0.265,
1721,-0.4,-0.28,
1722,-0.4,-0.285,
1723,-0.395,-0.275,
1724,-0.38,-0.26,
1725,-0.365,-0.27,
1726,-0.36,-0.26,
1727,-0.345,-0.255,
1728,-0.335,-0.26,
1729,-0.37,-0.255,
1730,-0.4,-0.28,
1731,-0.435,-0.295,
1732,-0.485,-0.32,
1733,-0.515,-0.32,
1734,-0.55,-0.335,
1735,-0.595,-0.325,
1736,-0.65,-0.33,
1737,-0.7,-0.33,
1738,-0.73,-0.325,
1739,-0.78,-0.335,
1740,-0.8,-0.305,
1741,-0.855,-0.315,
1742,-0.905,-0.35,
1743,-0.955,-0.37,
1744,-1.035,-0.4,
1745,-1.085,-0.41,
1746,-1.12,-0.425,
1747,-1.165,-0.395,
1748,-1.195,-0.38,
1749,-1.215,-0.355,
1750,-1.225,-0.345,
1751,-1.23,-0.36,
1752,-1.23,-0.37,
1753,-1.235,-0.4,
1754,-1.255,-0.41,
1755,-1.26,-0.425,
1756,-1.26,-0.405,
1757,-1.27,-0.415,
1758,-1.265,-0.37,
1759,-1.285,-0.385,
1760,-1.285,-0.37,
1761,-1.295,-0.37,
1762,-1.3,-0.37,
1763,-1.29,-0.375,
1764,-1.29,-0.36,
1765,-1.29,-0.37,
1766,-1.265,-0.365,
1767,-1.275,-0.36,
1768,-1.275,-0.38,
1769,-1.28,-0.4,
1770,-1.27,-0.42,
1771,-1.28,-0.425,
1772,-1.27,-0.4,
1773,-1.26,-0.385,
1774,-1.245,-0.36,
1775,-1.245,-0.325,
1776,-1.225,-0.33,
1777,-1.22,-0.315,
1778,-1.22,-0.35,
1779,-1.225,-0.37,
1780,-1.235,-0.39,
1781,-1.255,-0.42,
1782,-1.27,-0.405,
1783,-1.275,-0.415,
1784,-1.28,-0.395,
1785,-1.265,-0.39,
1786,-1.255,-0.365,
1787,-1.235,-0.37,
1788,-1.225,-0.36,
1789,-1.215,-0.365,
1790,-1.245,-0.365,
1791,-1.255,-0.365,
1792,-1.26,-0.38,
1793,-1.255,-0.4,
1794,-1.27,-0.415,
1795,-1.275,-0.415,
1796,-1.28,-0.41,
1797,-1.28,-0.405,
1798,-1.285,-0.39,
1799,-1.28,-0.37,
1800,-1.27,-0.36,
1801,-1.265,-0.36,
1802,-1.255,-0.37,
1803,-1.275,-0.37,
1804,-1.285,-0.37,
1805,-1.3,-0.385,
1806,-1.33,-0.38,
1807,-1.34,-0.38,
1808,-1.35,-0.385,
1809,-1.345,-0.37,
1810,-1.335,-0.395,
1811,-1.31,-0.39,
1812,-1.315,-0.4,
1813,-1.31,-0.43,
1814,-1.33,-0.39,
1815,-1.335,-0.4,
1816,-1.34,-0.375,
1817,-1.34,-0.375,
1818,-1.34,-0.375,
1819,-1.345,-0.385,
1820,-1.375,-0.385,
1821,-1.38,-0.39,
1822,-1.375,-0.395,
1823,-1.37,-0.37,
1824,-1.38,-0.37,
1825,-1.335,-0.365,
1826,-1.335,-0.355,
1827,-1.345,-0.36,
1828,-1.345,-0.4,
1829,-1.36,-0.41,
1830,-1.365,-0.415,
1831,-1.38,-0.415,
1832,-1.38,-0.405,
1833,-1.385,-0.39,
1834,-1.365,-0.385,
1835,-1.34,-0.385,
1836,-1.335,-0.36,
1837,-1.335,-0.375,
1838,-1.355,-0.365,
1839,-1.36,-0.36,
1840,-1.35,-0.36,
1841,-1.36,-0.365,
1842,-1.335,-0.37,
1843,-1.33,-0.35,
1844,-1.325,-0.345,
1845,-1.31,-0.335,
1846,-1.295,-0.315,
1847,-1.28,-0.315,
1848,-1.265,-0.31,
1849,-1.255,-0.325,
1850,-1.26,-0.355,
1851,-1.26,-0.375,
1852,-1.27,-0.385,
1853,-1.25,-0.38,
1854,-1.26,-0.37,
1855,-1.22,-0.355,
1856,-1.22,-0.345,
1857,-1.195,-0.345,
1858,-1.175,-0.33,
1859,-1.155,-0.34,
1860,-1.135,-0.345,
1861,-1.13,-0.375,
1862,-1.14,-0.38,
1863,-1.17,-0.39,
1864,-1.21,-0.395,
1865,-1.235,-0.39,
1866,-1.26,-0.38,
1867,-1.28,-0.4,
1868,-1.275,-0.4,
1869,-1.28,-0.385,
1870,-1.285,-0.39,
1871,-1.27,-0.365,
1872,-1.285,-0.365,
1873,-1.295,-0.365,
1874,-1.33,-0.365,
1875,-1.375,-0.395,
1876,-1.41,-0.405,
1877,-1.41,-0.405,
1878,-1.44,-0.395,
1879,-1.45,-0.385,
1880,-1.44,-0.385,
1881,-1.41,-0.39,
1882,-1.39,-0.38,
1883,-1.375,-0.385,
1884,-1.355,-0.37,
1885,-1.365,-0.365,
1886,-1.355,-0.355,
1887,-1.375,-0.365,
1888,-1.39,-0.365,
1889,-1.41,-0.385,
1890,-1.415,-0.375,
1891,-1.425,-0.375,
1892,-1.415,-0.36,
1893,-1.4,-0.355,
1894,-1.385,-0.37,
1895,-1.355,-0.39,
1896,-1.32,-0.4,
1897,-1.26,-0.47,
1898,-1.185,-0.535,
1899,-1.07,-0.59,
1900,-0.935,-0.685,
1901,-0.74,-0.775,
1902,-0.5,-0.835,
1903,-0.225,-0.895,
1904,0.09,-0.955,
1905,0.44,-1.01,
1906,0.84,-1.07,
1907,1.275,-1.075,
1908,1.68,-1.015,
1909,1.99,-0.925,N
1910,2.145,-0.79,
1911,2.04,-0.645,
1912,1.615,-0.54,
1913,0.975,-0.505,
1914,0.335,-0.51,
1915,-0.305,-0.55,
1916,-0.945,-0.57,
1917,-1.585,-0.52,
1918,-2.055,-0.485,
1919,-1.815,-0.43,
1920,-1.475,-0.38,
1921,-1.22,-0.335,
1922,-1.055,-0.345,
1923,-1.02,-0.34,
1924,-1.09,-0.34,
1925,-1.19,-0.355,
1926,-1.295,-0.38,
1927,-1.35,-0.385,
1928,-1.395,-0.395,
1929,-1.385,-0.38,
1930,-1.38,-0.36,
1931,-1.34,-0.36,
1932,-1.335,-0.33,
1933,-1.335,-0.32,
1934,-1.345,-0.325,
1935,-1.36,-0.32,
1936,-1.35,-0.355,
1937,-1.34,-0.36,
1938,-1.35,-0.345,
1939,-1.34,-0.355,
1940,-1.335,-0.345,
1941,-1.315,-0.335,
1942,-1.3,-0.335,
1943,-1.285,-0.34,
1944,-1.27,-0.32,
1945,-1.265,-0.32,
1946,-1.27,-0.305,
1947,-1.275,-0.33,
1948,-1.28,-0.335,
1949,-1.28,-0.335,
1950,-1.29,-0.33,
1951,-1.28,-0.35,
1952,-1.27,-0.345,
1953,-1.26,-0.335,
1954,-1.25,-0.33,
1955,-1.215,-0.31,
1956,-1.205,-0.27,
1957,-1.175,-0.275,
1958,-1.16,-0.3,
1959,-1.155,-0.335,
1960,-1.16,-0.35,
1961,-1.15,-0.375,
1962,-1.135,-0.37,
1963,-1.145,-0.32,
1964,-1.125,-0.305,
1965,-1.105,-0.27,
1966,-1.1,-0.27,
1967,-1.065,-0.265,
1968,-1.04,-0.28,
1969,-1.005,-0.3,
1970,-0.99,-0.305,
1971,-0.97,-0.325,
1972,-0.97,-0.3,
1973,-0.965,-0.32,
1974,-0.96,-0.3,
1975,-0.955,-0.305,
1976,-0.915,-0.295,
1977,-0.885,-0.285,
1978,-0.83,-0.29,
1979,-0.795,-0.255,
1980,-0.76,-0.225,
1981,-0.715,-0.2,
1982,-0.705,-0.18,
1983,-0.685,-0.205,
1984,-0.67,-0.21,
1985,-0.64,-0.23,
1986,-0.625,-0.245,
1987,-0.595,-0.275,
1988,-0.575,-0.27,
1989,-0.575,-0.28,
1990,-0.57,-0.27,
1991,-0.545,-0.22,
1992,-0.52,-0.205,
1993,-0.515,-0.195,
1994,-0.49,-0.18,
1995,-0.49,-0.2,
1996,-0.51,-0.195,
1997,-0.515,-0.23,
1998,-0.54,-0.23,
1999,-0.545,-0.235,
2000,-0.565,-0.24,
2001,-0.575,-0.245,
2002,-0.6,-0.265,
2003,-0.625,-0.27,
2004,-0.65,-0.27,
2005,-0.7,-0.275,
2006,-0.75,-0.26,
2007,-0.8,-0.27,
2008,-0.855,-0.27,
2009,-0.895,-0.295,
2010,-0.945,-0.295,
2011,-1.01,-0.29,
2012,-1.05,-0.285,
2013,-1.09,-0.27,
2014,-1.115,-0.28,
2015,-1.16,-0.305,
2016,-1.17,-0.32,
2017,-1.18,-0.345,
2018,-1.22,-0.34,
2019,-1.24,-0.37,
2020,-1.27,-0.375,
2021,-1.295,-0.39,
2022,-1.31,-0.365,
2023,-1.32,-0.37,
2024,-1.33,-0.35,
2025,-1.335,-0.345,
2026,-1.325,-0.35,
2027,-1.335,-0.335,
2028,-1.335,-0.32,
2029,-1.32,-0.325,
2030,-1.335,-0.34,
2031,-1.335,-0.335,
2032,-1.345,-0.345,
2033,-1.345,-0.355,
2034,-1.345,-0.36,
2035,-1.355,-0.375,
2036,-1.34,-0.365,
2037,-1.34,-0.36,
2038,-1.33,-0.33,
2039,-1.32,-0.335,
2040,-1.315,-0.315,
2041,-1.31,-0.335,
2042,-1.31,-0.345,
2043,-1.315,-0.38,
2044,-1.32,-0.375,
2045,-1.33,-0.38,
2046,-1.335,-0.365,
2047,-1.35,-0.375,
2048,-1.37,-0.355,
2049,-1.35,-0.335,
2050,-1.335,-0.32,
2051,-1.305,-0.325,
2052,-1.295,-0.34,
2053,-1.275,-0.345,
2054,-1.265,-0.34,
2055,-1.275,-0.355,
2056,-1.28,-0.355,
2057,-1.295,-0.36,
2058,-1.315,-0.375,
2059,-1.31,-0.355,
2060,-1.32,-0.36,
2061,-1.31,-0.345,
2062,-1.305,-0.33,
2063,-1.295,-0.33,
2064,-1.3,-0.32,
2065,-1.29,-0.345,
2066,-1.305,-0.365,
2067,-1.305,-0.37,
2068,-1.31,-0.375,
2069,-1.32,-0.39,
2070,-1.31,-0.38,
2071,-1.315,-0.395,
2072,-1.315,-0.365,
2073,-1.335,-0.36,
2074,-1.345,-0.345,
2075,-1.365,-0.34,
2076,-1.37,-0.335,
2077,-1.375,-0.345,
2078,-1.385,-0.35,
2079,-1.38,-0.375,
2080,-1.395,-0.365,
2081,-1.39,-0.39,
2082,-1.4,-0.38,
2083,-1.4,-0.385,
2084,-1.41,-0.39,
2085,-1.42,-0.385,
2086,-1.4,-0.355,
2087,-1.405,-0.34,
2088,-1.4,-0.32,
2089,-1.39,-0.34,
2090,-1.385,-0.365,
2091,-1.4,-0.38,
2092,-1.4,-0.39,
2093,-1.41,-0.395,
2094,-1.425,-0.385,
2095,-1.415,-0.395,
2096,-1.42,-0.395,
2097,-1.415,-0.385,
2098,-1.4,-0.36,
2099,-1.405,-0.36,
2100,-1.39,-0.335,
2101,-1.38,-0.345,
2102,-1.385,-0.36,
2103,-1.385,-0.37,
2104,-1.395,-0.4,
2105,-1.415,-0.4,
2106,-1.415,-0.395,
2107,-1.41,-0.395,
2108,-1.435,-0.365,
2109,-1.45,-0.37,
2110,-1.44,-0.345,
2111,-1.435,-0.35,
2112,-1.43,-0.335,
2113,-1.405,-0.32,
2114,-1.38,-0.325,
2115,-1.375,-0.315,
2116,-1.335,-0.315,
2117,-1.32,-0.33,
2118,-1.33,-0.33,
2119,-1.33,-0.33,
2120,-1.335,-0.335,
2121,-1.34,-0.32,
2122,-1.34,-0.305,
2123,-1.345,-0.31,
2124,-1.32,-0.29,
2125,-1.315,-0.29,
2126,-1.305,-0.3,
2127,-1.31,-0.345,
2128,-1.31,-0.365,
2129,-1.305,-0.38,
2130,-1.29,-0.395,
2131,-1.25,-0.385,
2132,-1.24,-0.37,
2133,-1.235,-0.335,
2134,-1.235,-0.335,
2135,-1.22,-0.33,
2136,-1.23,-0.345,
2137,-1.235,-0.36,
2138,-1.25,-0.375,
2139,-1.26,-0.37,
2140,-1.3,-0.35,
2141,-1.325,-0.37,
2142,-1.33,-0.37,
2143,-1.315,-0.37,
2144,-1.31,-0.41,
2145,-1.34,-0.4,
2146,-1.335,-0.415,
2147,-1.355,-0.405,
2148,-1.38,-0.395,
2149,-1.4,-0.39,
2150,-1.43,-0.395,
2151,-1.455,-0.405,
2152,-1.46,-0.4,
2153,-1.475,-0.39,
2154,-1.48,-0.39,
2155,-1.48,-0.385,
2156,-1.465,-0.385,
2157,-1.465,-0.38,
2158,-1.455,-0.37,
2159,-1.445,-0.36,
2160,-1.42,-0.36,
2161,-1.41,-0.35,
2162,-1.415,-0.34,
2163,-1.425,-0.325,
2164,-1.445,-0.355,
2165,-1.465,-0.375,
2166,-1.45,-0.405,
2167,-1.415,-0.455,
2168,-1.365,-0.495,
2169,-1.265,-0.56,
2170,-1.125,-0.645,
2171,-0.935,-0.72,
2172,-0.665,-0.79,
2173,-0.33,-0.88,
2174,0.045,-0.955,
2175,0.47,-1.035,
2176,0.88,-1.115,
2177,1.29,-1.155,
2178,1.645,-1.135,
2179,1.9,-1.085,
2180,2.065,-0.98,N
2181,2.095,-0.84,
2182,1.91,-0.71,
2183,1.465,-0.615,
2184,0.825,-0.58,
2185,0.185,-0.535,
2186,-0.455,-0.535,
2187,-1.095,-0.525,
2188,-1.735,-0.5,
2189,-1.995,-0.45,
2190,-1.735,-0.405,
2191,-1.45,-0.375,
2192,-1.23,-0.335,
2193,-1.145,-0.335,
2194,-1.145,-0.345,
2195,-1.22,-0.35,
2196,-1.31,-0.355,
2197,-1.37,-0.365,
2198,-1.415,-0.365,
2199,-1.425,-0.36,
2200,-1.42,-0.365,
2201,-1.41,-0.365,
2202,-1.41,-0.37,
2203,-1.405,-0.35,
2204,-1.4,-0.325,
2205,-1.395,-0.31,
2206,-1.4,-0.295,
2207,-1.385,-0.295,
2208,-1.39,-0.285,
2209,-1.35,-0.29,
2210,-1.33,-0.31,
2211,-1.325,-0.335,
2212,-1.325,-0.355,
2213,-1.33,-0.365,
2214,-1.34,-0.365,
2215,-1.325,-0.35,
2216,-1.335,-0.345,
2217,-1.345,-0.34,
2218,-1.33,-0.335,
2219,-1.32,-0.305,
2220,-1.305,-0.295,
2221,-1.285,-0.285,
2222,-1.26,-0.29,
2223,-1.265,-0.28,
2224,-1.255,-0.3,
2225,-1.255,-0.31,
2226,-1.265,-0.325,
2227,-1.24,-0.34,
2228,-1.235,-0.35,
2229,-1.225,-0.345,
2230,-1.19,-0.325,
2231,-1.165,-0.29,
2232,-1.13,-0.28,
2233,-1.11,-0.255,
2234,-1.095,-0.25,
2235,-1.09,-0.235,
2236,-1.09,-0.26,
2237,-1.075,-0.275,
2238,-1.065,-0.295,
2239,-1.04,-0.305,
2240,-1.03,-0.305,
2241,-1.005,-0.34,
2242,-0.975,-0.31,
2243,-0.955,-0.295,
2244,-0.95,-0.275,
2245,-0.915,-0.255,
2246,-0.88,-0.25,
2247,-0.845,-0.235,
2248,-0.83,-0.26,
2249,-0.805,-0.23,
2250,-0.81,-0.24,
2251,-0.765,-0.23,
2252,-0.73,-0.25,
2253,-0.71,-0.235,
2254,-0.675,-0.23,
2255,-0.645,-0.22,
2256,-0.605,-0.19,
2257,-0.595,-0.195,
2258,-0.565,-0.18,
2259,-0.565,-0.185,
2260,-0.57,-0.225,
2261,-0.585,-0.23,
2262,-0.6,-0.24,
2263,-0.605,-0.23,
2264,-0.62,-0.225,
2265,-0.615,-0.215,
2266,-0.605,-0.19,
2267,-0.595,-0.17,
2268,-0.625,-0.195,
2269,-0.605,-0.215,
2270,-0.635,-0.235,
2271,-0.675,-0.245,
2272,-0.725,-0.265,
2273,-0.79,-0.285,
2274,-0.845,-0.305,
2275,-0.905,-0.32,
2276,-0.945,-0.335,
2277,-0.985,-0.34,
2278,-1.015,-0.37,
2279,-1.06,-0.375,
2280,-1.1,-0.39,
2281,-1.105,-0.38,
2282,-1.125,-0.36,
2283,-1.16,-0.365,
2284,-1.19,-0.355,
2285,-1.21,-0.37,
2286,-1.25,-0.37,
2287,-1.255,-0.385,
2288,-1.285,-0.395,
2289,-1.295,-0.39,
2290,-1.29,-0.37,
2291,-1.295,-0.36,
2292,-1.295,-0.355,
2293,-1.285,-0.355,
2294,-1.295,-0.36,
2295,-1.305,-0.39,
2296,-1.34,-0.41,
2297,-1.34,-0.365,
2298,-1.335,-0.385,
2299,-1.34,-0.38,
2300,-1.345,-0.39,
2301,-1.345,-0.38,
2302,-1.325,-0.37,
2303,-1.31,-0.36,
2304,-1.3,-0.375,
2305,-1.29,-0.38,
2306,-1.29,-0.38,
2307,-1.295,-0.39,
2308,-1.305,-0.41,
2309,-1.325,-0.395,
2310,-1.315,-0.41,
2311,-1.315,-0.415,
2312,-1.315,-0.405,
2313,-1.31,-0.405,
2314,-1.3,-0.41,
2315,-1.275,-0.38,
2316,-1.27,-0.37,
2317,-1.29,-0.36,
2318,-1.28,-0.37,
2319,-1.28,-0.37,
2320,-1.27,-0.38,
2321,-1.275,-0.4,
2322,-1.285,-0.41,
2323,-1.3,-0.43,
2324,-1.295,-0.445,
2325,-1.285,-0.42,
2326,-1.28,-0.395,
2327,-1.28,-0.385,
2328,-1.255,-0.38,
2329,-1.25,-0.375,
2330,-1.255,-0.37,
2331,-1.255,-0.37,
2332,-1.265,-0.385,
2333,-1.28,-0.38,
2334,-1.295,-0.38,
2335,-1.29,-0.385,
2336,-1.29,-0.39,
2337,-1.305,-0.395,
2338,-1.295,-0.4,
2339,-1.305,-0.4,
2340,-1.285,-0.38,
2341,-1.28,-0.385,
2342,-1.285,-0.4,
2343,-1.28,-0.41,
2344,-1.31,-0.425,
2345,-1.325,-0.42,
2346,-1.33,-0.425,
2347,-1.335,-0.42,
2348,-1.32,-0.4,
2349,-1.32,-0.39,
2350,-1.305,-0.385,
2351,-1.3,-0.4,
2352,-1.3,-0.39,
2353,-1.31,-0.41,
2354,-1.315,-0.415,
2355,-1.335,-0.41,
2356,-1.34,-0.43,
2357,-1.335,-0.415,
2358,-1.335,-0.43,
2359,-1.345,-0.42,
2360,-1.34,-0.44,
2361,-1.345,-0.43,
2362,-1.335,-0.405,
2363,-1.315,-0.4,
2364,-1.315,-0.39,
2365,-1.31,-0.395,
2366,-1.315,-0.385,
2367,-1.295,-0.395,
2368,-1.315,-0.4,
2369,-1.325,-0.42,
2370,-1.32,-0.43,
2371,-1.335,-0.41,
2372,-1.345,-0.425,
2373,-1.335,-0.415,
2374,-1.34,-0.415,
2375,-1.325,-0.4,
2376,-1.325,-0.385,
2377,-1.31,-0.38,
2378,-1.3,-0.37,
2379,-1.3,-0.365,
2380,-1.295,-0.37,
2381,-1.29,-0.365,
2382,-1.28,-0.375,
2383,-1.28,-0.36,
2384,-1.265,-0.355,
2385,-1.25,-0.36,
2386,-1.24,-0.365,
2387,-1.235,-0.365,
2388,-1.225,-0.355,
2389,-1.22,-0.35,
2390,-1.21,-0.35,
2391,-1.21,-0.355,
2392,-1.22,-0.355,
2393,-1.225,-0.375,
2394,-1.21,-0.39,
2395,-1.215,-0.395,
2396,-1.195,-0.41,
2397,-1.18,-0.385,
2398,-1.16,-0.385,
2399,-1.125,-0.365,
2400,-1.12,-0.365,
2401,-1.125,-0.36,
2402,-1.115,-0.375,
2403,-1.145,-0.385,
2404,-1.16,-0.38,
2405,-1.175,-0.405,
2406,-1.205,-0.42,
2407,-1.215,-0.42,
2408,-1.225,-0.435,
2409,-1.215,-0.45,
2410,-1.225,-0.44,
2411,-1.21,-0.43,
2412,-1.22,-0.41,
2413,-1.235,-0.405,
2414,-1.26,-0.41,
2415,-1.28,-0.42,
2416,-1.315,-0.435,
2417,-1.345,-0.445,
2418,-1.365,-0.45,
2419,-1.385,-0.445,
2420,-1.39,-0.435,
2421,-1.385,-0.44,
2422,-1.38,-0.44,
2423,-1.37,-0.43,
2424,-1.355,-0.41,
2425,-1.34,-0.385,
2426,-1.33,-0.39,
2427,-1.33,-0.41,
2428,-1.345,-0.425,
2429,-1.345,-0.43,
2430,-1.355,-0.42,
2431,-1.335,-0.42,
2432,-1.345,-0.425,
2433,-1.33,-0.43,
2434,-1.315,-0.45,
2435,-1.29,-0.5,
2436,-1.235,-0.565,
2437,-1.135,-0.665,
2438,-1.0,-0.775,
2439,-0.79,-0.86,
2440,-0.51,-0.955,
2441,-0.15,-1.055,
2442,0.24,-1.13,
2443,0.685,-1.205,
2444,1.15,-1.235,
2445,1.63,-1.235,
2446,2.02,-1.175,
2447,2.285,-1.075,N
2448,2.39,-0.945,
2449,2.275,-0.84,
2450,1.905,-0.765,
2451,1.29,-0.71,
2452,0.65,-0.68,
2453,0.01,-0.675,
2454,-0.63,-0.655,
2455,-1.27,-0.625,
2456,-1.86,-0.565,
2457,-1.78,-0.515,
2458,-1.52,-0.455,
2459,-1.255,-0.405,
2460,-1.065,-0.4,
2461,-0.985,-0.42,
2462,-1.0,-0.435,
2463,-1.085,-0.45,
2464,-1.195,-0.435,
2465,-1.265,-0.43,
2466,-1.31,-0.435,
2467,-1.31,-0.425,
2468,-1.33,-0.405,
2469,-1.3,-0.37,
2470,-1.27,-0.37,
2471,-1.25,-0.37,
2472,-1.25,-0.375,
2473,-1.255,-0.385,
2474,-1.255,-0.385,
2475,-1.265,-0.39,
2476,-1.26,-0.385,
2477,-1.27,-0.39,
2478,-1.27,-0.395,
2479,-1.26,-0.405,
2480,-1.265,-0.405,
2481,-1.245,-0.385,
2482,-1.23,-0.35,
2483,-1.215,-0.335,
2484,-1.2,-0.315,
2485,-1.19,-0.31,
2486,-1.185,-0.345,
2487,-1.185,-0.37,
2488,-1.195,-0.385,
2489,-1.185,-0.39,
2490,-1.19,-0.36,
2491,-1.19,-0.335,
2492,-1.18,-0.34,
2493,-1.165,-0.34,
2494,-1.16,-0.345,
2495,-1.135,-0.365,
2496,-1.105,-0.37,
2497,-1.08,-0.36,
2498,-1.075,-0.345,
2499,-1.07,-0.36,
2500,-1.045,-0.36,
2501,-1.05,-0.355,
2502,-1.035,-0.37,
2503,-1.04,-0.375,
2504,-1.015,-0.36,
2505,-1.01,-0.345,
2506,-0.975,-0.315,
2507,-0.955,-0.305,
2508,-0.92,-0.295,
2509,-0.87,-0.305,
2510,-0.83,-0.295,
2511,-0.815,-0.3,
2512,-0.81,-0.305,
2513,-0.795,-0.29,
2514,-0.78,-0.31,
2515,-0.735,-0.305,
2516,-0.745,-0.285,
2517,-0.72,-0.265,
2518,-0.68,-0.23,
2519,-0.645,-0.235,
2520,-0.59,-0.235,
2521,-0.555,-0.235,
2522,-0.545,-0.25,
2523,-0.525,-0.26,
2524,-0.515,-0.26,
2525,-0.485,-0.25,
2526,-0.485,-0.27,
2527,-0.47,-0.255,
2528,-0.475,-0.27,
2529,-0.465,-0.245,
2530,-0.46,-0.22,
2531,-0.465,-0.225,
2532,-0.475,-0.24,
2533,-0.485,-0.225,
2534,-0.48,-0.225,
2535,-0.505,-0.245,
2536,-0.54,-0.285,
2537,-0.585,-0.32,
2538,-0.615,-0.35,
2539,-0.655,-0.37,
2540,-0.705,-0.375,
2541,-0.76,-0.345,
2542,-0.81,-0.35,
2543,-0.855,-0.345,
2544,-0.905,-0.36,
2545,-0.92,-0.39,
2546,-0.975,-0.39,
2547,-1.015,-0.41,
2548,-1.065,-0.43,
2549,-1.105,-0.45,
2550,-1.15,-0.46,
2551,-1.185,-0.465,
2552,-1.195,-0.465,
2553,-1.225,-0.45,
2554,-1.215,-0.45,
2555,-1.22,-0.445,
2556,-1.23,-0.42,
2557,-1.235,-0.415,
2558,-1.245,-0.415,
2559,-1.265,-0.43,
2560,-1.265,-0.43,
2561,-1.28,-0.455,
2562,-1.28,-0.445,
2563,-1.295,-0.46,
2564,-1.31,-0.455,
2565,-1.315,-0.45,
2566,-1.31,-0.42,
2567,-1.29,-0.435,
2568,-1.28,-0.435,
2569,-1.28,-0.415,
2570,-1.275,-0.44,
2571,-1.265,-0.43,
2572,-1.275,-0.46,
2573,-1.29,-0.475,
2574,-1.285,-0.47,
2575,-1.29,-0.49,
2576,-1.295,-0.5,
2577,-1.28,-0.48,
2578,-1.28,-0.46,
2579,-1.265,-0.45,
2580,-1.26,-0.435,
2581,-1.245,-0.415,
2582,-1.255,-0.43,
2583,-1.25,-0.43,
2584,-1.24,-0.465,
2585,-1.25,-0.475,
2586,-1.25,-0.475,
2587,-1.25,-0.47,
2588,-1.265,-0.45,
2589,-1.265,-0.425,
2590,-1.28,-0.42,
2591,-1.265,-0.41,
2592,-1.265,-0.42,
2593,-1.245,-0.43,
2594,-1.22,-0.45,
2595,-1.22,-0.465,
2596,-1.23,-0.47,
2597,-1.24,-0.47,
2598,-1.255,-0.44,
2599,-1.27,-0.455,
2600,-1.285,-0.44,
2601,-1.285,-0.445,
2602,-1.285,-0.465,
2603,-1.265,-0.465,
2604,-1.275,-0.465,
2605,-1.27,-0.465,
2606,-1.295,-0.45,
2607,-1.3,-0.445,
2608,-1.315,-0.47,
2609,-1.32,-0.465,
2610,-1.295,-0.485,
2611,-1.29,-0.505,
2612,-1.315,-0.515,
2613,-1.315,-0.5,
2614,-1.325,-0.495,
2615,-1.305,-0.465,
2616,-1.305,-0.45,
2617,-1.29,-0.435,
2618,-1.275,-0.44,
2619,-1.27,-0.465,
2620,-1.28,-0.49,
2621,-1.3,-0.485,
2622,-1.31,-0.51,
2623,-1.32,-0.505,
2624,-1.33,-0.5,
2625,-1.335,-0.53,
2626,-1.33,-0.5,
2627,-1.32,-0.505,
2628,-1.32,-0.485,
2629,-1.325,-0.49,
2630,-1.335,-0.49,
2631,-1.325,-0.49,
2632,-1.325,-0.5,
2633,-1.325,-0.485,
2634,-1.325,-0.5,
2635,-1.32,-0.5,
2636,-1.335,-0.49,
2637,-1.33,-0.5,
2638,-1.33,-0.495,
2639,-1.32,-0.505,
2640,-1.305,-0.49,
2641,-1.3,-0.495,
2642,-1.3,-0.495,
2643,-1.315,-0.49,
2644,-1.3,-0.48,
2645,-1.315,-0.5,
2646,-1.33,-0.495,
2647,-1.345,-0.485,
2648,-1.355,-0.49,
2649,-1.35,-0.475,
2650,-1.32,-0.455,
2651,-1.275,-0.445,
2652,-1.24,-0.43,
2653,-1.225,-0.42,
2654,-1.21,-0.405,
2655,-1.21,-0.4,
2656,-1.21,-0.42,
2657,-1.23,-0.435,
2658,-1.23,-0.45,
2659,-1.24,-0.475,
2660,-1.245,-0.475,
2661,-1.23,-0.455,
2662,-1.21,-0.43,
2663,-1.19,-0.42,
2664,-1.17,-0.415,
2665,-1.14,-0.43,
2666,-1.135,-0.465,
2667,-1.14,-0.48,
2668,-1.13,-0.5,
2669,-1.135,-0.515,
2670,-1.145,-0.505,
2671,-1.165,-0.5,
2672,-1.18,-0.485,
2673,-1.185,-0.48,
2674,-1.19,-0.465,
2675,-1.19,-0.475,
2676,-1.205,-0.48,
2677,-1.18,-0.485,
2678,-1.195,-0.505,
2679,-1.205,-0.515,
2680,-1.215,-0.53,
2681,-1.24,-0.545,
2682,-1.275,-0.56,
2683,-1.3,-0.545,
2684,-1.33,-0.55,
2685,-1.355,-0.535,
2686,-1.355,-0.525,
2687,-1.365,-0.515,
2688,-1.365,-0.51,
2689,-1.35,-0.51,
2690,-1.335,-0.545,
2691,-1.34,-0.555,
2692,-1.33,-0.55,
2693,-1.345,-0.54,
2694,-1.345,-0.535,
2695,-1.36,-0.535,
2696,-1.365,-0.54,
2697,-1.365,-0.535,
2698,-1.36,-0.53,
2699,-1.335,-0.505,
2700,-1.32,-0.5,
2701,-1.305,-0.495,
2702,-1.32,-0.495,
2703,-1.32,-0.495,
2704,-1.31,-0.55,
2705,-1.29,-0.59,
2706,-1.255,-0.655,
2707,-1.175,-0.73,
2708,-1.06,-0.785,
2709,-0.91,-0.86,
2710,-0.7,-0.875,
2711,-0.445,-0.92,
2712,-0.185,-0.955,
2713,0.095,-1.03,
2714,0.375,-1.105,
2715,0.665,-1.19,
2716,1.0,-1.255,
2717,1.345,-1.245,
2718,1.64,-1.18,N
2719,1.835,-1.065,
2720,1.845,-0.93,
2721,1.575,-0.85,
2722,1.02,-0.78,
2723,0.38,-0.765,
2724,-0.26,-0.74,
2725,-0.9,-0.71,
2726,-1.54,-0.665,
2727,-1.91,-0.63,
2728,-1.775,-0.59,
2729,-1.525,-0.585,
2730,-1.255,-0.575,
2731,-1.075,-0.585,
2732,-1.02,-0.565,
2733,-1.045,-0.55,
2734,-1.1,-0.545,
2735,-1.17,-0.535,
2736,-1.225,-0.52,
2737,-1.245,-0.51,
2738,-1.26,-0.52,
2739,-1.245,-0.525,
2740,-1.25,-0.525,
2741,-1.235,-0.54,
2742,-1.25,-0.57,
2743,-1.255,-0.56,
2744,-1.265,-0.555,
2745,-1.265,-0.54,
2746,-1.26,-0.52,
2747,-1.24,-0.5,
2748,-1.235,-0.49,
2749,-1.22,-0.48,
2750,-1.24,-0.5,
2751,-1.22,-0.515,
2752,-1.22,-0.54,
2753,-1.225,-0.56,
2754,-1.205,-0.57,
2755,-1.19,-0.555,
2756,-1.195,-0.55,
2757,-1.175,-0.545,
2758,-1.16,-0.52,
2759,-1.17,-0.49,
2760,-1.13,-0.48,
2761,-1.14,-0.475,
2762,-1.11,-0.48,
2763,-1.125,-0.495,
2764,-1.12,-0.515,
2765,-1.13,-0.51,
2766,-1.11,-0.52,
2767,-1.1,-0.515,
2768,-1.085,-0.515,
2769,-1.075,-0.525,
2770,-1.055,-0.515,
2771,-1.04,-0.49,
2772,-1.015,-0.495,
2773,-1.0,-0.485,
2774,-0.985,-0.475,
2775,-0.975,-0.48,
2776,-0.955,-0.485,
2777,-0.935,-0.495,
2778,-0.92,-0.49,
2779,-0.895,-0.485,
2780,-0.89,-0.48,
2781,-0.875,-0.495,
2782,-0.855,-0.49,
2783,-0.84,-0.475,
2784,-0.815,-0.45,
2785,-0.785,-0.42,
2786,-0.75,-0.425,
2787,-0.725,-0.41,
2788,-0.71,-0.43,
2789,-0.67,-0.465,
2790,-0.65,-0.465,
2791,-0.615,-0.47,
2792,-0.605,-0.46,
2793,-0.58,-0.45,
2794,-0.55,-0.435,
2795,-0.515,-0.43,
2796,-0.49,-0.405,
2797,-0.435,-0.38,
2798,-0.41,-0.39,
2799,-0.38,-0.395,
2800,-0.36,-0.395,
2801,-0.35,-0.41,
2802,-0.345,-0.405,
2803,-0.35,-0.395,
2804,-0.35,-0.41,
2805,-0.36,-0.39,
2806,-0.35,-0.405,
2807,-0.325,-0.39,
2808,-0.315,-0.385,
2809,-0.29,-0.375,
2810,-0.295,-0.39,
2811,-0.315,-0.41,
2812,-0.335,-0.44,
2813,-0.38,-0.435,
2814,-0.445,-0.45,
2815,-0.495,-0.48,
2816,-0.545,-0.47,
2817,-0.6,-0.47,
2818,-0.63,-0.48,
2819,-0.67,-0.49,
2820,-0.71,-0.47,
2821,-0.73,-0.47,
2822,-0.765,-0.485,
2823,-0.815,-0.505,
2824,-0.86,-0.535,
2825,-0.895,-0.56,
2826,-0.93,-0.57,
2827,-0.95,-0.57,
2828,-0.985,-0.585,
2829,-0.995,-0.58,
2830,-0.99,-0.545,
2831,-1.005,-0.535,
2832,-1.01,-0.525,
2833,-1.03,-0.52,
2834,-1.045,-0.525,
2835,-1.05,-0.56,
2836,-1.07,-0.565,
2837,-1.08,-0.575,
2838,-1.075,-0.605,
2839,-1.08,-0.595,
2840,-1.085,-0.58,
2841,-1.09,-0.575,
2842,-1.09,-0.55,
2843,-1.075,-0.555,
2844,-1.075,-0.55,
2845,-1.05,-0.535,
2846,-1.04,-0.56,
2847,-1.035,-0.57,
2848,-1.05,-0.58,
2849,-1.065,-0.605,
2850,-1.07,-0.615,
2851,-1.085,-0.6,
2852,-1.08,-0.6,
2853,-1.075,-0.575,
2854,-1.06,-0.575,
2855,-1.045,-0.545,
2856,-1.035,-0.53,
2857,-1.015,-0.535,
2858,-1.01,-0.55,
2859,-1.0,-0.555,
2860,-1.005,-0.55,
2861,-1.02,-0.575,
2862,-1.02,-0.59,
2863,-1.025,-0.605,
2864,-1.025,-0.605,
2865,-1.03,-0.59,
2866,-1.03,-0.585,
2867,-1.015,-0.57,
2868,-0.985,-0.555,
2869,-0.97,-0.525,
2870,-0.965,-0.535,
2871,-0.985,-0.53,
2872,-0.995,-0.55,
2873,-1.01,-0.585,
2874,-1.01,-0.59,
2875,-1.02,-0.6,
2876,-1.035,-0.61,
2877,-1.04,-0.615,
2878,-1.03,-0.615,
2879,-1.035,-0.58,
2880,-1.04,-0.565,
2881,-1.035,-0.545,
2882,-1.02,-0.54,
2883,-1.02,-0.535,
2884,-1.03,-0.55,
2885,-1.05,-0.56,
2886,-1.05,-0.57,
2887,-1.065,-0.59,
2888,-1.06,-0.6,
2889,-1.065,-0.62,
2890,-1.06,-0.615,
2891,-1.055,-0.585,
2892,-1.04,-0.6,
2893,-1.03,-0.6,
2894,-1.045,-0.58,
2895,-1.055,-0.585,
2896,-1.07,-0.595,
2897,-1.08,-0.61,
2898,-1.085,-0.62,
2899,-1.075,-0.615,
2900,-1.09,-0.6,
2901,-1.085,-0.59,
2902,-1.085,-0.585,
2903,-1.075,-0.585,
2904,-1.07,-0.585,
2905,-1.05,-0.59,
2906,-1.055,-0.605,
2907,-1.055,-0.6,
2908,-1.06,-0.62,
2909,-1.085,-0.63,
2910,-1.095,-0.64,
2911,-1.095,-0.635,
2912,-1.09,-0.62,
2913,-1.085,-0.595,
2914,-1.08,-0.585,
2915,-1.09,-0.58,
2916,-1.075,-0.595,
2917,-1.04,-0.595,
2918,-1.055,-0.605,
2919,-1.05,-0.61,
2920,-1.07,-0.595,
2921,-1.065,-0.61,
2922,-1.055,-0.59,
2923,-1.045,-0.575,
2924,-1.025,-0.555,
2925,-0.99,-0.535,
2926,-0.99,-0.52,
2927,-0.96,-0.51,
2928,-0.96,-0.525,
2929,-0.94,-0.545,
2930,-0.92,-0.57,
2931,-0.92,-0.57,
2932,-0.935,-0.575,
2933,-0.94,-0.585,
2934,-0.96,-0.575,
2935,-0.95,-0.58,
2936,-0.94,-0.59,
2937,-0.915,-0.615,
2938,-0.89,-0.61,
2939,-0.87,-0.61,
2940,-0.87,-0.62,
2941,-0.86,-0.59,
2942,-0.875,-0.58,
2943,-0.875,-0.565,
2944,-0.875,-0.565,
2945,-0.89,-0.605,
2946,-0.905,-0.61,
2947,-0.905,-0.615,
2948,-0.945,-0.63,
2949,-0.96,-0.62,
2950,-0.98,-0.605,
2951,-0.995,-0.61,
2952,-1.02,-0.595,
2953,-1.025,-0.605,
2954,-1.045,-0.605,
2955,-1.06,-0.64,
2956,-1.06,-0.665,
2957,-1.085,-0.67,
2958,-1.1,-0.67,
2959,-1.13,-0.66,
2960,-1.145,-0.65,
2961,-1.13,-0.63,
2962,-1.125,-0.625,
2963,-1.095,-0.615,
2964,-1.09,-0.62,
2965,-1.08,-0.615,
2966,-1.085,-0.615,
2967,-1.075,-0.615,
2968,-1.095,-0.615,
2969,-1.105,-0.615,
2970,-1.13,-0.63,
2971,-1.135,-0.625,
2972,-1.135,-0.635,
2973,-1.13,-0.66,
2974,-1.085,-0.67,
2975,-1.03,-0.715,
2976,-0.945,-0.755,
2977,-0.83,-0.83,
2978,-0.68,-0.925,
2979,-0.47,-1.02,
2980,-0.21,-1.12,
2981,0.12,-1.24,
2982,0.485,-1.31,
2983,0.89,-1.395,
2984,1.33,-1.445,
2985,1.735,-1.45,
2986,2.1,-1.4,
2987,2.345,-1.295,N
2988,2.435,-1.17,
2989,2.315,-1.035,
2990,1.9,-0.94,
2991,1.26,-0.87,
2992,0.62,-0.835,
2993,-0.02,-0.82,
2994,-0.66,-0.805,
2995,-1.3,-0.76,
2996,-1.675,-0.73,
2997,-1.425,-0.67,
2998,-1.085,-0.625,
2999,-0.8,-0.635,
3000,-0.66,-0.63,
3001,-0.65,-0.64,
3002,-0.725,-0.625,
3003,-0.845,-0.635,
3004,-0.96,-0.65,
3005,-1.035,-0.64,
3006,-1.07,-0.635,
3007,-1.085,-0.635,
3008,-1.08,-0.63,
3009,-1.06,-0.595,
3010,-1.045,-0.58,
3011,-1.03,-0.57,
3012,-1.025,-0.565,
3013,-1.015,-0.555,
3014,-1.005,-0.59,
3015,-1.0,-0.605,
3016,-0.99,-0.605,
3017,-0.99,-0.625,
3018,-1.0,-0.615,
3019,-1.0,-0.605,
3020,-0.995,-0.605,
3021,-1.015,-0.61,
3022,-1.02,-0.595,
3023,-1.005,-0.58,
3024,-1.015,-0.58,
3025,-0.99,-0.57,
3026,-0.985,-0.545,
3027,-0.965,-0.555,
3028,-0.96,-0.545,
3029,-0.96,-0.545,
3030,-0.96,-0.555,
3031,-0.95,-0.565,
3032,-0.935,-0.58,
3033,-0.92,-0.6,
3034,-0.91,-0.59,
3035,-0.9,-0.565,
3036,-0.895,-0.565,
3037,-0.87,-0.53,
3038,-0.87,-0.51,
3039,-0.865,-0.525,
3040,-0.85,-0.53,
3041,-0.87,-0.55,
3042,-0.865,-0.56,
3043,-0.84,-0.565,
3044,-0.83,-0.57,
3045,-0.81,-0.555,
3046,-0.8,-0.55,
3047,-0.775,-0.53,
3048,-0.74,-0.505,
3049,-0.705,-0.49,
3050,-0.68,-0.49,
3051,-0.665,-0.465,
3052,-0.645,-0.48,
3053,-0.635,-0.505,
3054,-0.615,-0.485,
3055,-0.61,-0.495,
3056,-0.58,-0.485,
3057,-0.55,-0.48,
3058,-0.515,-0.465,
3059,-0.49,-0.46,
3060,-0.45,-0.455,
3061,-0.43,-0.445,
3062,-0.375,-0.44,
3063,-0.34,-0.445,
3064,-0.32,-0.44,
3065,-0.305,-0.46,
3066,-0.29,-0.48,
3067,-0.29,-0.485,
3068,-0.265,-0.465,
3069,-0.255,-0.46,
3070,-0.245,-0.425,
3071,-0.225,-0.425,
3072,-0.215,-0.41,
3073,-0.18,-0.39,
3074,-0.165,-0.395,
3075,-0.165,-0.435,
3076,-0.185,-0.445,
3077,-0.2,-0.46,
3078,-0.235,-0.485,
3079,-0.255,-0.49,
3080,-0.29,-0.495,
3081,-0.33,-0.5,
3082,-0.39,-0.51,
3083,-0.42,-0.5,
3084,-0.455,-0.48,
3085,-0.5,-0.49,
3086,-0.54,-0.49,
3087,-0.585,-0.515,
3088,-0.625,-0.54,
3089,-0.685,-0.575,
3090,-0.74,-0.59,
3091,-0.755,-0.615,
3092,-0.805,-0.615,
3093,-0.82,-0.61,
3094,-0.84,-0.58,
3095,-0.87,-0.585,
3096,-0.885,-0.605,
3097,-0.91,-0.615,
3098,-0.925,-0.63,
3099,-0.95,-0.655,
3100,-0.975,-0.66,
3101,-0.99,-0.665,
3102,-1.025,-0.645,
3103,-1.025,-0.645,
3104,-1.015,-0.645,
3105,-1.04,-0.65,
3106,-1.035,-0.64,
3107,-1.005,-0.625,
3108,-0.99,-0.63,
3109,-0.98,-0.62,
3110,-0.98,-0.62,
3111,-0.97,-0.62,
3112,-0.99,-0.635,
3113,-0.985,-0.645,
3114,-1.005,-0.655,
3115,-1.01,-0.67,
3116,-1.02,-0.665,
3117,-1.01,-0.65,
3118,-1.025,-0.625,
3119,-1.01,-0.605,
3120,-1.025,-0.61,
3121,-1.01,-0.605,
3122,-1.01,-0.625,
3123,-1.01,-0.62,
3124,-1.015,-0.635,
3125,-1.01,-0.64,
3126,-1.005,-0.635,
3127,-0.995,-0.64,
3128,-1.0,-0.62,
3129,-1.0,-0.61,
3130,-0.975,-0.625,
3131,-0.98,-0.625,
3132,-0.97,-0.625,
3133,-0.96,-0.64,
3134,-0.97,-0.64,
3135,-0.98,-0.645,
3136,-0.99,-0.655,
3137,-1.02,-0.65,
3138,-1.015,-0.64,
3139,-1.01,-0.625,
3140,-1.01,-0.625,
3141,-1.015,-0.62,
3142,-1.025,-0.64,
3143,-1.01,-0.625,
3144,-1.01,-0.62,
3145,-0.99,-0.625,
3146,-0.97,-0.63,
3147,-0.98,-0.65,
3148,-0.98,-0.645,
3149,-1.005,-0.675,
3150,-1.015,-0.69,
3151,-1.03,-0.665,
3152,-1.035,-0.68,
3153,-1.03,-0.665,
3154,-1.015,-0.65,
3155,-1.01,-0.64,
3156,-1.0,-0.63,
3157,-0.99,-0.625,
3158,-1.01,-0.64,
3159,-1.035,-0.65,
3160,-1.06,-0.685,
3161,-1.06,-0.685,
3162,-1.05,-0.695,
3163,-1.055,-0.68,
3164,-1.05,-0.68,
3165,-1.03,-0.67,
3166,-1.04,-0.655,
3167,-1.05,-0.655,
3168,-1.035,-0.655,
3169,-1.04,-0.64,
3170,-1.03,-0.635,
3171,-1.02,-0.625,
3172,-1.025,-0.65,
3173,-1.05,-0.66,
3174,-1.06,-0.675,
3175,-1.055,-0.685,
3176,-1.06,-0.69,
3177,-1.05,-0.715,
3178,-1.045,-0.675,
3179,-1.045,-0.7,
3180,-1.05,-0.675,
3181,-1.04,-0.665,
3182,-1.045,-0.66,
3183,-1.07,-0.64,
3184,-1.07,-0.645,
3185,-1.075,-0.66,
3186,-1.08,-0.675,
3187,-1.09,-0.69,
3188,-1.085,-0.685,
3189,-1.08,-0.675,
3190,-1.065,-0.645,
3191,-1.05,-0.62,
3192,-1.025,-0.6,
3193,-0.985,-0.58,
3194,-0.95,-0.605,
3195,-0.94,-0.6,
3196,-0.925,-0.635,
3197,-0.915,-0.63,
3198,-0.93,-0.645,
3199,-0.925,-0.65,
3200,-0.93,-0.63,
3201,-0.94,-0.625,
3202,-0.95,-0.635,
3203,-0.945,-0.61,
3204,-0.935,-0.615,
3205,-0.92,-0.595,
3206,-0.895,-0.595,
3207,-0.855,-0.62,
3208,-0.85,-0.64,
3209,-0.835,-0.64,
3210,-0.84,-0.645,
3211,-0.86,-0.645,
3212,-0.875,-0.65,
3213,-0.885,-0.67,
3214,-0.89,-0.65,
3215,-0.89,-0.655,
3216,-0.91,-0.645,
3217,-0.915,-0.665,
3218,-0.925,-0.67,
3219,-0.93,-0.68,
3220,-0.94,-0.68,
3221,-0.965,-0.685,
3222,-0.985,-0.66,
3223,-1.0,-0.67,
3224,-1.035,-0.69,
3225,-1.07,-0.69,
3226,-1.085,-0.71,
3227,-1.1,-0.72,
3228,-1.1,-0.695,
3229,-1.095,-0.68,
3230,-1.11,-0.665,
3231,-1.105,-0.67,
3232,-1.125,-0.685,
3233,-1.13,-0.69,
3234,-1.12,-0.7,
3235,-1.125,-0.7,
3236,-1.115,-0.7,
3237,-1.125,-0.7,
3238,-1.105,-0.69,
3239,-1.1,-0.67,
3240,-1.09,-0.665,
3241,-1.085,-0.65,
3242,-1.07,-0.66,
3243,-1.075,-0.67,
3244,-1.08,-0.695,
3245,-1.05,-0.75,
3246,-0.995,-0.83,
3247,-0.88,-0.955,
3248,-0.695,-1.065,
3249,-0.41,-1.19,
3250,-0.04,-1.305,
3251,0.435,-1.39,
3252,0.955,-1.47,
3253,1.49,-1.51,
3254,1.965,-1.49,
3255,2.31,-1.425,N
3256,2.475,-1.31,
3257,2.4,-1.18,
3258,2.015,-1.065,
3259,1.375,-1.0,
3260,0.735,-0.95,
3261,0.095,-0.935,
3262,-0.545,-0.895,
3263,-1.185,-0.845,
3264,-1.805,-0.78,
3265,-1.53,-0.735,
3266,-1.155,-0.695,
3267,-0.845,-0.66,
3268,-0.69,-0.65,
3269,-0.685,-0.665,
3270,-0.775,-0.68,
3271,-0.91,-0.685,
3272,-1.01,-0.72,
3273,-1.085,-0.715,
3274,-1.11,-0.695,
3275,-1.105,-0.66,
3276,-1.085,-0.66,
3277,-1.065,-0.615,
3278,-1.035,-0.605,
3279,-1.055,-0.64,
3280,-1.05,-0.645,
3281,-1.055,-0.675,
3282,-1.055,-0.685,
3283,-1.05,-0.695,
3284,-1.06,-0.68,
3285,-1.045,-0.66,
3286,-1.055,-0.645,
3287,-1.05,-0.63,
3288,-1.025,-0.625,
3289,-1.01,-0.63,
3290,-1.015,-0.625,
3291,-1.005,-0.615,
3292,-0.985,-0.625,
3293,-0.98,-0.63,
3294,-0.98,-0.64,
3295,-0.98,-0.65,
3296,-0.975,-0.66,
3297,-0.965,-0.645,
3298,-0.965,-0.61,
3299,-0.935,-0.575,
3300,-0.905,-0.555,
3301,-0.895,-0.55,
3302,-0.885,-0.555,
3303,-0.865,-0.585,
3304,-0.87,-0.63,
3305,-0.85,-0.64,
3306,-0.865,-0.635,
3307,-0.875,-0.64,
3308,-0.86,-0.61,
3309,-0.855,-0.615,
3310,-0.84,-0.57,
3311,-0.82,-0.56,
3312,-0.8,-0.555,
3313,-0.775,-0.565,
3314,-0.74,-0.565,
3315,-0.715,-0.55,
3316,-0.685,-0.55,
3317,-0.675,-0.54,
3318,-0.64,-0.545,
3319,-0.63,-0.55,
3320,-0.605,-0.545,
3321,-0.575,-0.54,
3322,-0.555,-0.52,
3323,-0.52,-0.52,
3324,-0.475,-0.525,
3325,-0.455,-0.51,
3326,-0.425,-0.5,
3327,-0.415,-0.485,
3328,-0.405,-0.47,
3329,-0.39,-0.475,
3330,-0.37,-0.475,
3331,-0.335,-0.485,
3332,-0.31,-0.5,
3333,-0.3,-0.495,
3334,-0.27,-0.495,
3335,-0.24,-0.485,
3336,-0.22,-0.475,
3337,-0.2,-0.48,
3338,-0.185,-0.48,
3339,-0.19,-0.5,
3340,-0.195,-0.505,
3341,-0.195,-0.51,
3342,-0.215,-0.495,
3343,-0.235,-0.505,
3344,-0.25,-0.5,
3345,-0.285,-0.5,
3346,-0.305,-0.515,
3347,-0.34,-0.53,
3348,-0.355,-0.545,
3349,-0.385,-0.56,
3350,-0.43,-0.57,
3351,-0.47,-0.6,
3352,-0.52,-0.61,
3353,-0.57,-0.625,
3354,-0.605,-0.62,
3355,-0.66,-0.63,
3356,-0.705,-0.65,
3357,-0.745,-0.665,
3358,-0.78,-0.65,
3359,-0.815,-0.645,
3360,-0.845,-0.635,
3361,-0.86,-0.615,
3362,-0.88,-0.62,
3363,-0.9,-0.64,
3364,-0.925,-0.665,
3365,-0.945,-0.7,
3366,-0.965,-0.715,
3367,-0.97,-0.725,
3368,-0.975,-0.72,
3369,-0.995,-0.695,
3370,-0.99,-0.67,
3371,-0.98,-0.67,
3372,-0.99,-0.665,
3373,-0.985,-0.66,
3374,-0.98,-0.685,
3375,-0.985,-0.69,
3376,-0.995,-0.71,
3377,-1.025,-0.705,
3378,-1.04,-0.71,
3379,-1.04,-0.68,
3380,-1.035,-0.68,
3381,-1.035,-0.67,
3382,-1.05,-0.675,
3383,-1.06,-0.68,
3384,-1.03,-0.705,
3385,-1.01,-0.695,
3386,-1.01,-0.7,
3387,-1.005,-0.69,
3388,-1.01,-0.675,
3389,-1.01,-0.665,
3390,-1.015,-0.69,
3391,-1.005,-0.695,
3392,-1.005,-0.71,
3393,-1.005,-0.71,
3394,-1.01,-0.71,
3395,-0.995,-0.69,
3396,-1.005,-0.66,
3397,-0.995,-0.655,
3398,-0.995,-0.655,
3399,-1.015,-0.68,
3400,-1.0,-0.685,
3401,-1.005,-0.7,
3402,-1.015,-0.72,
3403,-1.025,-0.69,
3404,-1.02,-0.67,
3405,-1.01,-0.665,
3406,-0.995,-0.66,
3407,-0.995,-0.655,
3408,-1.0,-0.665,
3409,-0.99,-0.665,
3410,-0.98,-0.695,
3411,-0.995,-0.72,
3412,-1.005,-0.71,
3413,-1.02,-0.73,
3414,-1.02,-0.745,
3415,-1.03,-0.735,
3416,-1.045,-0.73,
3417,-1.045,-0.685,
3418,-1.06,-0.665,
3419,-1.05,-0.68,
3420,-1.07,-0.66,
3421,-1.06,-0.64,
3422,-1.04,-0.66,
3423,-1.055,-0.67,
3424,-1.06,-0.695,
3425,-1.055,-0.72,
3426,-1.075,-0.725,
3427,-1.085,-0.725,
3428,-1.095,-0.715,
3429,-1.105,-0.7,
3430,-1.115,-0.695,
3431,-1.105,-0.695,
3432,-1.105,-0.68,
3433,-1.1,-0.68,
3434,-1.09,-0.675,
3435,-1.115,-0.695,
3436,-1.125,-0.7,
3437,-1.13,-0.695,
3438,-1.135,-0.7,
3439,-1.145,-0.7,
3440,-1.14,-0.71,
3441,-1.12,-0.715,
3442,-1.115,-0.695,
3443,-1.1,-0.705,
3444,-1.11,-0.695,
3445,-1.125,-0.68,
3446,-1.12,-0.675,
3447,-1.12,-0.67,
3448,-1.125,-0.665,
3449,-1.125,-0.68,
3450,-1.15,-0.695,
3451,-1.155,-0.69,
3452,-1.18,-0.68,
3453,-1.18,-0.71,
3454,-1.17,-0.7,
3455,-1.145,-0.7,
3456,-1.135,-0.68,
3457,-1.125,-0.675,
3458,-1.125,-0.655,
3459,-1.105,-0.655,
3460,-1.115,-0.655,
3461,-1.11,-0.67,
3462,-1.1,-0.655,
3463,-1.1,-0.665,
3464,-1.07,-0.655,
3465,-1.06,-0.675,
3466,-1.05,-0.655,
3467,-1.045,-0.63,
3468,-1.045,-0.63,
3469,-1.035,-0.605,
3470,-1.05,-0.615,
3471,-1.04,-0.635,
3472,-1.055,-0.65,
3473,-1.04,-0.67,
3474,-1.04,-0.68,
3475,-1.025,-0.68,
3476,-1.005,-0.695,
3477,-1.0,-0.685,
3478,-0.985,-0.675,
3479,-0.965,-0.66,
3480,-0.94,-0.67,
3481,-0.935,-0.66,
3482,-0.93,-0.655,
3483,-0.955,-0.665,
3484,-0.955,-0.655,
3485,-0.975,-0.66,
3486,-1.005,-0.655,
3487,-1.015,-0.67,
3488,-1.035,-0.69,
3489,-1.05,-0.71,
3490,-1.055,-0.71,
3491,-1.045,-0.7,
3492,-1.06,-0.7,
3493,-1.08,-0.68,
3494,-1.085,-0.67,
3495,-1.125,-0.7,
3496,-1.16,-0.72,
3497,-1.205,-0.75,
3498,-1.235,-0.76,
3499,-1.255,-0.76,
3500,-1.265,-0.735,
3501,-1.27,-0.71,
3502,-1.245,-0.69,
3503,-1.22,-0.685,
3504,-1.205,-0.7,
3505,-1.19,-0.7,
3506,-1.195,-0.715,
3507,-1.185,-0.725,
3508,-1.17,-0.715,
3509,-1.17,-0.735,
3510,-1.16,-0.705,
3511,-1.18,-0.71,
3512,-1.18,-0.695,
3513,-1.195,-0.69,
3514,-1.195,-0.69,
3515,-1.22,-0.7,
3516,-1.2,-0.74,
3517,-1.175,-0.78,
3518,-1.11,-0.845,
3519,-0.975,-0.93,
3520,-0.805,-1.045,
3521,-0.55,-1.14,
3522,-0.23,-1.23,
3523,0.145,-1.34,
3524,0.6,-1.405,
3525,1.07,-1.475,
3526,1.57,-1.535,
3527,2.0,-1.525,
3528,2.31,-1.485,
3529,2.485,-1.39,N
3530,2.51,-1.275,
3531,2.345,-1.12,
3532,1.93,-1.03,
3533,1.29,-0.985,
3534,0.65,-0.95,
3535,0.01,-0.935,
3536,-0.63,-0.9,
3537,-1.27,-0.845,
3538,-1.73,-0.78,
3539,-1.455,-0.705,
3540,-1.155,-0.67,
3541,-0.935,-0.645,
3542,-0.855,-0.63,
3543,-0.885,-0.67,
3544,-0.985,-0.685,
3545,-1.1,-0.705,
3546,-1.185,-0.7,
3547,-1.22,-0.725,
3548,-1.215,-0.695,
3549,-1.215,-0.675,
3550,-1.18,-0.67,
3551,-1.165,-0.655,
3552,-1.145,-0.65,
3553,-1.145,-0.61,
3554,-1.145,-0.625,
3555,-1.16,-0.635,
3556,-1.16,-0.635,
3557,-1.16,-0.665,
3558,-1.17,-0.65,
3559,-1.165,-0.655,
3560,-1.175,-0.64,
3561,-1.165,-0.625,
3562,-1.16,-0.62,
3563,-1.135,-0.615,
3564,-1.12,-0.61,
3565,-1.1,-0.595,
3566,-1.085,-0.6,
3567,-1.08,-0.62,
3568,-1.075,-0.635,
3569,-1.09,-0.635,
3570,-1.085,-0.65,
3571,-1.085,-0.645,
3572,-1.075,-0.65,
3573,-1.065,-0.635,
3574,-1.085,-0.625,
3575,-1.065,-0.595,
3576,-1.065,-0.605,
3577,-1.035,-0.595,
3578,-1.01,-0.6,
3579,-0.985,-0.605,
3580,-0.965,-0.605,
3581,-0.945,-0.615,
3582,-0.93,-0.605,
3583,-0.93,-0.605,
3584,-0.925,-0.61,
3585,-0.915,-0.6,
3586,-0.91,-0.6,
3587,-0.88,-0.605,
3588,-0.86,-0.6,
3589,-0.82,-0.6,
3590,-0.795,-0.585,
3591,-0.775,-0.57,
3592,-0.76,-0.565,
3593,-0.745,-0.56,
3594,-0.73,-0.56,
3595,-0.725,-0.545,
3596,-0.715,-0.535,
3597,-0.675,-0.535,
3598,-0.635,-0.525,
3599,-0.605,-0.505,
3600,-0.56,-0.52,
3601,-0.535,-0.505,
3602,-0.49,-0.51,
3603,-0.47,-0.49,
3604,-0.47,-0.505,
3605,-0.46,-0.505,
3606,-0.465,-0.515,
3607,-0.46,-0.52,
3608,-0.445,-0.52,
3609,-0.43,-0.525,
3610,-0.42,-0.52,
3611,-0.405,-0.52,
3612,-0.405,-0.51,
3613,-0.4,-0.52,
3614,-0.39,-0.52,
3615,-0.4,-0.53,
3616,-0.42,-0.53,
3617,-0.445,-0.56,
3618,-0.47,-0.575,
3619,-0.515,-0.58,
3620,-0.575,-0.585,
3621,-0.605,-0.59,
3622,-0.665,-0.605,
3623,-0.7,-0.595,
3624,-0.74,-0.63,
3625,-0.79,-0.6,
3626,-0.815,-0.605,
3627,-0.865,-0.62,
3628,-0.905,-0.63,
3629,-0.94,-0.64,
3630,-0.98,-0.65,
3631,-1.015,-0.665,
3632,-1.045,-0.665,
3633,-1.07,-0.68,
3634,-1.09,-0.67,
3635,-1.09,-0.685,
3636,-1.095,-0.68,
3637,-1.12,-0.67,
3638,-1.105,-0.665,
3639,-1.13,-0.66,
3640,-1.135,-0.66,
3641,-1.135,-0.665,
3642,-1.16,-0.665,
3643,-1.16,-0.675,
3644,-1.17,-0.69,
3645,-1.165,-0.685,
3646,-1.165,-0.695,
3647,-1.165,-0.685,
3648,-1.135,-0.67,
3649,-1.125,-0.665,
3650,-1.105,-0.67,
3651,-1.12,-0.66,
3652,-1.115,-0.66,
3653,-1.12,-0.67,
3654,-1.145,-0.685,
3655,-1.135,-0.68,
3656,-1.135,-0.685,
3657,-1.13,-0.69,
3658,-1.14,-0.675,
3659,-1.125,-0.655,
3660,-1.11,-0.64,
3661,-1.105,-0.635,
3662,-1.085,-0.635,
3663,-1.075,-0.645,
3664,-1.085,-0.65,
3665,-1.09,-0.67,
3666,-1.105,-0.69,
3667,-1.125,-0.695,
3668,-1.12,-0.72,
3669,-1.115,-0.705,
3670,-1.125,-0.7,
3671,-1.13,-0.69,
3672,-1.12,-0.68,
3673,-1.12,-0.67,
3674,-1.095,-0.675,
3675,-1.09,-0.69,
3676,-1.09,-0.69,
3677,-1.1,-0.675,
3678,-1.11,-0.685,
3679,-1.12,-0.695,
3680,-1.13,-0.675,
3681,-1.135,-0.68,
3682,-1.14,-0.695,
3683,-1.13,-0.685,
3684,-1.145,-0.69,
3685,-1.15,-0.675,
3686,-1.155,-0.69,
3687,-1.155,-0.685,
3688,-1.155,-0.69,
3689,-1.165,-0.69,
3690,-1.165,-0.7,
3691,-1.17,-0.705,
3692,-1.19,-0.7,
3693,-1.175,-0.71,
3694,-1.18,-0.68,
3695,-1.16,-0.705,
3696,-1.165,-0.695,
3697,-1.165,-0.705,
3698,-1.155,-0.685,
3699,-1.15,-0.68,
3700,-1.165,-0.68,
3701,-1.185,-0.71,
3702,-1.185,-0.71,
3703,-1.195,-0.715,
3704,-1.205,-0.71,
3705,-1.19,-0.725,
3706,-1.195,-0.725,
3707,-1.18,-0.73,
3708,-1.185,-0.7,
3709,-1.17,-0.68,
3710,-1.18,-0.66,
3711,-1.195,-0.68,
3712,-1.195,-0.675,
3713,-1.2,-0.695,
3714,-1.195,-0.715,
3715,-1.21,-0.715,
3716,-1.205,-0.7,
3717,-1.22,-0.68,
3718,-1.215,-0.69,
3719,-1.205,-0.675,
3720,-1.2,-0.685,
3721,-1.19,-0.675,
3722,-1.17,-0.69,
3723,-1.18,-0.675,
3724,-1.185,-0.665,
3725,-1.19,-0.685,
3726,-1.2,-0.69,
3727,-1.235,-0.675,
3728,-1.21,-0.68,
3729,-1.2,-0.675,
3730,-1.18,-0.675,
3731,-1.165,-0.655,
3732,-1.14,-0.665,
3733,-1.11,-0.655,
3734,-1.095,-0.65,
3735,-1.095,-0.64,
3736,-1.1,-0.63,
3737,-1.105,-0.65,
3738,-1.1,-0.665,
3739,-1.115,-0.67,
3740,-1.105,-0.67,
3741,-1.115,-0.66,
3742,-1.095,-0.65,
3743,-1.08,-0.64,
3744,-1.055,-0.63,
3745,-1.035,-0.62,
3746,-1.005,-0.63,
3747,-0.99,-0.655,
3748,-0.985,-0.685,
3749,-1.0,-0.705,
3750,-1.025,-0.72,
3751,-1.04,-0.71,
3752,-1.055,-0.7,
3753,-1.06,-0.685,
3754,-1.055,-0.685,
3755,-1.055,-0.7,
3756,-1.05,-0.695,
3757,-1.05,-0.7,
3758,-1.07,-0.7,
3759,-1.075,-0.695,
3760,-1.1,-0.695,
3761,-1.125,-0.695,
3762,-1.155,-0.71,
3763,-1.18,-0.72,
3764,-1.195,-0.73,
3765,-1.215,-0.76,
3766,-1.235,-0.765,
3767,-1.255,-0.745,
3768,-1.27,-0.72,
3769,-1.265,-0.695,
3770,-1.26,-0.7,
3771,-1.245,-0.7,
3772,-1.215,-0.72,
3773,-1.205,-0.73,
3774,-1.225,-0.735,
3775,-1.235,-0.715,
3776,-1.225,-0.71,
3777,-1.235,-0.695,
3778,-1.225,-0.685,
3779,-1.22,-0.685,
3780,-1.24,-0.675,
3781,-1.245,-0.69,
3782,-1.23,-0.71,
3783,-1.21,-0.715,
3784,-1.16,-0.75,
3785,-1.08,-0.83,
3786,-0.97,-0.885,
3787,-0.815,-0.995,
3788,-0.615,-1.075,
3789,-0.35,-1.17,
3790,0.005,-1.275,
3791,0.395,-1.305,
3792,0.83,-1.375,
3793,1.31,-1.405,
3794,1.755,-1.4,
3795,2.105,-1.385,
3796,2.295,-1.28,N
3797,2.315,-1.19,
3798,2.09,-1.075,
3799,1.61,-1.005,
3800,0.97,-0.96,
3801,0.33,-0.92,
3802,-0.31,-0.87,
3803,-0.95,-0.85,
3804,-1.59,-0.795,
3805,-1.675,-0.745,
3806,-1.4,-0.71,
3807,-1.12,-0.68,
3808,-0.895,-0.67,
3809,-0.81,-0.67,
3810,-0.82,-0.68,
3811,-0.905,-0.68,
3812,-0.985,-0.68,
3813,-1.07,-0.665,
3814,-1.13,-0.665,
3815,-1.15,-0.66,
3816,-1.15,-0.63,
3817,-1.125,-0.61,
3818,-1.125,-0.605,
3819,-1.095,-0.59,
3820,-1.09,-0.615,
3821,-1.1,-0.62,
3822,-1.11,-0.635,
3823,-1.12,-0.64,
3824,-1.11,-0.65,
3825,-1.115,-0.63,
3826,-1.1,-0.62,
3827,-1.085,-0.61,
3828,-1.08,-0.595,
3829,-1.055,-0.6,
3830,-1.035,-0.605,
3831,-1.035,-0.61,
3832,-1.04,-0.605,
3833,-1.04,-0.62,
3834,-1.035,-0.63,
3835,-1.035,-0.62,
3836,-1.03,-0.625,
3837,-1.03,-0.605,
3838,-1.02,-0.625,
3839,-1.005,-0.59,
3840,-0.995,-0.585,
3841,-0.975,-0.57,
3842,-0.955,-0.575,
3843,-0.935,-0.58,
3844,-0.96,-0.585,
3845,-0.94,-0.6,
3846,-0.93,-0.6,
3847,-0.92,-0.61,
3848,-0.91,-0.6,
3849,-0.885,-0.595,
3850,-0.865,-0.575,
3851,-0.845,-0.56,
3852,-0.825,-0.565,
3853,-0.805,-0.55,
3854,-0.76,-0.55,
3855,-0.765,-0.56,
3856,-0.75,-0.585,
3857,-0.745,-0.605,
3858,-0.72,-0.58,
3859,-0.74,-0.585,
3860,-0.72,-0.56,
3861,-0.7,-0.545,
3862,-0.67,-0.535,
3863,-0.63,-0.525,
3864,-0.595,-0.525,
3865,-0.55,-0.515,
3866,-0.5,-0.51,
3867,-0.45,-0.515,
3868,-0.43,-0.525,
3869,-0.415,-0.52,
3870,-0.41,-0.51,
3871,-0.415,-0.525,
3872,-0.4,-0.525,
3873,-0.395,-0.535,
3874,-0.385,-0.535,
3875,-0.355,-0.525,
3876,-0.34,-0.51,
3877,-0.34,-0.495,
3878,-0.32,-0.49,
3879,-0.305,-0.505,
3880,-0.32,-0.49,
3881,-0.32,-0.515,
3882,-0.32,-0.535,
3883,-0.335,-0.545,
3884,-0.345,-0.545,
3885,-0.375,-0.555,
3886,-0.4,-0.555,
3887,-0.425,-0.56,
3888,-0.465,-0.555,
3889,-0.495,-0.575,
3890,-0.535,-0.595,
3891,-0.575,-0.6,
3892,-0.625,-0.625,
3893,-0.675,-0.645,
3894,-0.725,-0.655,
3895,-0.77,-0.665,
3896,-0.8,-0.67,
3897,-0.855,-0.675,
3898,-0.88,-0.67,
3899,-0.895,-0.665,
3900,-0.91,-0.665,
3901,-0.925,-0.65,
3902,-0.93,-0.66,
3903,-0.965,-0.635,
3904,-0.99,-0.645,
3905,-0.995,-0.665,
3906,-1.025,-0.68,
3907,-1.03,-0.685,
3908,-1.05,-0.68,
3909,-1.055,-0.67,
3910,-1.075,-0.67,
3911,-1.07,-0.645,
3912,-1.07,-0.655,
3913,-1.05,-0.65,
3914,-1.03,-0.67,
3915,-1.04,-0.685,
3916,-1.04,-0.705,
3917,-1.045,-0.7,
3918,-1.06,-0.715,
3919,-1.07,-0.715,
3920,-1.075,-0.7,
3921,-1.06,-0.715,
3922,-1.06,-0.695,
3923,-1.05,-0.69,
3924,-1.04,-0.675,
3925,-1.03,-0.67,
3926,-1.025,-0.66,
3927,-1.015,-0.665,
3928,-1.02,-0.68,
3929,-1.04,-0.695,
3930,-1.035,-0.7,
3931,-1.035,-0.725,
3932,-1.035,-0.725,
3933,-1.05,-0.725,
3934,-1.04,-0.715,
3935,-1.02,-0.705,
3936,-0.995,-0.68,
3937,-0.995,-0.66,
3938,-0.99,-0.665,
3939,-0.98,-0.685,
3940,-0.98,-0.695,
3941,-0.99,-0.72,
3942,-1.0,-0.73,
3943,-1.015,-0.725,
3944,-1.03,-0.72,
3945,-1.045,-0.72,
3946,-1.045,-0.715,
3947,-1.055,-0.7,
3948,-1.05,-0.705,
3949,-1.04,-0.695,
3950,-1.02,-0.675,
3951,-1.025,-0.665,
3952,-1.03,-0.69,
3953,-1.045,-0.715,
3954,-1.045,-0.73,
3955,-1.045,-0.755,
3956,-1.045,-0.75,
3957,-1.065,-0.76,
3958,-1.095,-0.74,
3959,-1.085,-0.76,
3960,-1.09,-0.74,
3961,-1.065,-0.715,
3962,-1.055,-0.71,
3963,-1.055,-0.695,
3964,-1.08,-0.705,
3965,-1.06,-0.725,
3966,-1.065,-0.745,
3967,-1.085,-0.76,
3968,-1.1,-0.77,
3969,-1.11,-0.765,
3970,-1.11,-0.74,
3971,-1.11,-0.73,
3972,-1.095,-0.695,
3973,-1.09,-0.68,
3974,-1.085,-0.68,
3975,-1.09,-0.675,
3976,-1.085,-0.69,
3977,-1.085,-0.71,
3978,-1.1,-0.72,
3979,-1.12,-0.715,
3980,-1.125,-0.75,
3981,-1.135,-0.755,
3982,-1.13,-0.76,
3983,-1.115,-0.765,
3984,-1.095,-0.76,
3985,-1.095,-0.745,
3986,-1.085,-0.715,
3987,-1.08,-0.705,
3988,-1.095,-0.725,
3989,-1.105,-0.74,
3990,-1.115,-0.765,
3991,-1.14,-0.77,
3992,-1.145,-0.755,
3993,-1.13,-0.76,
3994,-1.135,-0.74,
3995,-1.135,-0.725,
3996,-1.135,-0.71,
3997,-1.115,-0.68,
3998,-1.085,-0.665,
3999,-1.075,-0.665,
4000,-1.045,-0.655,
4001,-1.035,-0.66,
4002,-1.03,-0.675,
4003,-1.025,-0.69,
4004,-1.01,-0.71,
4005,-1.015,-0.7,
4006,-1.02,-0.705,
4007,-0.995,-0.685,
4008,-1.0,-0.66,
4009,-0.98,-0.67,
4010,-0.97,-0.67,
4011,-0.98,-0.675,
4012,-0.985,-0.695,
4013,-0.985,-0.68,
4014,-0.97,-0.69,
4015,-0.975,-0.705,
4016,-0.935,-0.715,
4017,-0.93,-0.735,
4018,-0.93,-0.725,
4019,-0.91,-0.7,
4020,-0.91,-0.68,
4021,-0.92,-0.67,
4022,-0.905,-0.67,
4023,-0.915,-0.695,
4024,-0.94,-0.745,
4025,-0.95,-0.765,
4026,-0.975,-0.785,
4027,-0.99,-0.785,
4028,-1.01,-0.785,
4029,-1.03,-0.77,
4030,-1.07,-0.745,
4031,-1.095,-0.72,
4032,-1.12,-0.73,
4033,-1.12,-0.73,
4034,-1.12,-0.725,
4035,-1.14,-0.735,
4036,-1.145,-0.75,
4037,-1.175,-0.75,
4038,-1.185,-0.77,
4039,-1.195,-0.78,
4040,-1.19,-0.775,
4041,-1.2,-0.775,
4042,-1.185,-0.775,
4043,-1.17,-0.76,
4044,-1.165,-0.735,
4045,-1.16,-0.71,
4046,-1.14,-0.725,
4047,-1.13,-0.705,
4048,-1.14,-0.715,
4049,-1.14,-0.715,
4050,-1.17,-0.74,
4051,-1.175,-0.75,
4052,-1.175,-0.785,
4053,-1.19,-0.805,
4054,-1.16,-0.85,
4055,-1.09,-0.89,
4056,-0.965,-0.975,
4057,-0.775,-1.08,
4058,-0.525,-1.19,
4059,-0.18,-1.29,
4060,0.18,-1.385,
4061,0.6,-1.475,
4062,1.025,-1.54,
4063,1.455,-1.625,
4064,1.86,-1.66,
4065,2.165,-1.65,
4066,2.37,-1.625,
4067,2.475,-1.515,N
4068,2.46,-1.39,
4069,2.345,-1.26,
4070,2.09,-1.15,
4071,1.595,-1.05,
4072,0.955,-1.005,
4073,0.315,-0.975,
4074,-0.325,-0.96,
4075,-0.965,-0.91,
4076,-1.605,-0.885,
4077,-1.615,-0.815,
4078,-1.35,-0.8,
4079,-1.06,-0.75,
4080,-0.85,-0.74,
4081,-0.765,-0.745,
4082,-0.8,-0.74,
4083,-0.88,-0.765,
4084,-0.995,-0.79,
4085,-1.09,-0.79,
4086,-1.155,-0.795,
4087,-1.165,-0.78,
4088,-1.155,-0.74,
4089,-1.14,-0.73,
4090,-1.13,-0.71,
4091,-1.11,-0.715,
4092,-1.095,-0.7,
4093,-1.105,-0.72,
4094,-1.095,-0.725,
4095,-1.095,-0.72,
4096,-1.125,-0.745,
4097,-1.13,-0.75,
4098,-1.13,-0.735,
4099,-1.135,-0.72,
4100,-1.135,-0.72,
4101,-1.135,-0.745,
4102,-1.14,-0.735,
4103,-1.125,-0.73,
4104,-1.105,-0.715,
4105,-1.085,-0.7,
4106,-1.065,-0.68,
4107,-1.045,-0.69,
4108,-1.04,-0.675,
4109,-1.02,-0.705,
4110,-1.02,-0.73,
4111,-1.03,-0.735,
4112,-1.02,-0.735,
4113,-1.025,-0.735,
4114,-1.015,-0.735,
4115,-1.005,-0.72,
4116,-0.985,-0.69,
4117,-0.98,-0.665,
4118,-0.96,-0.635,
4119,-0.94,-0.645,
4120,-0.945,-0.655,
4121,-0.925,-0.66,
4122,-0.915,-0.685,
4123,-0.91,-0.69,
4124,-0.9,-0.69,
4125,-0.89,-0.685,
4126,-0.875,-0.675,
4127,-0.855,-0.66,
4128,-0.835,-0.655,
4129,-0.81,-0.64,
4130,-0.77,-0.64,
4131,-0.745,-0.63,
4132,-0.745,-0.62,
4133,-0.72,-0.64,
4134,-0.705,-0.64,
4135,-0.695,-0.645,
4136,-0.675,-0.635,
4137,-0.655,-0.64,
4138,-0.645,-0.635,
4139,-0.6,-0.605,
4140,-0.565,-0.605,
4141,-0.545,-0.585,
4142,-0.505,-0.575,
4143,-0.47,-0.57,
4144,-0.45,-0.57,
4145,-0.43,-0.57,
4146,-0.41,-0.575,
4147,-0.4,-0.595,
4148,-0.385,-0.585,
4149,-0.385,-0.585,
4150,-0.37,-0.58,
4151,-0.355,-0.565,
4152,-0.325,-0.56,
4153,-0.315,-0.59,
4154,-0.295,-0.57,
4155,-0.295,-0.6,
4156,-0.29,-0.61,
4157,-0.315,-0.625,
4158,-0.35,-0.635,
4159,-0.35,-0.635,
4160,-0.355,-0.625,
4161,-0.395,-0.62,
4162,-0.41,-0.61,
4163,-0.435,-0.605,
4164,-0.46,-0.625,
4165,-0.48,-0.64,
4166,-0.5,-0.665,
4167,-0.54,-0.67,
4168,-0.615,-0.695,
4169,-0.66,-0.73,
4170,-0.725,-0.745,
4171,-0.785,-0.745,
4172,-0.825,-0.755,
4173,-0.875,-0.755,
4174,-0.9,-0.75,
4175,-0.935,-0.735,
4176,-0.945,-0.73,
4177,-0.97,-0.735,
4178,-0.975,-0.735,
4179,-1.0,-0.75,
4180,-1.005,-0.765,
4181,-1.025,-0.785,
4182,-1.045,-0.775,
4183,-1.065,-0.79,
4184,-1.08,-0.78,
4185,-1.105,-0.79,
4186,-1.12,-0.78,
4187,-1.115,-0.77,
4188,-1.12,-0.76,
4189,-1.115,-0.75,
4190,-1.08,-0.73,
4191,-1.085,-0.75,
4192,-1.085,-0.775,
4193,-1.095,-0.785,
4194,-1.105,-0.785,
4195,-1.1,-0.805,
4196,-1.1,-0.815,
4197,-1.1,-0.8,
4198,-1.095,-0.795,
4199,-1.09,-0.785,
4200,-1.08,-0.765,
4201,-1.085,-0.74,
4202,-1.065,-0.73,
4203,-1.055,-0.725,
4204,-1.055,-0.755,
4205,-1.055,-0.755,
4206,-1.06,-0.775,
4207,-1.075,-0.79,
4208,-1.085,-0.8,
4209,-1.095,-0.795,
4210,-1.085,-0.795,
4211,-1.075,-0.78,
4212,-1.065,-0.755,
4213,-1.04,-0.765,
4214,-1.03,-0.74,
4215,-1.015,-0.745,
4216,-1.015,-0.75,
4217,-1.02,-0.76,
4218,-1.045,-0.765,
4219,-1.045,-0.785,
4220,-1.06,-0.79,
4221,-1.06,-0.805,
4222,-1.08,-0.795,
4223,-1.07,-0.78,
4224,-1.04,-0.76,
4225,-1.03,-0.745,
4226,-1.025,-0.72,
4227,-1.01,-0.72,
4228,-1.02,-0.735,
4229,-1.03,-0.755,
4230,-1.04,-0.77,
4231,-1.035,-0.775,
4232,-1.06,-0.79,
4233,-1.07,-0.78,
4234,-1.08,-0.77,
4235,-1.07,-0.77,
4236,-1.07,-0.76,
4237,-1.065,-0.76,
4238,-1.055,-0.745,
4239,-1.055,-0.75,
4240,-1.075,-0.76,
4241,-1.07,-0.785,
4242,-1.09,-0.785,
4243,-1.1,-0.81,
4244,-1.11,-0.815,
4245,-1.13,-0.815,
4246,-1.115,-0.825,
4247,-1.11,-0.795,
4248,-1.095,-0.775,
4249,-1.08,-0.76,
4250,-1.085,-0.76,
4251,-1.09,-0.755,
4252,-1.08,-0.76,
4253,-1.1,-0.78,
4254,-1.105,-0.795,
4255,-1.1,-0.8,
4256,-1.115,-0.805,
4257,-1.13,-0.79,
4258,-1.135,-0.78,
4259,-1.125,-0.76,
4260,-1.11,-0.745,
4261,-1.11,-0.745,
4262,-1.095,-0.75,
4263,-1.095,-0.765,
4264,-1.09,-0.755,
4265,-1.11,-0.765,
4266,-1.11,-0.775,
4267,-1.125,-0.795,
4268,-1.12,-0.8,
4269,-1.13,-0.78,
4270,-1.12,-0.78,
4271,-1.14,-0.745,
4272,-1.13,-0.74,
4273,-1.125,-0.735,
4274,-1.125,-0.73,
4275,-1.12,-0.74,
4276,-1.12,-0.74,
4277,-1.11,-0.745,
4278,-1.1,-0.76,
4279,-1.085,-0.755,
4280,-1.07,-0.765,
4281,-1.045,-0.755,
4282,-1.035,-0.735,
4283,-1.02,-0.72,
4284,-0.995,-0.71,
4285,-1.0,-0.705,
4286,-1.0,-0.69,
4287,-0.99,-0.705,
4288,-0.98,-0.71,
4289,-0.975,-0.715,
4290,-0.97,-0.71,
4291,-0.95,-0.735,
4292,-0.925,-0.74,
4293,-0.91,-0.745,
4294,-0.885,-0.765,
4295,-0.88,-0.755,
4296,-0.88,-0.755,
4297,-0.895,-0.715,
4298,-0.885,-0.74,
4299,-0.9,-0.725,
4300,-0.91,-0.725,
4301,-0.925,-0.76,
4302,-0.95,-0.775,
4303,-0.965,-0.775,
4304,-1.0,-0.8,
4305,-1.01,-0.785,
4306,-1.045,-0.79,
4307,-1.045,-0.785,
4308,-1.06,-0.77,
4309,-1.055,-0.77,
4310,-1.05,-0.76,
4311,-1.06,-0.775,
4312,-1.085,-0.775,
4313,-1.115,-0.79,
4314,-1.165,-0.81,
4315,-1.155,-0.815,
4316,-1.17,-0.815,
4317,-1.17,-0.79,
4318,-1.175,-0.795,
4319,-1.17,-0.78,
4320,-1.17,-0.77,
4321,-1.17,-0.755,
4322,-1.16,-0.755,
4323,-1.15,-0.76,
4324,-1.13,-0.755,
4325,-1.135,-0.76,
4326,-1.14,-0.735,
4327,-1.145,-0.74,
4328,-1.155,-0.76,
4329,-1.16,-0.79,
4330,-1.155,-0.8,
4331,-1.13,-0.825,
4332,-1.08,-0.87,
4333,-1.005,-0.925,
4334,-0.87,-0.985,
4335,-0.66,-1.07,
4336,-0.385,-1.16,
4337,-0.065,-1.255,
4338,0.305,-1.345,
4339,0.665,-1.42,
4340,1.04,-1.495,
4341,1.43,-1.56,
4342,1.76,-1.6,
4343,2.075,-1.56,
4344,2.305,-1.49,N
4345,2.41,-1.35,
4346,2.355,-1.215,
4347,2.105,-1.09,
4348,1.555,-1.0,
4349,0.915,-0.96,
4350,0.275,-0.93,
4351,-0.365,-0.935,
4352,-1.005,-0.91,
4353,-1.645,-0.86,
4354,-1.555,-0.805,
4355,-1.2,-0.765,
4356,-0.9,-0.745,
4357,-0.725,-0.72,
4358,-0.685,-0.72,
4359,-0.755,-0.73,
4360,-0.88,-0.72,
4361,-0.99,-0.725,
4362,-1.085,-0.74,
4363,-1.115,-0.745,
4364,-1.12,-0.735,
4365,-1.11,-0.725,
4366,-1.095,-0.715,
4367,-1.095,-0.7,
4368,-1.09,-0.7,
4369,-1.085,-0.685,
4370,-1.08,-0.68,
4371,-1.075,-0.68,
4372,-1.07,-0.68,
4373,-1.06,-0.68,
4374,-1.065,-0.695,
4375,-1.05,-0.695,
4376,-1.06,-0.695,
4377,-1.05,-0.7,
4378,-1.04,-0.7,
4379,-1.03,-0.695,
4380,-1.005,-0.67,
4381,-0.995,-0.67,
4382,-0.985,-0.66,
4383,-0.99,-0.65,
4384,-0.995,-0.685,
4385,-1.03,-0.665,
4386,-1.02,-0.67,
4387,-1.015,-0.675,
4388,-0.995,-0.685,
4389,-0.985,-0.685,
4390,-0.975,-0.7,
4391,-0.95,-0.67,
4392,-0.925,-0.665,
4393,-0.915,-0.65,
4394,-0.89,-0.64,
4395,-0.88,-0.645,
4396,-0.88,-0.66,
4397,-0.855,-0.66,
4398,-0.85,-0.68,
4399,-0.84,-0.665,
4400,-0.835,-0.665,
4401,-0.835,-0.645,
4402,-0.82,-0.61,
4403,-0.785,-0.615,
4404,-0.755,-0.605,
4405,-0.725,-0.595,
4406,-0.68,-0.575,
4407,-0.65,-0.59,
4408,-0.615,-0.59,
4409,-0.605,-0.595,
4410,-0.585,-0.615,
4411,-0.56,-0.615,
4412,-0.555,-0.62,
4413,-0.53,-0.61,
4414,-0.49,-0.595,
4415,-0.46,-0.575,
4416,-0.405,-0.555,
4417,-0.37,-0.54,
4418,-0.33,-0.525,
4419,-0.305,-0.54,
4420,-0.285,-0.56,
4421,-0.275,-0.585,
4422,-0.245,-0.575,
4423,-0.25,-0.57,
4424,-0.245,-0.555,
4425,-0.26,-0.55,
4426,-0.26,-0.54,
4427,-0.25,-0.53,
4428,-0.25,-0.54,
4429,-0.245,-0.535,
4430,-0.235,-0.535,
4431,-0.235,-0.53,
4432,-0.245,-0.545,
4433,-0.275,-0.585,
4434,-0.32,-0.61,
4435,-0.365,-0.63,
4436,-0.41,-0.655,
4437,-0.46,-0.68,
4438,-0.505,-0.67,
4439,-0.56,-0.67,
4440,-0.6,-0.665,
4441,-0.63,-0.67,
4442,-0.675,-0.665,
4443,-0.705,-0.67,
4444,-0.735,-0.69,
4445,-0.785,-0.7,
4446,-0.83,-0.715,
4447,-0.875,-0.735,
4448,-0.91,-0.745,
4449,-0.945,-0.725,
4450,-0.95,-0.715,
4451,-0.955,-0.695,
4452,-0.965,-0.705,
4453,-0.975,-0.695,
4454,-0.97,-0.695,
4455,-0.985,-0.71,
4456,-1.025,-0.72,
4457,-1.03,-0.735,
4458,-1.05,-0.75,
4459,-1.075,-0.77,
4460,-1.09,-0.76,
4461,-1.1,-0.76,
4462,-1.105,-0.745,
4463,-1.075,-0.735,
4464,-1.055,-0.735,
4465,-1.05,-0.735,
4466,-1.025,-0.74,
4467,-1.025,-0.725,
4468,-1.03,-0.735,
4469,-1.045,-0.745,
4470,-1.055,-0.735,
4471,-1.07,-0.74,
4472,-1.075,-0.74,
4473,-1.075,-0.755,
4474,-1.055,-0.73,
4475,-1.045,-0.74,
4476,-1.045,-0.73,
4477,-1.035,-0.72,
4478,-1.035,-0.745,
4479,-1.025,-0.735,
4480,-1.025,-0.725,
4481,-1.015,-0.75,
4482,-1.02,-0.765,
4483,-1.015,-0.73,
4484,-1.02,-0.74,
4485,-1.025,-0.73,
4486,-1.03,-0.73,
4487,-1.04,-0.705,
4488,-1.04,-0.715,
4489,-1.02,-0.7,
4490,-1.005,-0.7,
4491,-0.995,-0.73,
4492,-1.015,-0.72,
4493,-1.0,-0.74,
4494,-1.015,-0.735,
4495,-1.04,-0.735,
4496,-1.045,-0.745,
4497,-1.055,-0.75,
4498,-1.055,-0.745,
4499,-1.035,-0.74,
4500,-1.035,-0.715,
4501,-1.025,-0.705,
4502,-1.015,-0.68,
4503,-1.01,-0.68,
4504,-1.005,-0.685,
4505,-1.005,-0.71,
4506,-1.04,-0.73,
4507,-1.075,-0.75,
4508,-1.11,-0.755,
4509,-1.125,-0.76,
4510,-1.12,-0.75,
4511,-1.12,-0.73,
4512,-1.11,-0.705,
4513,-1.09,-0.68,
4514,-1.065,-0.675,
4515,-1.06,-0.69,
4516,-1.065,-0.74,
4517,-1.08,-0.74,
4518,-1.095,-0.74,
4519,-1.115,-0.765,
4520,-1.125,-0.76,
4521,-1.135,-0.76,
4522,-1.135,-0.74,
4523,-1.14,-0.71,
4524,-1.13,-0.715,
4525,-1.125,-0.715,
4526,-1.105,-0.705,
4527,-1.095,-0.695,
4528,-1.095,-0.7,
4529,-1.105,-0.705,
4530,-1.11,-0.72,
4531,-1.12,-0.725,
4532,-1.115,-0.735,
4533,-1.115,-0.745,
4534,-1.125,-0.735,
4535,-1.145,-0.72,
4536,-1.125,-0.72,
4537,-1.125,-0.715,
4538,-1.12,-0.715,
4539,-1.11,-0.71,
4540,-1.115,-0.72,
4541,-1.13,-0.735,
4542,-1.13,-0.735,
4543,-1.145,-0.72,
4544,-1.165,-0.715,
4545,-1.17,-0.7,
4546,-1.15,-0.7,
4547,-1.15,-0.68,
4548,-1.14,-0.67,
4549,-1.12,-0.66,
4550,-1.095,-0.64,
4551,-1.085,-0.66,
4552,-1.035,-0.66,
4553,-1.035,-0.66,
4554,-1.02,-0.655,
4555,-1.02,-0.685,
4556,-1.015,-0.66,
4557,-1.03,-0.67,
4558,-1.03,-0.65,
4559,-1.035,-0.645,
4560,-1.015,-0.64,
4561,-1.015,-0.63,
4562,-0.995,-0.635,
4563,-0.96,-0.65,
4564,-0.93,-0.675,
4565,-0.925,-0.69,
4566,-0.93,-0.72,
4567,-0.945,-0.705,
4568,-0.97,-0.71,
4569,-0.975,-0.71,
4570,-0.995,-0.7,
4571,-0.98,-0.685,
4572,-0.995,-0.685,
4573,-0.985,-0.68,
4574,-1.0,-0.685,
4575,-1.005,-0.67,
4576,-1.025,-0.665,
4577,-1.035,-0.69,
4578,-1.065,-0.71,
4579,-1.11,-0.735,
4580,-1.135,-0.75,
4581,-1.16,-0.77,
4582,-1.19,-0.785,
4583,-1.22,-0.765,
4584,-1.225,-0.725,
4585,-1.225,-0.71,
4586,-1.225,-0.695,
4587,-1.215,-0.685,
4588,-1.225,-0.71,
4589,-1.205,-0.725,
4590,-1.2,-0.73,
4591,-1.205,-0.74,
4592,-1.215,-0.74,
4593,-1.2,-0.745,
4594,-1.225,-0.725,
4595,-1.22,-0.705,
4596,-1.21,-0.685,
4597,-1.2,-0.67,
4598,-1.19,-0.66,
4599,-1.18,-0.68,
4600,-1.18,-0.71,
4601,-1.185,-0.765,
4602,-1.16,-0.825,
4603,-1.115,-0.88,
4604,-1.0,-0.95,
4605,-0.815,-1.03,
4606,-0.57,-1.115,
4607,-0.22,-1.185,
4608,0.14,-1.275,
4609,0.54,-1.325,
4610,0.925,-1.38,
4611,1.34,-1.445,
4612,1.705,-1.475,
4613,2.035,-1.49,
4614,2.235,-1.455,N
4615,2.325,-1.345,
4616,2.245,-1.225,
4617,2.01,-1.08,
4618,1.515,-0.97,
4619,0.875,-0.905,
4620,0.235,-0.865,
4621,-0.405,-0.84,
4622,-1.045,-0.805,
4623,-1.685,-0.77,
4624,-1.605,-0.74,
4625,-1.315,-0.71,
4626,-1.035,-0.695,
4627,-0.865,-0.685,
4628,-0.835,-0.67,
4629,-0.89,-0.69,
4630,-1.0,-0.695,
4631,-1.1,-0.69,
4632,-1.17,-0.675,
4633,-1.205,-0.665,
4634,-1.21,-0.66,
4635,-1.18,-0.65,
4636,-1.175,-0.64,
4637,-1.175,-0.64,
4638,-1.17,-0.645,
4639,-1.17,-0.66,
4640,-1.18,-0.655,
4641,-1.195,-0.67,
4642,-1.185,-0.675,
4643,-1.185,-0.655,
4644,-1.175,-0.655,
4645,-1.15,-0.655,
4646,-1.13,-0.635,
4647,-1.12,-0.635,
4648,-1.115,-0.62,
4649,-1.13,-0.63,
4650,-1.135,-0.625,
4651,-1.145,-0.635,
4652,-1.14,-0.64,
4653,-1.12,-0.635,
4654,-1.1,-0.65,
4655,-1.1,-0.655,
4656,-1.1,-0.65,
4657,-1.09,-0.615,
4658,-1.08,-0.61,
4659,-1.065,-0.61,
4660,-1.045,-0.59,
4661,-1.05,-0.615,
4662,-1.035,-0.605,
4663,-1.05,-0.615,
4664,-1.04,-0.63,
4665,-1.025,-0.635,
4666,-1.005,-0.64,
4667,-0.99,-0.635,
4668,-0.96,-0.615,
4669,-0.925,-0.575,
4670,-0.91,-0.54,
4671,-0.89,-0.53,
4672,-0.87,-0.535,
4673,-0.86,-0.54,
4674,-0.855,-0.575,
4675,-0.865,-0.585,
4676,-0.84,-0.6,
4677,-0.82,-0.605,
4678,-0.83,-0.595,
4679,-0.79,-0.58,
4680,-0.755,-0.58,
4681,-0.72,-0.56,
4682,-0.675,-0.535,
4683,-0.655,-0.535,
4684,-0.6,-0.52,
4685,-0.6,-0.535,
4686,-0.565,-0.535,
4687,-0.55,-0.535,
4688,-0.54,-0.535,
4689,-0.545,-0.55,
4690,-0.53,-0.535,
4691,-0.49,-0.525,
4692,-0.455,-0.505,
4693,-0.445,-0.5,
4694,-0.395,-0.485,
4695,-0.365,-0.48,
4696,-0.34,-0.47,
4697,-0.345,-0.495,
4698,-0.34,-0.505,
4699,-0.36,-0.53,
4700,-0.365,-0.535,
4701,-0.38,-0.53,
4702,-0.4,-0.535,
4703,-0.425,-0.53,
4704,-0.44,-0.505,
4705,-0.465,-0.5,
4706,-0.5,-0.495,
4707,-0.54,-0.515,
4708,-0.6,-0.525,
4709,-0.645,-0.545,
4710,-0.71,-0.585,
4711,-0.755,-0.62,
4712,-0.805,-0.625,
4713,-0.85,-0.645,
4714,-0.885,-0.65,
4715,-0.92,-0.635,
4716,-0.95,-0.62,
4717,-0.99,-0.615,
4718,-1.02,-0.62,
4719,-1.055,-0.615,
4720,-1.08,-0.625,
4721,-1.105,-0.64,
4722,-1.145,-0.66,
4723,-1.165,-0.685,
4724,-1.185,-0.69,
4725,-1.195,-0.685,
4726,-1.2,-0.69,
4727,-1.195,-0.665,
4728,-1.21,-0.65,
4729,-1.21,-0.64,
4730,-1.205,-0.635,
4731,-1.185,-0.64,
4732,-1.185,-0.665,
4733,-1.16,-0.675,
4734,-1.175,-0.695,
4735,-1.21,-0.68,
4736,-1.22,-0.68,
4737,-1.255,-0.67,
4738,-1.255,-0.665,
4739,-1.245,-0.66,
4740,-1.235,-0.635,
4741,-1.215,-0.615,
4742,-1.195,-0.62,
4743,-1.185,-0.63,
4744,-1.185,-0.625,
4745,-1.185,-0.655,
4746,-1.185,-0.65,
4747,-1.19,-0.69,
4748,-1.205,-0.695,
4749,-1.21,-0.7,
4750,-1.215,-0.69,
4751,-1.215,-0.67,
4752,-1.21,-0.645,
4753,-1.19,-0.645,
4754,-1.19,-0.64,
4755,-1.185,-0.63,
4756,-1.18,-0.645,
4757,-1.175,-0.665,
4758,-1.185,-0.66,
4759,-1.2,-0.675,
4760,-1.205,-0.67,
4761,-1.2,-0.675,
4762,-1.205,-0.65,
4763,-1.21,-0.65,
4764,-1.21,-0.65,
4765,-1.195,-0.63,
4766,-1.205,-0.625,
4767,-1.195,-0.635,
4768,-1.205,-0.625,
4769,-1.205,-0.64,
4770,-1.205,-0.64,
4771,-1.205,-0.655,
4772,-1.195,-0.665,
4773,-1.215,-0.68,
4774,-1.23,-0.675,
4775,-1.235,-0.675,
4776,-1.26,-0.68,
4777,-1.265,-0.68,
4778,-1.275,-0.665,
4779,-1.275,-0.64,
4780,-1.275,-0.65,
4781,-1.26,-0.665,
4782,-1.265,-0.66,
4783,-1.265,-0.67,
4784,-1.3,-0.68,
4785,-1.3,-0.685,
4786,-1.315,-0.695,
4787,-1.315,-0.69,
4788,-1.31,-0.675,
4789,-1.28,-0.655,
4790,-1.265,-0.645,
4791,-1.25,-0.645,
4792,-1.265,-0.65,
4793,-1.275,-0.67,
4794,-1.31,-0.69,
4795,-1.32,-0.71,
4796,-1.335,-0.695,
4797,-1.325,-0.69,
4798,-1.325,-0.68,
4799,-1.325,-0.67,
4800,-1.32,-0.66,
4801,-1.315,-0.645,
4802,-1.295,-0.655,
4803,-1.285,-0.655,
4804,-1.28,-0.66,
4805,-1.285,-0.67,
4806,-1.295,-0.67,
4807,-1.305,-0.67,
4808,-1.32,-0.675,
4809,-1.325,-0.69,
4810,-1.32,-0.685,
4811,-1.33,-0.675,
4812,-1.33,-0.66,
4813,-1.305,-0.665,
4814,-1.305,-0.65,
4815,-1.285,-0.63,
4816,-1.275,-0.64,
4817,-1.26,-0.645,
4818,-1.255,-0.65,
4819,-1.245,-0.655,
4820,-1.265,-0.665,
4821,-1.265,-0.645,
4822,-1.265,-0.62,
4823,-1.265,-0.6,
4824,-1.26,-0.59,
4825,-1.225,-0.58,
4826,-1.2,-0.605,
4827,-1.18,-0.605,
4828,-1.185,-0.64,
4829,-1.19,-0.645,
4830,-1.2,-0.635,
4831,-1.2,-0.66,
4832,-1.195,-0.635,
4833,-1.175,-0.655,
4834,-1.175,-0.66,
4835,-1.17,-0.665,
4836,-1.17,-0.655,
4837,-1.16,-0.645,
4838,-1.16,-0.63,
4839,-1.16,-0.645,
4840,-1.15,-0.655,
4841,-1.155,-0.665,
4842,-1.155,-0.65,
4843,-1.17,-0.665,
4844,-1.19,-0.67,
4845,-1.19,-0.665,
4846,-1.195,-0.69,
4847,-1.205,-0.68,
4848,-1.21,-0.685,
4849,-1.225,-0.695,
4850,-1.235,-0.67,
4851,-1.25,-0.66,
4852,-1.275,-0.665,
4853,-1.305,-0.69,
4854,-1.32,-0.695,
4855,-1.355,-0.73,
4856,-1.38,-0.73,
4857,-1.36,-0.725,
4858,-1.37,-0.73,
4859,-1.355,-0.69,
4860,-1.34,-0.655,
4861,-1.32,-0.65,
4862,-1.345,-0.64,
4863,-1.35,-0.65,
4864,-1.365,-0.66,
4865,-1.365,-0.675,
4866,-1.38,-0.69,
4867,-1.37,-0.685,
4868,-1.365,-0.67,
4869,-1.36,-0.65,
4870,-1.35,-0.645,
4871,-1.34,-0.64,
4872,-1.33,-0.655,
4873,-1.31,-0.65,
4874,-1.275,-0.69,
4875,-1.185,-0.76,
4876,-1.08,-0.825,
4877,-0.905,-0.905,
4878,-0.68,-1.01,
4879,-0.4,-1.085,
4880,-0.065,-1.185,
4881,0.29,-1.245,
4882,0.695,-1.295,
4883,1.125,-1.355,
4884,1.545,-1.38,
4885,1.885,-1.37,
4886,2.14,-1.3,N
4887,2.23,-1.22,
4888,2.165,-1.105,
4889,1.88,-1.0,
4890,1.34,-0.94,
4891,0.7,-0.925,
4892,0.06,-0.93,
4893,-0.58,-0.92,
4894,-1.22,-0.885,
4895,-1.86,-0.835,
4896,-1.86,-0.775,
4897,-1.62,-0.72,
4898,-1.365,-0.7,
4899,-1.15,-0.695,
4900,-1.05,-0.685,
4901,-1.035,-0.685,
4902,-1.085,-0.695,
4903,-1.135,-0.67,
4904,-1.19,-0.68,
4905,-1.245,-0.65,
4906,-1.27,-0.675,
4907,-1.275,-0.685,
4908,-1.27,-0.68,
4909,-1.26,-0.685,
4910,-1.25,-0.66,
4911,-1.22,-0.655,
4912,-1.225,-0.65,
4913,-1.23,-0.655,
4914,-1.245,-0.67,
4915,-1.26,-0.685,
4916,-1.265,-0.695,
4917,-1.25,-0.695,
4918,-1.245,-0.7,
4919,-1.235,-0.69,
4920,-1.215,-0.655,
4921,-1.21,-0.64,
4922,-1.17,-0.635,
4923,-1.145,-0.645,
4924,-1.125,-0.675,
4925,-1.135,-0.675,
4926,-1.155,-0.69,
4927,-1.155,-0.67,
4928,-1.17,-0.665,
4929,-1.165,-0.65,
4930,-1.15,-0.635,
4931,-1.135,-0.64,
4932,-1.12,-0.655,
4933,-1.105,-0.665,
4934,-1.09,-0.65,
4935,-1.095,-0.655,
4936,-1.09,-0.65,
4937,-1.09,-0.66,
4938,-1.065,-0.655,
4939,-1.065,-0.66,
4940,-1.055,-0.66,
4941,-1.05,-0.665,
4942,-1.06,-0.655,
4943,-1.04,-0.65,
4944,-1.02,-0.635,
4945,-0.97,-0.625,
4946,-0.955,-0.61,
4947,-0.91,-0.6,
4948,-0.885,-0.615,
4949,-0.89,-0.65,
4950,-0.86,-0.645,
4951,-0.875,-0.655,
4952,-0.87,-0.655,
4953,-0.845,-0.645,
4954,-0.83,-0.63,
4955,-0.79,-0.585,
4956,-0.735,-0.56,
4957,-0.68,-0.55,
4958,-0.625,-0.55,
4959,-0.6,-0.57,
4960,-0.58,-0.59,
4961,-0.57,-0.605,
4962,-0.565,-0.61,
4963,-0.58,-0.62,
4964,-0.57,-0.6,
4965,-0.55,-0.575,
4966,-0.525,-0.565,
4967,-0.5,-0.535,
4968,-0.48,-0.535,
4969,-0.46,-0.55,
4970,-0.455,-0.525,
4971,-0.43,-0.535,
4972,-0.44,-0.525,
4973,-0.405,-0.535,
4974,-0.395,-0.54,
4975,-0.395,-0.565,
4976,-0.4,-0.57,
4977,-0.42,-0.575,
4978,-0.45,-0.585,
4979,-0.48,-0.565,
4980,-0.48,-0.545,
4981,-0.495,-0.54,
4982,-0.51,-0.535,
4983,-0.535,-0.565,
4984,-0.58,-0.595,
4985,-0.605,-0.61,
4986,-0.66,-0.62,
4987,-0.71,-0.635,
4988,-0.735,-0.65,
4989,-0.78,-0.65,
4990,-0.815,-0.655,
4991,-0.85,-0.67,
4992,-0.875,-0.66,
4993,-0.89,-0.665,
4994,-0.9,-0.64,
4995,-0.93,-0.65,
4996,-0.97,-0.66,
4997,-1.02,-0.675,
4998,-1.055,-0.675,
4999,-1.095,-0.7,
5000,-1.125,-0.695,
5001,-1.14,-0.7,
5002,-1.16,-0.695,
5003,-1.155,-0.71,
5004,-1.15,-0.69,
5005,-1.14,-0.7,
5006,-1.13,-0.69,
5007,-1.105,-0.68,
5008,-1.1,-0.7,
5009,-1.1,-0.7,
5010,-1.105,-0.705,
5011,-1.115,-0.71,
5012,-1.135,-0.7,
5013,-1.15,-0.71,
5014,-1.135,-0.715,
5015,-1.13,-0.73,
5016,-1.125,-0.725,
5017,-1.115,-0.715,
5018,-1.095,-0.71,
5019,-1.085,-0.7,
5020,-1.075,-0.725,
5021,-1.075,-0.73,
5022,-1.06,-0.74,
5023,-1.065,-0.74,
5024,-1.08,-0.745,
5025,-1.08,-0.73,
5026,-1.095,-0.72,
5027,-1.09,-0.705,
5028,-1.085,-0.69,
5029,-1.085,-0.7,
5030,-1.09,-0.715,
5031,-1.085,-0.715,
5032,-1.07,-0.735,
5033,-1.07,-0.725,
5034,-1.055,-0.715,
5035,-1.05,-0.735,
5036,-1.06,-0.73,
5037,-1.05,-0.745,
5038,-1.055,-0.76,
5039,-1.065,-0.75,
5040,-1.06,-0.725,
5041,-1.055,-0.715,
5042,-1.05,-0.7,
5043,-1.04,-0.685,
5044,-1.04,-0.695,
5045,-1.045,-0.705,
5046,-1.06,-0.74,
5047,-1.075,-0.755,
5048,-1.095,-0.76,
5049,-1.1,-0.76,
5050,-1.125,-0.765,
5051,-1.12,-0.765,
5052,-1.1,-0.73,
5053,-1.08,-0.72,
5054,-1.055,-0.705,
5055,-1.04,-0.725,
5056,-1.055,-0.73,
5057,-1.08,-0.725,
5058,-1.125,-0.745,
5059,-1.16,-0.75,
5060,-1.165,-0.735,
5061,-1.16,-0.74,
5062,-1.15,-0.74,
5063,-1.12,-0.735,
5064,-1.105,-0.735,
5065,-1.125,-0.72,
5066,-1.13,-0.705,
5067,-1.125,-0.705,
5068,-1.11,-0.72,
5069,-1.135,-0.715,
5070,-1.12,-0.735,
5071,-1.125,-0.765,
5072,-1.12,-0.76,
5073,-1.125,-0.78,
5074,-1.14,-0.775,
5075,-1.155,-0.76,
5076,-1.18,-0.72,
5077,-1.2,-0.71,
5078,-1.195,-0.72,
5079,-1.185,-0.71,
5080,-1.175,-0.715,
5081,-1.175,-0.735,
5082,-1.165,-0.73,
5083,-1.165,-0.75,
5084,-1.155,-0.74,
5085,-1.14,-0.75,
5086,-1.135,-0.75,
5087,-1.125,-0.75,
5088,-1.11,-0.74,
5089,-1.125,-0.73,
5090,-1.14,-0.73,
5091,-1.13,-0.7,
5092,-1.135,-0.705,
5093,-1.11,-0.7,
5094,-1.13,-0.695,
5095,-1.11,-0.69,
5096,-1.1,-0.695,
5097,-1.11,-0.705,
5098,-1.105,-0.705,
5099,-1.105,-0.705,
5100,-1.075,-0.715,
5101,-1.055,-0.685,
5102,-1.035,-0.665,
5103,-1.0,-0.65,
5104,-1.015,-0.65,
5105,-1.02,-0.66,
5106,-1.025,-0.685,
5107,-1.045,-0.715,
5108,-1.045,-0.725,
5109,-1.04,-0.7,
5110,-1.05,-0.695,
5111,-1.025,-0.695,
5112,-0.99,-0.68,
5113,-0.965,-0.695,
5114,-0.93,-0.695,
5115,-0.9,-0.725,
5116,-0.905,-0.72,
5117,-0.915,-0.7,
5118,-0.92,-0.72,
5119,-0.925,-0.72,
5120,-0.945,-0.715,
5121,-0.96,-0.705,
5122,-0.995,-0.725,
5123,-1.015,-0.72,
5124,-1.03,-0.735,
5125,-1.025,-0.73,
5126,-1.045,-0.72,
5127,-1.035,-0.715,
5128,-1.04,-0.72,
5129,-1.085,-0.725,
5130,-1.115,-0.755,
5131,-1.16,-0.755,
5132,-1.195,-0.77,
5133,-1.22,-0.77,
5134,-1.24,-0.745,
5135,-1.225,-0.735,
5136,-1.205,-0.74,
5137,-1.19,-0.735,
5138,-1.16,-0.725,
5139,-1.135,-0.73,
5140,-1.13,-0.76,
5141,-1.125,-0.77,
5142,-1.15,-0.775,
5143,-1.155,-0.775,
5144,-1.175,-0.765,
5145,-1.195,-0.74,
5146,-1.19,-0.72,
5147,-1.18,-0.7,
5148,-1.175,-0.67,
5149,-1.17,-0.685,
5150,-1.175,-0.72,
5151,-1.135,-0.755,
5152,-1.1,-0.81,
5153,-1.03,-0.87,
5154,-0.92,-0.965,
5155,-0.755,-1.06,
5156,-0.52,-1.155,
5157,-0.205,-1.255,
5158,0.16,-1.355,
5159,0.575,-1.425,
5160,1.02,-1.495,
5161,1.45,-1.55,
5162,1.86,-1.54,
5163,2.195,-1.495,
5164,2.375,-1.4,N
5165,2.425,-1.265,
5166,2.29,-1.165,
5167,1.91,-1.05,
5168,1.28,-1.0,
5169,0.64,-0.955,
5170,0.0,-0.935,
5171,-0.64,-0.91,
5172,-1.28,-0.875,
5173,-1.825,-0.845,
5174,-1.6,-0.785,
5175,-1.24,-0.75,
5176,-0.94,-0.735,
5177,-0.77,-0.755,
5178,-0.735,-0.75,
5179,-0.82,-0.735,
5180,-0.955,-0.75,
5181,-1.06,-0.75,
5182,-1.145,-0.745,
5183,-1.15,-0.73,
5184,-1.15,-0.7,
5185,-1.14,-0.67,
5186,-1.125,-0.66,
5187,-1.11,-0.655,
5188,-1.115,-0.67,
5189,-1.1,-0.68,
5190,-1.105,-0.705,
5191,-1.115,-0.725,
5192,-1.125,-0.72,
5193,-1.105,-0.715,
5194,-1.11,-0.725,
5195,-1.135,-0.73,
5196,-1.13,-0.71,
5197,-1.125,-0.7,
5198,-1.105,-0.695,
5199,-1.095,-0.68,
5200,-1.07,-0.67,
5201,-1.05,-0.67,
5202,-1.065,-0.68,
5203,-1.035,-0.69,
5204,-1.04,-0.705,
5205,-1.05,-0.695,
5206,-1.06,-0.71,
5207,-1.05,-0.69,
5208,-1.04,-0.7,
5209,-1.025,-0.69,
5210,-1.015,-0.69,
5211,-0.985,-0.68,
5212,-0.985,-0.635,
5213,-0.985,-0.655,
5214,-0.975,-0.67,
5215,-0.965,-0.675,
5216,-0.985,-0.7,
5217,-0.97,-0.69,
5218,-0.945,-0.685,
5219,-0.945,-0.665,
5220,-0.93,-0.67,
5221,-0.915,-0.63,
5222,-0.895,-0.61,
5223,-0.86,-0.61,
5224,-0.845,-0.615,
5225,-0.815,-0.605,
5226,-0.81,-0.615,
5227,-0.805,-0.63,
5228,-0.79,-0.64,
5229,-0.78,-0.64,
5230,-0.765,-0.625,
5231,-0.74,-0.63,
5232,-0.72,-0.61,
5233,-0.66,-0.6,
5234,-0.64,-0.565,
5235,-0.6,-0.565,
5236,-0.55,-0.57,
5237,-0.52,-0.585,
5238,-0.49,-0.605,
5239,-0.475,-0.6,
5240,-0.46,-0.61,
5241,-0.44,-0.58,
5242,-0.45,-0.555,
5243,-0.44,-0.55,
5244,-0.425,-0.54,
5245,-0.385,-0.52,
5246,-0.35,-0.525,
5247,-0.305,-0.53,
5248,-0.28,-0.53,
5249,-0.27,-0.535,
5250,-0.26,-0.55,
5251,-0.265,-0.57,
5252,-0.265,-0.56,
5253,-0.27,-0.545,
5254,-0.29,-0.55,
5255,-0.29,-0.545,
5256,-0.33,-0.55,
5257,-0.335,-0.555,
5258,-0.38,-0.555,
5259,-0.395,-0.565,
5260,-0.425,-0.58,
5261,-0.475,-0.59,
5262,-0.5,-0.63,
5263,-0.55,-0.65,
5264,-0.59,-0.645,
5265,-0.635,-0.655,
5266,-0.7,-0.655,
5267,-0.74,-0.675,
5268,-0.77,-0.665,
5269,-0.8,-0.685,
5270,-0.84,-0.695,
5271,-0.865,-0.72,
5272,-0.9,-0.715,
5273,-0.93,-0.715,
5274,-0.97,-0.71,
5275,-0.99,-0.7,
5276,-1.03,-0.695,
5277,-1.055,-0.695,
5278,-1.075,-0.715,
5279,-1.08,-0.715,
5280,-1.085,-0.715,
5281,-1.085,-0.715,
5282,-1.08,-0.695,
5283,-1.08,-0.685,
5284,-1.085,-0.68,
5285,-1.115,-0.695,
5286,-1.125,-0.72,
5287,-1.13,-0.73,
5288,-1.11,-0.74,
5289,-1.105,-0.755,
5290,-1.12,-0.74,
5291,-1.11,-0.75,
5292,-1.12,-0.725,
5293,-1.11,-0.73,
5294,-1.135,-0.71,
5295,-1.11,-0.69,
5296,-1.11,-0.705,
5297,-1.085,-0.705,
5298,-1.1,-0.705,
5299,-1.1,-0.72,
5300,-1.105,-0.725,
5301,-1.105,-0.735,
5302,-1.115,-0.74,
5303,-1.125,-0.725,
5304,-1.11,-0.715,
5305,-1.1,-0.7,
5306,-1.095,-0.695,
5307,-1.07,-0.685,
5308,-1.08,-0.68,
5309,-1.07,-0.67,
5310,-1.065,-0.675,
5311,-1.08,-0.69,
5312,-1.105,-0.705,
5313,-1.1,-0.715,
5314,-1.125,-0.715,
5315,-1.135,-0.715,
5316,-1.12,-0.69,
5317,-1.1,-0.67,
5318,-1.095,-0.675,
5319,-1.075,-0.675,
5320,-1.065,-0.7,
5321,-1.07,-0.71,
5322,-1.065,-0.72,
5323,-1.09,-0.725,
5324,-1.12,-0.73,
5325,-1.125,-0.725,
5326,-1.15,-0.695,
5327,-1.15,-0.69,
5328,-1.15,-0.68,
5329,-1.145,-0.685,
5330,-1.135,-0.665,
5331,-1.12,-0.67,
5332,-1.115,-0.64,
5333,-1.115,-0.66,
5334,-1.115,-0.685,
5335,-1.13,-0.71,
5336,-1.135,-0.735,
5337,-1.15,-0.75,
5338,-1.18,-0.755,
5339,-1.19,-0.75,
5340,-1.18,-0.735,
5341,-1.155,-0.72,
5342,-1.145,-0.7,
5343,-1.135,-0.675,
5344,-1.155,-0.68,
5345,-1.175,-0.69,
5346,-1.175,-0.71,
5347,-1.175,-0.73,
5348,-1.185,-0.75,
5349,-1.2,-0.735,
5350,-1.2,-0.725,
5351,-1.205,-0.73,
5352,-1.215,-0.715,
5353,-1.21,-0.715,
5354,-1.19,-0.715,
5355,-1.18,-0.7,
5356,-1.155,-0.685,
5357,-1.155,-0.69,
5358,-1.155,-0.7,
5359,-1.155,-0.695,
5360,-1.19,-0.72,
5361,-1.21,-0.725,
5362,-1.23,-0.73,
5363,-1.22,-0.74,
5364,-1.21,-0.73,
5365,-1.195,-0.715,
5366,-1.18,-0.7,
5367,-1.18,-0.655,
5368,-1.165,-0.655,
5369,-1.18,-0.655,
5370,-1.175,-0.66,
5371,-1.15,-0.64,
5372,-1.125,-0.645,
5373,-1.12,-0.64,
5374,-1.13,-0.625,
5375,-1.135,-0.635,
5376,-1.135,-0.625,
5377,-1.105,-0.62,
5378,-1.1,-0.63,
5379,-1.075,-0.635,
5380,-1.08,-0.645,
5381,-1.07,-0.655,
5382,-1.08,-0.685,
5383,-1.09,-0.685,
5384,-1.095,-0.705,
5385,-1.06,-0.7,
5386,-1.04,-0.705,
5387,-1.05,-0.69,
5388,-1.025,-0.685,
5389,-1.01,-0.685,
5390,-1.025,-0.67,
5391,-1.025,-0.675,
5392,-1.04,-0.67,
5393,-1.055,-0.7,
5394,-1.085,-0.69,
5395,-1.085,-0.705,
5396,-1.1,-0.72,
5397,-1.11,-0.73,
5398,-1.125,-0.71,
5399,-1.135,-0.71,
5400,-1.135,-0.69,
5401,-1.13,-0.67,
5402,-1.145,-0.65,
5403,-1.15,-0.675,
5404,-1.17,-0.7,
5405,-1.2,-0.715,
5406,-1.22,-0.725,
5407,-1.25,-0.725,
5408,-1.275,-0.715,
5409,-1.28,-0.7,
5410,-1.285,-0.71,
5411,-1.28,-0.715,
5412,-1.27,-0.725,
5413,-1.265,-0.7,
5414,-1.25,-0.675,
5415,-1.235,-0.66,
5416,-1.225,-0.66,
5417,-1.22,-0.65,
5418,-1.225,-0.665,
5419,-1.215,-0.71,
5420,-1.22,-0.72,
5421,-1.23,-0.755,
5422,-1.22,-0.76,
5423,-1.17,-0.82,
5424,-1.11,-0.855,
5425,-0.995,-0.94,
5426,-0.82,-1.035,
5427,-0.56,-1.12,
5428,-0.21,-1.19,
5429,0.2,-1.27,
5430,0.68,-1.35,
5431,1.18,-1.43,
5432,1.65,-1.475,
5433,2.05,-1.485,
5434,2.29,-1.43,N
5435,2.38,-1.315,
5436,2.29,-1.175,
5437,1.955,-1.035,
5438,1.34,-0.945,
5439,0.7,-0.9,
5440,0.06,-0.9,
5441,-0.58,-0.88,
5442,-1.22,-0.85,
5443,-1.86,-0.815,
5444,-1.685,-0.75,
5445,-1.39,-0.71,
5446,-1.13,-0.695,
5447,-0.97,-0.66,
5448,-0.93,-0.66,
5449,-0.995,-0.665,
5450,-1.1,-0.655,
5451,-1.18,-0.635,
5452,-1.23,-0.64,
5453,-1.255,-0.645,
5454,-1.245,-0.64,
5455,-1.23,-0.675,
5456,-1.215,-0.68,
5457,-1.195,-0.685,
5458,-1.205,-0.695,
5459,-1.2,-0.655,
5460,-1.2,-0.64,
5461,-1.205,-0.625,
5462,-1.205,-0.62,
5463,-1.18,-0.63,
5464,-1.165,-0.65,
5465,-1.155,-0.655,
5466,-1.145,-0.65,
5467,-1.145,-0.66,
5468,-1.14,-0.655,
5469,-1.12,-0.65,
5470,-1.13,-0.65,
5471,-1.125,-0.62,
5472,-1.12,-0.615,
5473,-1.12,-0.615,
5474,-1.125,-0.61,
5475,-1.09,-0.59,
5476,-1.085,-0.615,
5477,-1.065,-0.6,
5478,-1.07,-0.595,
5479,-1.075,-0.61,
5480,-1.08,-0.615,
5481,-1.065,-0.63,
5482,-1.055,-0.64,
5483,-1.04,-0.62,
5484,-1.03,-0.6,
5485,-1.005,-0.58,
5486,-0.975,-0.56,
5487,-0.945,-0.57,
5488,-0.935,-0.565,
5489,-0.91,-0.57,
5490,-0.895,-0.55,
5491,-0.885,-0.57,
5492,-0.87,-0.56,
5493,-0.865,-0.555,
5494,-0.845,-0.53,
5495,-0.85,-0.52,
5496,-0.81,-0.525,
5497,-0.775,-0.53,
5498,-0.74,-0.535,
5499,-0.705,-0.515,
5500,-0.68,-0.515,
5501,-0.65,-0.52,
5502,-0.63,-0.51,
5503,-0.615,-0.505,
5504,-0.59,-0.49,
5505,-0.57,-0.49,
5506,-0.56,-0.485,
5507,-0.54,-0.48,
5508,-0.515,-0.46,
5509,-0.475,-0.465,
5510,-0.455,-0.445,
5511,-0.45,-0.445,
5512,-0.435,-0.455,
5513,-0.44,-0.475,
5514,-0.425,-0.495,
5515,-0.435,-0.515,
5516,-0.455,-0.525,
5517,-0.465,-0.53,
5518,-0.495,-0.5,
5519,-0.505,-0.5,
5520,-0.5,-0.485,
5521,-0.525,-0.495,
5522,-0.56,-0.47,
5523,-0.58,-0.46,
5524,-0.615,-0.5,
5525,-0.675,-0.505,
5526,-0.72,-0.56,
5527,-0.77,-0.59,
5528,-0.83,-0.61,
5529,-0.885,-0.63,
5530,-0.945,-0.645,
5531,-1.005,-0.63,
5532,-1.03,-0.62,
5533,-1.035,-0.61,
5534,-1.055,-0.595,
5535,-1.05,-0.59,
5536,-1.065,-0.59,
5537,-1.1,-0.595,
5538,-1.14,-0.625,
5539,-1.175,-0.64,
5540,-1.19,-0.64,
5541,-1.21,-0.655,
5542,-1.21,-0.645,
5543,-1.215,-0.65,
5544,-1.225,-0.64,
5545,-1.225,-0.615,
5546,-1.22,-0.615,
5547,-1.23,-0.59,
5548,-1.26,-0.59,
5549,-1.255,-0.595,
5550,-1.265,-0.61,
5551,-1.265,-0.625,
5552,-1.27,-0.65,
5553,-1.255,-0.66,
5554,-1.255,-0.66,
5555,-1.255,-0.66,
5556,-1.27,-0.645,
5557,-1.245,-0.63,
5558,-1.235,-0.615,
5559,-1.205,-0.595,
5560,-1.21,-0.605,
5561,-1.205,-0.615,
5562,-1.22,-0.635,
5563,-1.245,-0.645,
5564,-1.26,-0.675,
5565,-1.25,-0.665,
5566,-1.255,-0.68,
5567,-1.24,-0.655,
5568,-1.22,-0.65,
5569,-1.215,-0.615,
5570,-1.195,-0.605,
5571,-1.18,-0.61,
5572,-1.195,-0.615,
5573,-1.2,-0.615,
5574,-1.215,-0.645,
5575,-1.22,-0.63,
5576,-1.22,-0.64,
5577,-1.215,-0.615,
5578,-1.22,-0.61,
5579,-1.235,-0.605,
5580,-1.24,-0.61,
5581,-1.225,-0.615,
5582,-1.215,-0.63,
5583,-1.2,-0.63,
5584,-1.19,-0.625,
5585,-1.19,-0.64,
5586,-1.18,-0.635,
5587,-1.21,-0.62,
5588,-1.205,-0.635,
5589,-1.22,-0.645,
5590,-1.25,-0.645,
5591,-1.255,-0.665,
5592,-1.245,-0.635,
5593,-1.25,-0.64,
5594,-1.235,-0.63,
5595,-1.215,-0.63,
5596,-1.21,-0.63,
5597,-1.215,-0.64,
5598,-1.22,-0.66,
5599,-1.22,-0.66,
5600,-1.235,-0.67,
5601,-1.26,-0.67,
5602,-1.26,-0.65,
5603,-1.275,-0.645,
5604,-1.285,-0.61,
5605,-1.295,-0.61,
5606,-1.295,-0.595,
5607,-1.295,-0.63,
5608,-1.28,-0.655,
5609,-1.245,-0.67,
5610,-1.225,-0.67,
5611,-1.235,-0.675,
5612,-1.235,-0.68,
5613,-1.24,-0.685,
5614,-1.265,-0.67,
5615,-1.285,-0.665,
5616,-1.285,-0.635,
5617,-1.295,-0.6,
5618,-1.29,-0.585,
5619,-1.27,-0.6,
5620,-1.265,-0.62,
5621,-1.27,-0.65,
5622,-1.265,-0.66,
5623,-1.27,-0.66,
5624,-1.28,-0.67,
5625,-1.28,-0.66,
5626,-1.295,-0.66,
5627,-1.295,-0.665,
5628,-1.29,-0.66,
5629,-1.275,-0.66,
5630,-1.265,-0.64,
5631,-1.255,-0.63,
5632,-1.235,-0.635,
5633,-1.235,-0.615,
5634,-1.245,-0.65,
5635,-1.27,-0.66,
5636,-1.265,-0.675,
5637,-1.26,-0.665,
5638,-1.245,-0.65,
5639,-1.23,-0.625,
5640,-1.215,-0.6,
5641,-1.185,-0.59,
5642,-1.18,-0.575,
5643,-1.175,-0.58,
5644,-1.155,-0.565,
5645,-1.155,-0.56,
5646,-1.15,-0.6,
5647,-1.145,-0.62,
5648,-1.16,-0.625,
5649,-1.175,-0.63,
5650,-1.175,-0.65,
5651,-1.18,-0.665,
5652,-1.16,-0.64,
5653,-1.145,-0.65,
5654,-1.12,-0.655,
5655,-1.09,-0.665,
5656,-1.065,-0.655,
5657,-1.075,-0.675,
5658,-1.07,-0.65,
5659,-1.07,-0.67,
5660,-1.085,-0.655,
5661,-1.09,-0.645,
5662,-1.105,-0.65,
5663,-1.115,-0.665,
5664,-1.13,-0.645,
5665,-1.12,-0.655,
5666,-1.115,-0.655,
5667,-1.105,-0.635,
5668,-1.11,-0.655,
5669,-1.13,-0.65,
5670,-1.16,-0.68,
5671,-1.18,-0.675,
5672,-1.21,-0.71,
5673,-1.235,-0.705,
5674,-1.235,-0.685,
5675,-1.255,-0.69,
5676,-1.26,-0.67,
5677,-1.245,-0.68,
5678,-1.245,-0.69,
5679,-1.23,-0.675,
5680,-1.225,-0.69,
5681,-1.235,-0.685,
5682,-1.25,-0.69,
5683,-1.255,-0.69,
5684,-1.265,-0.695,
5685,-1.265,-0.71,
5686,-1.27,-0.695,
5687,-1.255,-0.705,
5688,-1.245,-0.68,
5689,-1.22,-0.655,
5690,-1.22,-0.625,
5691,-1.2,-0.63,
5692,-1.205,-0.655,
5693,-1.18,-0.69,
5694,-1.14,-0.75,
5695,-1.085,-0.81,
5696,-0.99,-0.89,
5697,-0.835,-0.965,
5698,-0.64,-1.04,
5699,-0.41,-1.105,
5700,-0.105,-1.17,
5701,0.225,-1.23,
5702,0.59,-1.285,
5703,1.025,-1.335,
5704,1.445,-1.375,
5705,1.81,-1.37,
5706,2.07,-1.305,N
5707,2.155,-1.185,
5708,2.025,-1.09,
5709,1.605,-1.005,
5710,0.965,-0.96,
5711,0.325,-0.93,
5712,-0.315,-0.895,
5713,-0.955,-0.845,
5714,-1.595,-0.795,
5715,-1.675,-0.73,
5716,-1.405,-0.705,
5717,-1.135,-0.695,
5718,-0.93,-0.7,
5719,-0.845,-0.7,
5720,-0.875,-0.715,
5721,-0.955,-0.715,
5722,-1.05,-0.725,
5723,-1.115,-0.695,
5724,-1.155,-0.675,
5725,-1.165,-0.665,
5726,-1.135,-0.645,
5727,-1.115,-0.63,
5728,-1.1,-0.63,
5729,-1.09,-0.645,
5730,-1.095,-0.66,
5731,-1.1,-0.665,
5732,-1.105,-0.68,
5733,-1.105,-0.66,
5734,-1.095,-0.65,
5735,-1.07,-0.645,
5736,-1.055,-0.63,
5737,-1.05,-0.64,
5738,-1.045,-0.64,
5739,-1.04,-0.63,
5740,-1.035,-0.635,
5741,-1.05,-0.65,
5742,-1.045,-0.64,
5743,-1.06,-0.66,
5744,-1.05,-0.66,
5745,-1.035,-0.66,
5746,-1.035,-0.67,
5747,-1.035,-0.655,
5748,-1.03,-0.645,
5749,-1.03,-0.635,
5750,-1.01,-0.62,
5751,-0.99,-0.615,
5752,-0.965,-0.61,
5753,-0.95,-0.615,
5754,-0.925,-0.63,
5755,-0.925,-0.665,
5756,-0.925,-0.67,
5757,-0.925,-0.675,
5758,-0.935,-0.695,
5759,-0.925,-0.66,
5760,-0.91,-0.655,
5761,-0.875,-0.62,
5762,-0.86,-0.61,
5763,-0.82,-0.585,
5764,-0.8,-0.565,
5765,-0.775,-0.57,
5766,-0.765,-0.565,
5767,-0.74,-0.585,
5768,-0.74,-0.58,
5769,-0.725,-0.61,
5770,-0.715,-0.605,
5771,-0.685,-0.595,
5772,-0.635,-0.585,
5773,-0.585,-0.565,
5774,-0.55,-0.545,
5775,-0.52,-0.515,
5776,-0.495,-0.51,
5777,-0.5,-0.53,
5778,-0.505,-0.54,
5779,-0.48,-0.525,
5780,-0.46,-0.535,
5781,-0.46,-0.51,
5782,-0.43,-0.525,
5783,-0.41,-0.525,
5784,-0.395,-0.495,
5785,-0.37,-0.48,
5786,-0.35,-0.5,
5787,-0.325,-0.475,
5788,-0.3,-0.49,
5789,-0.29,-0.525,
5790,-0.305,-0.54,
5791,-0.325,-0.535,
5792,-0.355,-0.535,
5793,-0.365,-0.52,
5794,-0.38,-0.52,
5795,-0.41,-0.535,
5796,-0.45,-0.53,
5797,-0.45,-0.56,
5798,-0.47,-0.57,
5799,-0.48,-0.58,
5800,-0.5,-0.59,
5801,-0.55,-0.605,
5802,-0.615,-0.635,
5803,-0.68,-0.66,
5804,-0.765,-0.69,
5805,-0.81,-0.71,
5806,-0.855,-0.715,
5807,-0.895,-0.71,
5808,-0.925,-0.695,
5809,-0.935,-0.705,
5810,-0.945,-0.695,
5811,-0.945,-0.695,
5812,-0.945,-0.68,
5813,-0.95,-0.695,
5814,-0.97,-0.705,
5815,-0.985,-0.72,
5816,-0.995,-0.72,
5817,-1.0,-0.715,
5818,-1.005,-0.715,
5819,-1.025,-0.705,
5820,-1.045,-0.685,
5821,-1.045,-0.7,
5822,-1.06,-0.7,
5823,-1.065,-0.7,
5824,-1.04,-0.69,
5825,-1.05,-0.7,
5826,-1.05,-0.7,
5827,-1.045,-0.705,
5828,-1.035,-0.73,
5829,-1.045,-0.745,
5830,-1.035,-0.77,
5831,-1.045,-0.785,
5832,-1.035,-0.755,
5833,-1.04,-0.72,
5834,-1.03,-0.685,
5835,-1.035,-0.65,
5836,-1.03,-0.66,
5837,-1.035,-0.695,
5838,-1.055,-0.72,
5839,-1.06,-0.745,
5840,-1.045,-0.77,
5841,-1.045,-0.775,
5842,-1.035,-0.745,
5843,-1.035,-0.71,
5844,-1.015,-0.685,
5845,-1.015,-0.655,
5846,-1.01,-0.67,
5847,-0.995,-0.68,
5848,-0.98,-0.72,
5849,-0.98,-0.74,
5850,-0.995,-0.725,
5851,-0.995,-0.745,
5852,-1.01,-0.75,
5853,-1.02,-0.755,
5854,-1.025,-0.76,
5855,-1.035,-0.765,
5856,-1.015,-0.76,
5857,-1.0,-0.73,
5858,-1.0,-0.705,
5859,-0.98,-0.665,
5860,-0.98,-0.66,
5861,-0.98,-0.675,
5862,-0.985,-0.695,
5863,-0.985,-0.72,
5864,-1.0,-0.735,
5865,-1.015,-0.735,
5866,-1.045,-0.73,
5867,-1.06,-0.74,
5868,-1.075,-0.73,
5869,-1.065,-0.725,
5870,-1.06,-0.73,
5871,-1.045,-0.72,
5872,-1.04,-0.72,
5873,-1.035,-0.73,
5874,-1.04,-0.735,
5875,-1.025,-0.735,
5876,-1.045,-0.745,
5877,-1.06,-0.755,
5878,-1.075,-0.765,
5879,-1.09,-0.765,
5880,-1.09,-0.755,
5881,-1.07,-0.73,
5882,-1.055,-0.725,
5883,-1.055,-0.72,
5884,-1.07,-0.71,
5885,-1.085,-0.72,
5886,-1.065,-0.73,
5887,-1.06,-0.755,
5888,-1.055,-0.775,
5889,-1.06,-0.77,
5890,-1.065,-0.77,
5891,-1.065,-0.765,
5892,-1.07,-0.74,
5893,-1.06,-0.73,
5894,-1.05,-0.725,
5895,-1.055,-0.725,
5896,-1.05,-0.74,
5897,-1.04,-0.73,
5898,-1.06,-0.735,
5899,-1.09,-0.76,
5900,-1.115,-0.755,
5901,-1.125,-0.755,
5902,-1.125,-0.755,
5903,-1.095,-0.75,
5904,-1.095,-0.74,
5905,-1.095,-0.74,
5906,-1.08,-0.725,
5907,-1.065,-0.725,
5908,-1.065,-0.735,
5909,-1.055,-0.745,
5910,-1.04,-0.72,
5911,-1.035,-0.71,
5912,-1.0,-0.73,
5913,-0.99,-0.705,
5914,-0.99,-0.685,
5915,-1.0,-0.685,
5916,-0.99,-0.68,
5917,-0.985,-0.66,
5918,-0.98,-0.67,
5919,-0.95,-0.655,
5920,-0.925,-0.665,
5921,-0.935,-0.68,
5922,-0.93,-0.69,
5923,-0.93,-0.73,
5924,-0.91,-0.735,
5925,-0.91,-0.75,
5926,-0.875,-0.755,
5927,-0.875,-0.74,
5928,-0.87,-0.745,
5929,-0.865,-0.73,
5930,-0.865,-0.735,
5931,-0.865,-0.725,
5932,-0.845,-0.71,
5933,-0.845,-0.715,
5934,-0.84,-0.72,
5935,-0.86,-0.735,
5936,-0.875,-0.74,
5937,-0.9,-0.755,
5938,-0.955,-0.74,
5939,-0.975,-0.735,
5940,-1.005,-0.735,
5941,-1.015,-0.72,
5942,-1.035,-0.715,
5943,-1.04,-0.72,
5944,-1.055,-0.73,
5945,-1.08,-0.73,
5946,-1.095,-0.735,
5947,-1.125,-0.755,
5948,-1.165,-0.775,
5949,-1.165,-0.76,
5950,-1.14,-0.775,
5951,-1.135,-0.77,
5952,-1.12,-0.745,
5953,-1.1,-0.725,
5954,-1.1,-0.715,
5955,-1.08,-0.695,
5956,-1.065,-0.695,
5957,-1.07,-0.71,
5958,-1.07,-0.72,
5959,-1.075,-0.74,
5960,-1.09,-0.75,
5961,-1.095,-0.76,
5962,-1.095,-0.78,
5963,-1.08,-0.805,
5964,-1.055,-0.82,
5965,-0.99,-0.88,
5966,-0.895,-0.94,
5967,-0.745,-1.025,
5968,-0.515,-1.115,
5969,-0.24,-1.195,
5970,0.1,-1.3,
5971,0.475,-1.395,
5972,0.895,-1.475,
5973,1.35,-1.53,
5974,1.775,-1.59,
5975,2.115,-1.58,
5976,2.375,-1.56,
5977,2.485,-1.48,N
5978,2.495,-1.37,
5979,2.39,-1.25,
5980,2.135,-1.145,
5981,1.66,-1.045,
5982,1.02,-0.98,
5983,0.38,-0.96,
5984,-0.26,-0.93,
5985,-0.9,-0.91,
5986,-1.54,-0.88,
5987,-1.56,-0.825,
5988,-1.25,-0.79,
5989,-0.94,-0.765,
5990,-0.76,-0.745,
5991,-0.7,-0.74,
5992,-0.74,-0.73,
5993,-0.87,-0.72,
5994,-0.99,-0.72,
5995,-1.07,-0.735,
5996,-1.115,-0.725,
5997,-1.13,-0.72,
5998,-1.11,-0.72,
5999,-1.1,-0.725,
6000,-1.075,-0.71,
6001,-1.06,-0.705,
6002,-1.055,-0.7,
6003,-1.05,-0.69,
6004,-1.045,-0.715,
6005,-1.05,-0.715,
6006,-1.045,-0.71,
6007,-1.045,-0.72,
6008,-1.045,-0.72,
6009,-1.06,-0.715,
6010,-1.05,-0.715,
6011,-1.055,-0.69,
6012,-1.035,-0.675,
6013,-1.01,-0.665,
6014,-1.0,-0.675,
6015,-0.98,-0.665,
6016,-0.96,-0.675,
6017,-0.965,-0.69,
6018,-0.975,-0.695,
6019,-1.0,-0.69,
6020,-1.0,-0.675,
6021,-1.0,-0.67,
6022,-0.975,-0.665,
6023,-0.995,-0.665,
6024,-0.97,-0.66,
6025,-0.955,-0.67,
6026,-0.94,-0.655,
6027,-0.92,-0.65,
6028,-0.875,-0.635,
6029,-0.87,-0.635,
6030,-0.87,-0.655,
6031,-0.88,-0.675,
6032,-0.89,-0.675,
6033,-0.88,-0.675,
6034,-0.875,-0.66,
6035,-0.87,-0.64,
6036,-0.84,-0.615,
6037,-0.835,-0.6,
6038,-0.78,-0.6,
6039,-0.735,-0.58,
6040,-0.695,-0.58,
6041,-0.67,-0.575,
6042,-0.64,-0.575,
6043,-0.63,-0.585,
6044,-0.62,-0.595,
6045,-0.615,-0.585,
6046,-0.595,-0.6,
6047,-0.565,-0.585,
6048,-0.545,-0.58,
6049,-0.5,-0.555,
6050,-0.455,-0.54,
6051,-0.415,-0.505,
6052,-0.37,-0.5,
6053,-0.34,-0.495,
6054,-0.335,-0.5,
6055,-0.33,-0.535,
6056,-0.325,-0.54,
6057,-0.33,-0.55,
6058,-0.345,-0.555,
6059,-0.335,-0.545,
6060,-0.34,-0.535,
6061,-0.325,-0.52,
6062,-0.3,-0.51,
6063,-0.29,-0.49,
6064,-0.265,-0.505,
6065,-0.285,-0.535,
6066,-0.295,-0.56,
6067,-0.325,-0.585,
6068,-0.35,-0.6,
6069,-0.375,-0.605,
6070,-0.415,-0.62,
6071,-0.445,-0.62,
6072,-0.505,-0.63,
6073,-0.555,-0.62,
6074,-0.585,-0.64,
6075,-0.635,-0.65,
6076,-0.665,-0.665,
6077,-0.72,-0.665,
6078,-0.8,-0.69,
6079,-0.83,-0.695,
6080,-0.885,-0.705,
6081,-0.91,-0.715,
6082,-0.935,-0.72,
6083,-0.975,-0.74,
6084,-0.965,-0.74,
6085,-0.98,-0.745,
6086,-0.985,-0.725,
6087,-0.995,-0.72,
6088,-1.015,-0.73,
6089,-1.02,-0.725,
6090,-1.025,-0.71,
6091,-1.035,-0.715,
6092,-1.03,-0.74,
6093,-1.045,-0.74,
6094,-1.065,-0.765,
6095,-1.065,-0.745,
6096,-1.065,-0.745,
6097,-1.06,-0.725,
6098,-1.065,-0.705,
6099,-1.055,-0.685,
6100,-1.055,-0.705,
6101,-1.06,-0.735,
6102,-1.065,-0.75,
6103,-1.06,-0.775,
6104,-1.05,-0.755,
6105,-1.045,-0.765,
6106,-1.045,-0.74,
6107,-1.035,-0.715,
6108,-1.035,-0.705,
6109,-1.035,-0.71,
6110,-1.04,-0.705,
6111,-1.04,-0.71,
6112,-1.035,-0.725,
6113,-1.04,-0.74,
6114,-1.045,-0.755,
6115,-1.045,-0.755,
6116,-1.045,-0.755,
6117,-1.055,-0.745,
6118,-1.06,-0.74,
6119,-1.065,-0.75,
6120,-1.07,-0.74,
6121,-1.06,-0.735,
6122,-1.045,-0.72,
6123,-1.04,-0.685,
6124,-1.015,-0.67,
6125,-1.01,-0.705,
6126,-1.01,-0.715,
6127,-1.015,-0.735,
6128,-1.005,-0.735,
6129,-1.025,-0.75,
6130,-1.03,-0.75,
6131,-1.05,-0.755,
6132,-1.065,-0.74,
6133,-1.065,-0.735,
6134,-1.045,-0.725,
6135,-1.045,-0.725,
6136,-1.045,-0.72,
6137,-1.04,-0.72,
6138,-1.05,-0.735,
6139,-1.05,-0.75,
6140,-1.06,-0.735,
6141,-1.06,-0.74,
6142,-1.07,-0.725,
6143,-1.07,-0.725,
6144,-1.075,-0.725,
6145,-1.07,-0.73,
6146,-1.095,-0.715,
6147,-1.075,-0.71,
6148,-1.075,-0.725,
6149,-1.06,-0.735,
6150,-1.055,-0.75,
6151,-1.07,-0.755,
6152,-1.075,-0.745,
6153,-1.09,-0.745,
6154,-1.1,-0.745,
6155,-1.13,-0.76,
6156,-1.13,-0.75,
6157,-1.105,-0.75,
6158,-1.095,-0.75,
6159,-1.09,-0.73,
6160,-1.07,-0.745,
6161,-1.08,-0.73,
6162,-1.085,-0.76,
6163,-1.105,-0.745,
6164,-1.12,-0.745,
6165,-1.135,-0.735,
6166,-1.135,-0.74,
6167,-1.135,-0.75,
6168,-1.125,-0.77,
6169,-1.11,-0.745,
6170,-1.105,-0.755,
6171,-1.11,-0.76,
6172,-1.11,-0.755,
6173,-1.12,-0.745,
6174,-1.145,-0.73,
6175,-1.14,-0.74,
6176,-1.145,-0.745,
6177,-1.145,-0.725,
6178,-1.135,-0.725,
6179,-1.15,-0.73,
6180,-1.145,-0.74,
6181,-1.13,-0.735,
6182,-1.12,-0.71,
6183,-1.105,-0.705,
6184,-1.085,-0.68,
6185,-1.075,-0.695,
6186,-1.08,-0.69,
6187,-1.08,-0.72,
6188,-1.08,-0.735,
6189,-1.07,-0.73,
6190,-1.06,-0.72,
6191,-1.055,-0.71,
6192,-1.04,-0.69,
6193,-1.03,-0.685,
6194,-1.03,-0.68,
6195,-1.015,-0.69,
6196,-1.02,-0.685,
6197,-1.015,-0.665,
6198,-1.005,-0.695,
6199,-0.985,-0.7,
6200,-0.98,-0.7,
6201,-0.965,-0.715,
6202,-0.945,-0.735,
6203,-0.935,-0.755,
6204,-0.92,-0.765,
6205,-0.915,-0.73,
6206,-0.905,-0.725,
6207,-0.89,-0.68,
6208,-0.895,-0.665,
6209,-0.905,-0.64,
6210,-0.925,-0.65,
6211,-0.95,-0.67,
6212,-0.975,-0.685,
6213,-0.995,-0.71,
6214,-0.995,-0.72,
6215,-1.01,-0.74,
6216,-1.015,-0.735,
6217,-1.03,-0.74,
6218,-1.045,-0.74,
6219,-1.085,-0.75,
6220,-1.09,-0.75,
6221,-1.115,-0.755,
6222,-1.13,-0.765,
6223,-1.155,-0.775,
6224,-1.17,-0.765,
6225,-1.185,-0.75,
6226,-1.195,-0.72,
6227,-1.205,-0.725,
6228,-1.19,-0.725,
6229,-1.18,-0.74,
6230,-1.18,-0.73,
6231,-1.165,-0.745,
6232,-1.155,-0.73,
6233,-1.145,-0.73,
6234,-1.145,-0.71,
6235,-1.135,-0.725,
6236,-1.135,-0.715,
6237,-1.15,-0.7,
6238,-1.14,-0.705,
6239,-1.15,-0.72,
6240,-1.16,-0.735,
6241,-1.145,-0.795,
6242,-1.105,-0.84,
6243,-1.03,-0.905,
6244,-0.89,-1.0,
6245,-0.7,-1.075,
6246,-0.44,-1.17,
6247,-0.11,-1.25,
6248,0.26,-1.325,
6249,0.685,-1.405,
6250,1.105,-1.485,
6251,1.515,-1.55,
6252,1.89,-1.57,
6253,2.18,-1.57,
6254,2.365,-1.505,N
6255,2.435,-1.395,
6256,2.385,-1.265,
6257,2.21,-1.125,
6258,1.815,-1.04,
6259,1.175,-0.97,
6260,0.535,-0.925,
6261,-0.105,-0.925,
6262,-0.745,-0.885,
6263,-1.385,-0.85,
6264,-1.655,-0.795,
6265,-1.42,-0.74,
6266,-1.115,-0.695,
6267,-0.875,-0.675,
6268,-0.755,-0.68,
6269,-0.765,-0.68,
6270,-0.84,-0.705,
6271,-0.97,-0.715,
6272,-1.085,-0.725,
6273,-1.155,-0.745,
6274,-1.18,-0.73,
6275,-1.175,-0.72,
6276,-1.155,-0.705,
6277,-1.115,-0.685,
6278,-1.09,-0.665,
6279,-1.085,-0.66,
6280,-1.075,-0.655,
6281,-1.08,-0.665,
6282,-1.085,-0.675,
6283,-1.115,-0.685,
6284,-1.12,-0.695,
6285,-1.145,-0.685,
6286,-1.145,-0.685,
6287,-1.12,-0.68,
6288,-1.1,-0.665,
6289,-1.075,-0.665,
6290,-1.055,-0.67,
6291,-1.035,-0.66,
6292,-1.035,-0.655,
6293,-1.035,-0.69,
6294,-1.03,-0.695,
6295,-1.02,-0.695,
6296,-1.02,-0.695,
6297,-1.01,-0.68,
6298,-1.015,-0.665,
6299,-1.02,-0.66,
6300,-1.03,-0.65,
6301,-1.015,-0.64,
6302,-0.995,-0.625,
6303,-0.995,-0.62,
6304,-0.975,-0.61,
6305,-0.965,-0.625,
6306,-0.955,-0.64,
6307,-0.935,-0.635,
6308,-0.925,-0.64,
6309,-0.91,-0.645,
6310,-0.905,-0.64,
6311,-0.91,-0.645,
6312,-0.905,-0.615,
6313,-0.89,-0.6,
6314,-0.86,-0.6,
6315,-0.81,-0.575,
6316,-0.765,-0.595,
6317,-0.745,-0.61,
6318,-0.72,-0.63,
6319,-0.705,-0.61,
6320,-0.7,-0.605,
6321,-0.69,-0.605,
6322,-0.68,-0.6,
6323,-0.665,-0.585,
6324,-0.645,-0.565,
6325,-0.585,-0.555,
6326,-0.55,-0.54,
6327,-0.525,-0.535,
6328,-0.5,-0.505,
6329,-0.46,-0.52,
6330,-0.435,-0.53,
6331,-0.43,-0.545,
6332,-0.4,-0.56,
6333,-0.37,-0.56,
6334,-0.355,-0.55,
6335,-0.335,-0.575,
6336,-0.315,-0.555,
6337,-0.305,-0.525,
6338,-0.285,-0.515,
6339,-0.285,-0.515,
6340,-0.27,-0.51,
6341,-0.27,-0.53,
6342,-0.28,-0.555,
6343,-0.295,-0.545,
6344,-0.315,-0.57,
6345,-0.335,-0.575,
6346,-0.345,-0.58,
6347,-0.37,-0.57,
6348,-0.385,-0.565,
6349,-0.4,-0.57,
6350,-0.42,-0.575,
6351,-0.455,-0.585,
6352,-0.495,-0.605,
6353,-0.56,-0.615,
6354,-0.62,-0.61,
6355,-0.66,-0.635,
6356,-0.71,-0.655,
6357,-0.765,-0.67,
6358,-0.82,-0.68,
6359,-0.88,-0.725,
6360,-0.925,-0.715,
6361,-0.94,-0.71,
6362,-0.96,-0.685,
6363,-0.965,-0.67,
6364,-0.98,-0.665,
6365,-0.995,-0.67,
6366,-1.02,-0.68,
6367,-1.045,-0.71,
6368,-1.07,-0.72,
6369,-1.09,-0.73,
6370,-1.1,-0.73,
6371,-1.105,-0.715,
6372,-1.115,-0.695,
6373,-1.095,-0.695,
6374,-1.1,-0.7,
6375,-1.085,-0.685,
6376,-1.09,-0.7,
6377,-1.11,-0.72,
6378,-1.105,-0.715,
6379,-1.12,-0.725,
6380,-1.105,-0.7,
6381,-1.09,-0.73,
6382,-1.11,-0.72,
6383,-1.125,-0.73,
6384,-1.14,-0.715,
6385,-1.16,-0.715,
6386,-1.145,-0.7,
6387,-1.13,-0.68,
6388,-1.11,-0.685,
6389,-1.095,-0.69,
6390,-1.06,-0.69,
6391,-1.065,-0.73,
6392,-1.07,-0.74,
6393,-1.07,-0.75,
6394,-1.085,-0.74,
6395,-1.095,-0.735,
6396,-1.1,-0.695,
6397,-1.1,-0.675,
6398,-1.09,-0.675,
6399,-1.085,-0.64,
6400,-1.055,-0.665,
6401,-1.045,-0.68,
6402,-1.04,-0.685,
6403,-1.05,-0.685,
6404,-1.07,-0.7,
6405,-1.09,-0.725,
6406,-1.105,-0.715,
6407,-1.11,-0.71,
6408,-1.12,-0.7,
6409,-1.115,-0.685,
6410,-1.1,-0.66,
6411,-1.105,-0.64,
6412,-1.095,-0.65,
6413,-1.095,-0.665,
6414,-1.095,-0.67,
6415,-1.085,-0.71,
6416,-1.085,-0.71,
6417,-1.09,-0.735,
6418,-1.11,-0.73,
6419,-1.14,-0.715,
6420,-1.14,-0.72,
6421,-1.15,-0.695,
6422,-1.14,-0.695,
6423,-1.14,-0.69,
