,MLII,V1,symbol
0,-0.835,-0.515,
1,-0.835,-0.515,
2,-0.835,-0.515,
3,-0.835,-0.515,
4,-0.835,-0.515,
5,-0.835,-0.515,
6,-0.835,-0.515,
7,-0.815,-0.515,
8,-0.815,-0.485,
9,-0.83,-0.5,
10,-0.84,-0.515,
11,-0.85,-0.55,
12,-0.875,-0.59,
13,-0.885,-0.635,+
14,-0.92,-0.65,
15,-0.97,-0.665,
16,-1.01,-0.64,
17,-1.04,-0.625,
18,-1.065,-0.615,
19,-1.095,-0.615,
20,-1.085,-0.615,
21,-1.065,-0.65,
22,-1.07,-0.675,
23,-1.06,-0.68,
24,-1.05,-0.69,
25,-1.06,-0.705,
26,-1.06,-0.685,
27,-1.065,-0.685,
28,-1.065,-0.675,
29,-1.065,-0.64,
30,-1.08,-0.64,
31,-1.08,-0.645,
32,-1.115,-0.63,
33,-1.115,-0.63,
34,-1.095,-0.64,
35,-1.07,-0.64,
36,-1.055,-0.665,
37,-1.055,-0.675,
38,-1.075,-0.69,
39,-1.1,-0.68,
40,-1.1,-0.69,
41,-1.115,-0.68,
42,-1.11,-0.685,
43,-1.11,-0.695,
44,-1.105,-0.7,
45,-1.105,-0.705,
46,-1.11,-0.695,
47,-1.1,-0.68,
48,-1.105,-0.685,
49,-1.09,-0.65,
50,-1.09,-0.655,
51,-1.08,-0.66,
52,-1.065,-0.7,
53,-1.08,-0.72,
54,-1.05,-0.765,
55,-1.035,-0.845,
56,-0.995,-0.93,
57,-0.9,-1.035,
58,-0.755,-1.175,
59,-0.57,-1.33,
60,-0.395,-1.485,
61,-0.275,-1.61,
62,-0.235,-1.67,
63,-0.24,-1.61,
64,-0.23,-1.5,
65,-0.2,-1.325,
66,-0.13,-1.175,
67,-0.015,-1.04,
68,0.11,-0.91,R
69,0.225,-0.755,
70,0.245,-0.51,
71,0.155,-0.195,
72,-0.14,0.11,
73,-0.575,0.34,
74,-1.08,0.405,
75,-1.5,0.3,
76,-1.79,0.07,
77,-1.92,-0.21,
78,-1.98,-0.445,
79,-2.01,-0.61,
80,-2.05,-0.695,
81,-2.12,-0.74,
82,-2.17,-0.775,
83,-2.17,-0.8,
84,-2.14,-0.855,
85,-2.075,-0.925,
86,-2.06,-0.985,
87,-2.045,-1.005,
88,-2.025,-1.01,
89,-1.985,-0.97,
90,-1.95,-0.95,
91,-1.9,-0.965,
92,-1.8,-0.95,
93,-1.685,-0.96,
94,-1.57,-0.93,
95,-1.445,-0.92,
96,-1.335,-0.875,
97,-1.23,-0.84,
98,-1.175,-0.76,
99,-1.14,-0.7,
100,-1.15,-0.645,
101,-1.17,-0.6,
102,-1.17,-0.565,
103,-1.14,-0.565,
104,-1.095,-0.585,
105,-1.06,-0.605,
106,-1.1,-0.62,
107,-1.18,-0.61,
108,-1.23,-0.595,
109,-1.21,-0.585,
110,-1.095,-0.6,
111,-0.985,-0.635,
112,-0.96,-0.67,
113,-0.995,-0.71,
114,-1.035,-0.705,
115,-1.07,-0.72,
116,-1.08,-0.705,
117,-1.04,-0.72,
118,-1.015,-0.755,
119,-0.995,-0.775,
120,-1.01,-0.785,
121,-1.045,-0.8,
122,-1.085,-0.785,
123,-1.115,-0.77,
124,-1.105,-0.775,
125,-1.105,-0.785,
126,-1.125,-0.83,
127,-1.14,-0.885,
128,-1.175,-0.935,
129,-1.185,-0.97,
130,-1.175,-0.995,
131,-1.185,-0.99,
132,-1.205,-0.99,
133,-1.2,-0.975,
134,-1.205,-0.965,
135,-1.2,-0.96,
136,-1.165,-0.96,
137,-1.13,-0.97,
138,-1.135,-0.985,
139,-1.15,-1.0,
140,-1.21,-1.05,
141,-1.225,-1.04,
142,-1.205,-1.06,
143,-1.215,-1.055,
144,-1.23,-1.045,
145,-1.265,-1.065,
146,-1.26,-1.055,
147,-1.21,-1.05,
148,-1.15,-1.055,
149,-1.15,-1.08,
150,-1.175,-1.125,
151,-1.205,-1.145,
152,-1.25,-1.165,
153,-1.32,-1.16,
154,-1.395,-1.15,
155,-1.47,-1.14,
156,-1.495,-1.15,
157,-1.485,-1.16,
158,-1.43,-1.12,
159,-1.375,-1.095,
160,-1.335,-1.075,
161,-1.275,-1.03,
162,-1.21,-0.985,
163,-1.155,-0.975,
164,-1.16,-0.965,
165,-1.215,-0.96,
166,-1.27,-0.975,
167,-1.3,-0.975,
168,-1.29,-0.98,
169,-1.26,-0.98,
170,-1.215,-0.975,
171,-1.17,-0.965,
172,-1.135,-0.955,
173,-1.09,-0.935,
174,-1.065,-0.93,
175,-1.04,-0.925,
176,-1.035,-0.93,
177,-1.025,-0.925,
178,-1.055,-0.9,
179,-1.07,-0.885,
180,-1.07,-0.86,
181,-1.04,-0.845,
182,-0.99,-0.825,
183,-0.96,-0.81,
184,-0.92,-0.82,
185,-0.885,-0.83,
186,-0.875,-0.83,
187,-0.89,-0.83,
188,-0.89,-0.83,
189,-0.915,-0.82,
190,-0.965,-0.79,
191,-1.005,-0.765,
192,-1.035,-0.725,
193,-1.04,-0.72,
194,-0.975,-0.7,
195,-0.905,-0.69,
196,-0.885,-0.69,
197,-0.85,-0.7,
198,-0.855,-0.7,
199,-0.905,-0.705,
200,-0.92,-0.705,
201,-0.955,-0.695,
202,-0.98,-0.68,
203,-0.955,-0.67,
204,-0.94,-0.67,
205,-0.935,-0.66,
206,-0.95,-0.655,
207,-0.96,-0.635,
208,-0.92,-0.635,
209,-0.915,-0.625,
210,-0.9,-0.665,
211,-0.93,-0.675,
212,-0.945,-0.675,
213,-0.945,-0.66,
214,-0.925,-0.665,
215,-0.915,-0.65,
216,-0.97,-0.665,
217,-1.035,-0.695,
218,-1.06,-0.685,
219,-1.05,-0.68,
220,-1.005,-0.695,
221,-0.94,-0.7,
222,-0.925,-0.685,
223,-0.92,-0.68,
224,-0.925,-0.67,
225,-0.93,-0.67,
226,-0.925,-0.66,
227,-0.93,-0.67,
228,-0.935,-0.675,
229,-0.925,-0.685,
230,-0.94,-0.675,
231,-0.985,-0.64,
232,-1.04,-0.615,
233,-1.075,-0.615,
234,-1.04,-0.61,
235,-0.975,-0.645,
236,-0.935,-0.68,
237,-0.905,-0.745,
238,-0.9,-0.75,
239,-0.96,-0.765,
240,-1.02,-0.745,
241,-1.07,-0.71,
242,-1.06,-0.68,
243,-1.02,-0.675,
244,-0.955,-0.66,
245,-0.89,-0.69,
246,-0.85,-0.71,
247,-0.87,-0.73,
248,-0.915,-0.73,
249,-0.975,-0.73,
250,-1.04,-0.705,
251,-1.045,-0.685,
252,-1.025,-0.68,
253,-0.975,-0.67,
254,-0.935,-0.705,
255,-0.905,-0.72,
256,-0.925,-0.72,
257,-0.94,-0.73,
258,-0.95,-0.705,
259,-0.955,-0.705,
260,-0.98,-0.69,
261,-0.975,-0.695,
262,-0.975,-0.72,
263,-0.985,-0.74,
264,-0.99,-0.74,
265,-0.965,-0.755,
266,-0.95,-0.76,
267,-0.93,-0.73,
268,-0.89,-0.72,
269,-0.865,-0.705,
270,-0.88,-0.73,
271,-0.875,-0.75,
272,-0.925,-0.745,
273,-0.96,-0.735,
274,-0.97,-0.725,
275,-0.98,-0.73,
276,-0.94,-0.735,
277,-0.9,-0.745,
278,-0.91,-0.745,
279,-0.92,-0.75,
280,-0.945,-0.745,
281,-0.915,-0.735,
282,-0.86,-0.735,
283,-0.82,-0.735,
284,-0.835,-0.735,
285,-0.87,-0.755,
286,-0.875,-0.76,
287,-0.855,-0.75,
288,-0.82,-0.75,
289,-0.76,-0.785,
290,-0.73,-0.825,
291,-0.7,-0.865,
292,-0.69,-0.865,
293,-0.7,-0.865,
294,-0.745,-0.8,
295,-0.78,-0.74,
296,-0.83,-0.695,
297,-0.83,-0.69,
298,-0.835,-0.685,
299,-0.82,-0.715,
300,-0.815,-0.77,
301,-0.84,-0.81,
302,-0.85,-0.82,
303,-0.875,-0.76,
304,-0.8,-0.695,
305,-0.725,-0.625,
306,-0.675,-0.59,
307,-0.65,-0.59,
308,-0.67,-0.605,
309,-0.74,-0.605,
310,-0.815,-0.63,
311,-0.9,-0.645,
312,-0.93,-0.68,
313,-0.91,-0.71,
314,-0.88,-0.745,
315,-0.84,-0.775,
316,-0.855,-0.805,
317,-0.87,-0.815,
318,-0.9,-0.775,
319,-0.95,-0.765,
320,-1.01,-0.75,
321,-1.05,-0.75,
322,-1.075,-0.765,
323,-1.085,-0.785,
324,-1.095,-0.8,
325,-1.07,-0.795,
326,-1.045,-0.775,
327,-1.0,-0.765,
328,-0.95,-0.745,
329,-0.93,-0.75,
330,-0.93,-0.765,
331,-0.955,-0.765,
332,-0.98,-0.765,
333,-1.01,-0.755,
334,-1.02,-0.745,
335,-0.995,-0.735,
336,-1.01,-0.725,
337,-1.0,-0.72,
338,-1.005,-0.71,
339,-1.01,-0.7,
340,-0.985,-0.705,
341,-0.965,-0.685,
342,-0.955,-0.69,
343,-0.91,-0.715,
344,-0.88,-0.745,
345,-0.865,-0.775,
346,-0.895,-0.765,
347,-0.97,-0.765,
348,-1.05,-0.71,
349,-1.06,-0.685,
350,-0.995,-0.685,
351,-0.91,-0.73,
352,-0.85,-0.8,
353,-0.85,-0.86,
354,-0.905,-0.9,
355,-0.95,-0.955,
356,-1.01,-1.0,
357,-0.995,-1.07,
358,-0.91,-1.17,
359,-0.785,-1.335,
360,-0.645,-1.5,
361,-0.49,-1.675,
362,-0.41,-1.805,
363,-0.37,-1.815,
364,-0.37,-1.75,
365,-0.37,-1.58,
366,-0.325,-1.37,
367,-0.185,-1.125,
368,0.035,-0.92,
369,0.28,-0.67,R
370,0.425,-0.41,
371,0.41,-0.115,
372,0.21,0.205,
373,-0.17,0.44,
374,-0.635,0.585,
375,-1.055,0.59,
376,-1.335,0.42,
377,-1.515,0.18,
378,-1.62,-0.045,
379,-1.7,-0.23,
380,-1.82,-0.365,
381,-1.95,-0.395,
382,-2.03,-0.46,
383,-2.11,-0.52,
384,-2.145,-0.565,
385,-2.15,-0.63,
386,-2.135,-0.675,
387,-2.1,-0.68,
388,-2.095,-0.675,
389,-2.095,-0.65,
390,-2.08,-0.625,
391,-2.06,-0.645,
392,-2.01,-0.695,
393,-1.935,-0.735,
394,-1.875,-0.77,
395,-1.845,-0.805,
396,-1.805,-0.82,
397,-1.705,-0.8,
398,-1.585,-0.745,
399,-1.445,-0.66,
400,-1.305,-0.62,
401,-1.205,-0.6,
402,-1.145,-0.605,
403,-1.115,-0.62,
404,-1.105,-0.625,
405,-1.115,-0.605,
406,-1.14,-0.62,
407,-1.17,-0.605,
408,-1.16,-0.6,
409,-1.105,-0.57,
410,-1.03,-0.55,
411,-0.97,-0.55,
412,-0.97,-0.555,
413,-0.995,-0.565,
414,-1.04,-0.545,
415,-1.08,-0.56,
416,-1.1,-0.575,
417,-1.09,-0.605,
418,-1.07,-0.625,
419,-1.05,-0.66,
420,-1.025,-0.675,
421,-1.005,-0.675,
422,-0.99,-0.68,
423,-1.01,-0.665,
424,-1.02,-0.655,
425,-1.06,-0.655,
426,-1.065,-0.655,
427,-1.07,-0.655,
428,-1.065,-0.68,
429,-1.045,-0.705,
430,-1.05,-0.735,
431,-1.075,-0.765,
432,-1.105,-0.775,
433,-1.13,-0.775,
434,-1.15,-0.775,
435,-1.17,-0.76,
436,-1.185,-0.78,
437,-1.205,-0.8,
438,-1.185,-0.79,
439,-1.17,-0.82,
440,-1.155,-0.845,
441,-1.155,-0.87,
442,-1.16,-0.9,
443,-1.16,-0.9,
444,-1.17,-0.9,
445,-1.19,-0.885,
446,-1.245,-0.885,
447,-1.295,-0.895,
448,-1.31,-0.885,
449,-1.29,-0.905,
450,-1.24,-0.91,
451,-1.185,-0.935,
452,-1.16,-0.98,
453,-1.165,-1.01,
454,-1.24,-1.015,
455,-1.32,-0.995,
456,-1.375,-0.98,
457,-1.355,-0.96,
458,-1.265,-0.975,
459,-1.2,-0.99,
460,-1.165,-1.04,
461,-1.175,-1.06,
462,-1.22,-1.05,
463,-1.265,-1.005,
464,-1.28,-0.99,
465,-1.29,-0.99,
466,-1.26,-1.0,
467,-1.205,-1.04,
468,-1.215,-1.06,
469,-1.205,-1.065,
470,-1.205,-1.02,
471,-1.185,-0.95,
472,-1.185,-0.905,
473,-1.165,-0.87,
474,-1.125,-0.86,
475,-1.075,-0.88,
476,-1.01,-0.925,
477,-0.97,-0.935,
478,-0.98,-0.945,
479,-1.0,-0.94,
480,-1.04,-0.905,
481,-1.045,-0.875,
482,-1.01,-0.845,
483,-0.975,-0.82,
484,-0.97,-0.81,
485,-0.945,-0.77,
486,-0.95,-0.745,
487,-0.945,-0.715,
488,-0.91,-0.705,
489,-0.89,-0.685,
490,-0.885,-0.695,
491,-0.92,-0.72,
492,-0.935,-0.735,
493,-0.9,-0.735,
494,-0.86,-0.73,
495,-0.83,-0.72,
496,-0.83,-0.69,
497,-0.855,-0.685,
498,-0.9,-0.645,
499,-0.935,-0.645,
500,-0.94,-0.64,
501,-0.945,-0.65,
502,-0.935,-0.65,
503,-0.915,-0.65,
504,-0.87,-0.655,
505,-0.83,-0.65,
506,-0.815,-0.67,
507,-0.825,-0.665,
508,-0.85,-0.655,
509,-0.865,-0.65,
510,-0.87,-0.64,
511,-0.87,-0.635,
512,-0.855,-0.62,
513,-0.84,-0.615,
514,-0.855,-0.605,
515,-0.905,-0.6,
516,-0.96,-0.595,
517,-0.975,-0.585,
518,-0.95,-0.615,
519,-0.9,-0.61,
520,-0.865,-0.63,
521,-0.875,-0.625,
522,-0.92,-0.66,
523,-0.93,-0.655,
524,-0.95,-0.66,
525,-0.935,-0.65,
526,-0.95,-0.68,
527,-0.99,-0.69,
528,-1.0,-0.68,
529,-0.985,-0.69,
530,-0.955,-0.685,
531,-0.92,-0.68,
532,-0.9,-0.67,
533,-0.875,-0.665,
534,-0.865,-0.645,
535,-0.88,-0.65,
536,-0.895,-0.645,
537,-0.895,-0.665,
538,-0.9,-0.675,
539,-0.93,-0.665,
540,-0.95,-0.67,
541,-0.98,-0.655,
542,-0.945,-0.635,
543,-0.895,-0.62,
544,-0.87,-0.595,
545,-0.87,-0.595,
546,-0.915,-0.63,
547,-0.945,-0.635,
548,-0.955,-0.66,
549,-0.94,-0.655,
550,-0.905,-0.66,
551,-0.905,-0.645,
552,-0.935,-0.64,
553,-0.96,-0.645,
554,-0.955,-0.66,
555,-0.94,-0.665,
556,-0.885,-0.675,
557,-0.875,-0.67,
558,-0.84,-0.64,
559,-0.845,-0.62,
560,-0.85,-0.605,
561,-0.88,-0.575,
562,-0.92,-0.56,
563,-0.925,-0.54,
564,-0.895,-0.565,
565,-0.855,-0.59,
566,-0.835,-0.615,
567,-0.855,-0.61,
568,-0.86,-0.61,
569,-0.86,-0.61,
570,-0.855,-0.59,
571,-0.865,-0.595,
572,-0.9,-0.595,
573,-0.905,-0.59,
574,-0.9,-0.595,
575,-0.87,-0.63,
576,-0.85,-0.67,
577,-0.83,-0.725,
578,-0.85,-0.73,
579,-0.895,-0.73,
580,-0.92,-0.685,
581,-0.945,-0.645,
582,-0.93,-0.615,
583,-0.91,-0.605,
584,-0.875,-0.605,
585,-0.865,-0.625,
586,-0.87,-0.62,
587,-0.855,-0.61,
588,-0.855,-0.625,
589,-0.86,-0.635,
590,-0.855,-0.625,
591,-0.835,-0.6,
592,-0.82,-0.59,
593,-0.79,-0.59,
594,-0.775,-0.6,
595,-0.755,-0.63,
596,-0.755,-0.665,
597,-0.735,-0.7,
598,-0.72,-0.695,
599,-0.72,-0.71,
600,-0.71,-0.685,
601,-0.71,-0.635,
602,-0.7,-0.585,
603,-0.705,-0.535,
604,-0.72,-0.525,
605,-0.75,-0.535,
606,-0.77,-0.525,
607,-0.805,-0.57,
608,-0.815,-0.575,
609,-0.785,-0.61,
610,-0.715,-0.59,
611,-0.67,-0.585,
612,-0.63,-0.565,
613,-0.655,-0.545,
614,-0.685,-0.485,
615,-0.72,-0.445,
616,-0.715,-0.41,
617,-0.7,-0.385,
618,-0.745,-0.4,
619,-0.82,-0.435,
620,-0.895,-0.47,
621,-0.925,-0.49,
622,-0.91,-0.51,
623,-0.885,-0.545,
624,-0.865,-0.565,
625,-0.835,-0.59,
626,-0.845,-0.605,
627,-0.88,-0.61,
628,-0.895,-0.615,
629,-0.905,-0.61,
630,-0.925,-0.605,
631,-0.935,-0.595,
632,-0.965,-0.58,
633,-0.975,-0.575,
634,-0.98,-0.59,
635,-0.985,-0.605,
636,-0.99,-0.64,
637,-0.965,-0.665,
638,-0.935,-0.645,
639,-0.905,-0.655,
640,-0.895,-0.635,
641,-0.925,-0.62,
642,-0.96,-0.62,
643,-0.99,-0.62,
644,-1.03,-0.61,
645,-1.025,-0.62,
646,-1.0,-0.64,
647,-0.975,-0.655,
648,-0.975,-0.665,
649,-0.995,-0.675,
650,-1.0,-0.655,
651,-0.975,-0.62,
652,-0.935,-0.595,
653,-0.94,-0.575,
654,-0.925,-0.585,
655,-0.955,-0.615,
656,-0.99,-0.625,
657,-1.01,-0.635,
658,-1.015,-0.65,
659,-1.005,-0.675,
660,-1.025,-0.72,
661,-1.035,-0.8,
662,-1.015,-0.9,
663,-0.915,-1.025,
664,-0.765,-1.185,
665,-0.61,-1.37,
666,-0.455,-1.55,
667,-0.35,-1.705,
668,-0.325,-1.77,
669,-0.355,-1.72,
670,-0.4,-1.57,
671,-0.37,-1.37,
672,-0.23,-1.155,
673,-0.005,-0.97,
674,0.245,-0.755,R
675,0.42,-0.505,
676,0.435,-0.2,
677,0.26,0.09,
678,-0.1,0.325,
679,-0.535,0.435,
680,-0.975,0.42,
681,-1.335,0.285,
682,-1.605,0.05,
683,-1.77,-0.165,
684,-1.865,-0.33,
685,-1.9,-0.41,
686,-1.93,-0.49,
687,-1.945,-0.525,
688,-1.985,-0.59,
689,-2.045,-0.655,
690,-2.085,-0.725,
691,-2.12,-0.765,
692,-2.11,-0.8,
693,-2.085,-0.795,
694,-2.09,-0.775,
695,-2.085,-0.76,
696,-2.065,-0.77,
697,-2.02,-0.765,
698,-1.97,-0.785,
699,-1.905,-0.78,
700,-1.83,-0.765,
701,-1.755,-0.765,
702,-1.66,-0.72,
703,-1.53,-0.67,
704,-1.4,-0.63,
705,-1.285,-0.595,
706,-1.185,-0.575,
707,-1.12,-0.56,
708,-1.11,-0.585,
709,-1.115,-0.585,
710,-1.13,-0.595,
711,-1.15,-0.535,
712,-1.125,-0.505,
713,-1.105,-0.465,
714,-1.06,-0.43,
715,-1.015,-0.42,
716,-1.01,-0.445,
717,-0.99,-0.485,
718,-0.97,-0.53,
719,-0.98,-0.525,
720,-1.04,-0.54,
721,-1.125,-0.54,
722,-1.18,-0.53,
723,-1.2,-0.5,
724,-1.145,-0.485,
725,-1.085,-0.49,
726,-1.025,-0.505,
727,-0.995,-0.53,
728,-0.955,-0.58,
729,-0.955,-0.6,
730,-0.975,-0.64,
731,-1.005,-0.65,
732,-1.08,-0.655,
733,-1.15,-0.645,
734,-1.185,-0.645,
735,-1.175,-0.665,
736,-1.16,-0.67,
737,-1.145,-0.685,
738,-1.155,-0.72,
739,-1.155,-0.74,
740,-1.16,-0.755,
741,-1.16,-0.775,
742,-1.205,-0.795,
743,-1.24,-0.81,
744,-1.285,-0.815,
745,-1.305,-0.825,
746,-1.305,-0.825,
747,-1.295,-0.805,
748,-1.27,-0.815,
749,-1.24,-0.815,
750,-1.22,-0.84,
751,-1.2,-0.86,
752,-1.195,-0.885,
753,-1.225,-0.875,
754,-1.265,-0.885,
755,-1.285,-0.87,
756,-1.32,-0.86,
757,-1.34,-0.88,
758,-1.36,-0.895,
759,-1.36,-0.91,
760,-1.355,-0.925,
761,-1.305,-0.94,
762,-1.24,-0.94,
763,-1.21,-0.965,
764,-1.21,-0.94,
765,-1.2,-0.97,
766,-1.23,-0.975,
767,-1.265,-0.98,
768,-1.29,-0.985,
769,-1.315,-0.99,
770,-1.335,-0.985,
771,-1.32,-0.965,
772,-1.31,-0.945,
773,-1.275,-0.91,
774,-1.245,-0.88,
775,-1.2,-0.875,
776,-1.17,-0.87,
777,-1.165,-0.86,
778,-1.125,-0.865,
779,-1.125,-0.865,
780,-1.095,-0.87,
781,-1.065,-0.85,
782,-1.055,-0.815,
783,-1.035,-0.77,
784,-1.02,-0.765,
785,-1.015,-0.73,
786,-1.065,-0.695,
787,-1.13,-0.7,
788,-1.16,-0.68,
789,-1.07,-0.685,
790,-0.975,-0.68,
791,-0.885,-0.72,
792,-0.84,-0.73,
793,-0.845,-0.745,
794,-0.865,-0.72,
795,-0.92,-0.675,
796,-0.945,-0.62,
797,-0.95,-0.59,
798,-0.935,-0.565,
799,-0.935,-0.57,
800,-0.955,-0.595,
801,-0.97,-0.6,
802,-0.965,-0.605,
803,-0.95,-0.625,
804,-0.93,-0.615,
805,-0.935,-0.61,
806,-0.94,-0.585,
807,-0.965,-0.565,
808,-0.945,-0.54,
809,-0.965,-0.535,
810,-0.97,-0.53,
811,-0.975,-0.52,
812,-0.96,-0.51,
813,-0.99,-0.51,
814,-1.03,-0.495,
815,-1.08,-0.495,
816,-1.03,-0.485,
817,-0.95,-0.505,
818,-0.865,-0.51,
819,-0.815,-0.55,
820,-0.815,-0.575,
821,-0.835,-0.58,
822,-0.9,-0.55,
823,-0.96,-0.525,
824,-1.015,-0.51,
825,-1.04,-0.485,
826,-1.055,-0.495,
827,-1.02,-0.535,
828,-1.005,-0.545,
829,-0.995,-0.565,
830,-1.005,-0.555,
831,-1.02,-0.515,
832,-1.045,-0.5,
833,-1.035,-0.505,
834,-1.01,-0.505,
835,-0.95,-0.525,
836,-0.925,-0.54,
837,-0.915,-0.555,
838,-0.925,-0.54,
839,-0.95,-0.525,
840,-0.97,-0.515,
841,-1.015,-0.485,
842,-1.025,-0.485,
843,-0.995,-0.49,
844,-0.95,-0.515,
845,-0.905,-0.51,
846,-0.895,-0.515,
847,-0.925,-0.52,
848,-0.94,-0.535,
849,-0.955,-0.525,
850,-0.97,-0.515,
851,-0.975,-0.51,
852,-0.99,-0.515,
853,-1.005,-0.515,
854,-1.025,-0.5,
855,-1.045,-0.495,
856,-1.025,-0.49,
857,-0.99,-0.505,
858,-0.96,-0.505,
859,-0.945,-0.51,
860,-0.915,-0.515,
861,-0.915,-0.52,
862,-0.905,-0.495,
863,-0.91,-0.465,
864,-0.915,-0.47,
865,-0.94,-0.47,
866,-0.935,-0.455,
867,-0.935,-0.445,
868,-0.97,-0.445,
869,-0.985,-0.475,
870,-0.985,-0.475,
871,-0.95,-0.5,
872,-0.9,-0.505,
873,-0.835,-0.515,
874,-0.78,-0.505,
875,-0.775,-0.52,
876,-0.795,-0.505,
877,-0.85,-0.51,
878,-0.91,-0.485,
879,-0.955,-0.45,
880,-0.965,-0.46,
881,-0.945,-0.435,
882,-0.935,-0.44,
883,-0.91,-0.445,
884,-0.915,-0.465,
885,-0.925,-0.47,
886,-0.95,-0.47,
887,-0.955,-0.455,
888,-0.945,-0.45,
889,-0.935,-0.455,
890,-0.9,-0.455,
891,-0.9,-0.455,
892,-0.855,-0.455,
893,-0.835,-0.455,
894,-0.85,-0.455,
895,-0.87,-0.47,
896,-0.865,-0.455,
897,-0.85,-0.47,
898,-0.8,-0.495,
899,-0.795,-0.525,
900,-0.79,-0.53,
901,-0.765,-0.535,
902,-0.745,-0.55,
903,-0.745,-0.535,
904,-0.745,-0.5,
905,-0.76,-0.485,
906,-0.76,-0.475,
907,-0.73,-0.44,
908,-0.715,-0.445,
909,-0.715,-0.42,
910,-0.74,-0.415,
911,-0.76,-0.41,
912,-0.805,-0.425,
913,-0.84,-0.44,
914,-0.875,-0.45,
915,-0.855,-0.44,
916,-0.82,-0.44,
917,-0.75,-0.42,
918,-0.7,-0.395,
919,-0.66,-0.375,
920,-0.625,-0.35,
921,-0.64,-0.33,
922,-0.695,-0.325,
923,-0.775,-0.305,
924,-0.91,-0.295,
925,-0.96,-0.325,
926,-0.96,-0.34,
927,-0.93,-0.4,
928,-0.895,-0.44,
929,-0.855,-0.455,
930,-0.86,-0.455,
931,-0.87,-0.45,
932,-0.895,-0.425,
933,-0.89,-0.41,
934,-0.915,-0.415,
935,-0.965,-0.4,
936,-1.03,-0.42,
937,-1.085,-0.425,
938,-1.07,-0.44,
939,-1.05,-0.435,
940,-1.03,-0.44,
941,-1.005,-0.455,
942,-0.98,-0.435,
943,-0.965,-0.43,
944,-0.955,-0.425,
945,-0.95,-0.42,
946,-0.94,-0.45,
947,-0.92,-0.45,
948,-0.87,-0.475,
949,-0.845,-0.48,
950,-0.86,-0.47,
951,-0.87,-0.445,
952,-0.895,-0.435,
953,-0.9,-0.42,
954,-0.905,-0.43,
955,-0.9,-0.445,
956,-0.94,-0.5,
957,-0.935,-0.525,
958,-0.925,-0.55,
959,-0.935,-0.565,
960,-0.935,-0.565,
961,-0.975,-0.54,
962,-1.015,-0.53,
963,-1.03,-0.52,
964,-1.05,-0.565,
965,-1.05,-0.6,
966,-1.015,-0.685,
967,-0.94,-0.78,
968,-0.84,-0.885,
969,-0.725,-1.0,
970,-0.595,-1.12,
971,-0.46,-1.215,
972,-0.32,-1.32,
973,-0.22,-1.36,
974,-0.185,-1.34,
975,-0.19,-1.25,
976,-0.215,-1.13,
977,-0.19,-0.99,
978,-0.14,-0.835,
979,0.01,-0.705,
980,0.175,-0.525,R
981,0.29,-0.28,
982,0.295,0.04,
983,0.135,0.37,
984,-0.175,0.625,
985,-0.605,0.74,
986,-1.035,0.71,
987,-1.415,0.52,
988,-1.67,0.255,
989,-1.845,-0.03,
990,-1.94,-0.235,
991,-1.985,-0.375,
992,-2.015,-0.435,
993,-2.02,-0.48,
994,-2.01,-0.52,
995,-2.02,-0.555,
996,-2.05,-0.59,
997,-2.09,-0.63,
998,-2.115,-0.64,
999,-2.135,-0.635,
1000,-2.145,-0.615,
1001,-2.15,-0.585,
1002,-2.13,-0.58,
1003,-2.095,-0.58,
1004,-1.99,-0.6,
1005,-1.875,-0.65,
1006,-1.76,-0.66,
1007,-1.62,-0.665,
1008,-1.465,-0.645,
1009,-1.355,-0.58,
1010,-1.235,-0.495,
1011,-1.175,-0.43,
1012,-1.135,-0.365,
1013,-1.14,-0.33,
1014,-1.125,-0.335,
1015,-1.115,-0.35,
1016,-1.09,-0.395,
1017,-1.055,-0.435,
1018,-1.04,-0.445,
1019,-1.025,-0.42,
1020,-1.07,-0.37,
1021,-1.125,-0.3,
1022,-1.16,-0.265,
1023,-1.12,-0.26,
1024,-1.07,-0.285,
1025,-1.03,-0.34,
1026,-1.03,-0.395,
1027,-1.025,-0.435,
1028,-1.05,-0.45,
1029,-1.075,-0.46,
1030,-1.095,-0.46,
1031,-1.11,-0.47,
1032,-1.125,-0.46,
1033,-1.115,-0.48,
1034,-1.12,-0.47,
1035,-1.115,-0.485,
1036,-1.125,-0.465,
1037,-1.14,-0.5,
1038,-1.14,-0.525,
1039,-1.14,-0.555,
1040,-1.15,-0.595,
1041,-1.165,-0.605,
1042,-1.185,-0.645,
1043,-1.19,-0.635,
1044,-1.21,-0.635,
1045,-1.21,-0.63,
1046,-1.225,-0.605,
1047,-1.22,-0.61,
1048,-1.23,-0.63,
1049,-1.245,-0.645,
1050,-1.25,-0.67,
1051,-1.265,-0.705,
1052,-1.285,-0.755,
1053,-1.295,-0.765,
1054,-1.3,-0.78,
1055,-1.32,-0.78,
1056,-1.32,-0.785,
1057,-1.315,-0.79,
1058,-1.295,-0.765,
1059,-1.295,-0.77,
1060,-1.315,-0.775,
1061,-1.345,-0.8,
1062,-1.365,-0.795,
1063,-1.39,-0.805,
1064,-1.365,-0.825,
1065,-1.33,-0.83,
1066,-1.31,-0.845,
1067,-1.305,-0.86,
1068,-1.3,-0.875,
1069,-1.31,-0.875,
1070,-1.315,-0.86,
1071,-1.31,-0.84,
1072,-1.315,-0.83,
1073,-1.3,-0.815,
1074,-1.28,-0.8,
1075,-1.25,-0.8,
1076,-1.23,-0.775,
1077,-1.215,-0.765,
1078,-1.195,-0.76,
1079,-1.205,-0.755,
1080,-1.2,-0.755,
1081,-1.19,-0.745,
1082,-1.17,-0.735,
1083,-1.145,-0.72,
1084,-1.11,-0.685,
1085,-1.09,-0.68,
1086,-1.075,-0.66,
1087,-1.045,-0.64,
1088,-1.015,-0.62,
1089,-1.0,-0.6,
1090,-1.0,-0.58,
1091,-1.02,-0.54,
1092,-1.045,-0.51,
1093,-1.045,-0.485,
1094,-1.01,-0.495,
1095,-0.99,-0.475,
1096,-0.965,-0.46,
1097,-0.95,-0.445,
1098,-0.945,-0.45,
1099,-0.945,-0.455,
1100,-0.94,-0.46,
1101,-0.945,-0.47,
1102,-0.945,-0.48,
1103,-0.97,-0.475,
1104,-0.96,-0.465,
1105,-0.95,-0.42,
1106,-0.955,-0.38,
1107,-0.945,-0.37,
1108,-0.95,-0.355,
1109,-0.975,-0.34,
1110,-0.97,-0.37,
1111,-0.96,-0.37,
1112,-0.97,-0.385,
1113,-0.975,-0.4,
1114,-0.965,-0.41,
1115,-0.98,-0.42,
1116,-0.965,-0.42,
1117,-0.975,-0.425,
1118,-0.97,-0.425,
1119,-0.965,-0.435,
1120,-0.97,-0.435,
1121,-0.99,-0.42,
1122,-1.0,-0.44,
1123,-1.015,-0.44,
1124,-1.005,-0.47,
1125,-1.015,-0.48,
1126,-1.02,-0.465,
1127,-1.025,-0.455,
1128,-1.015,-0.42,
1129,-1.005,-0.415,
1130,-1.0,-0.385,
1131,-0.995,-0.385,
1132,-0.99,-0.4,
1133,-0.985,-0.385,
1134,-0.975,-0.4,
1135,-0.975,-0.39,
1136,-1.0,-0.425,
1137,-1.015,-0.435,
1138,-0.99,-0.455,
1139,-0.98,-0.45,
1140,-0.96,-0.465,
1141,-0.97,-0.44,
1142,-1.005,-0.43,
1143,-1.02,-0.44,
1144,-1.03,-0.435,
1145,-1.05,-0.45,
1146,-1.04,-0.465,
1147,-1.025,-0.47,
1148,-1.045,-0.475,
1149,-1.045,-0.47,
1150,-1.045,-0.47,
1151,-1.05,-0.47,
1152,-1.035,-0.465,
1153,-1.055,-0.475,
1154,-1.045,-0.45,
1155,-1.04,-0.455,
1156,-1.035,-0.435,
1157,-1.015,-0.425,
1158,-1.025,-0.44,
1159,-1.01,-0.43,
1160,-1.02,-0.425,
1161,-1.01,-0.44,
1162,-1.02,-0.46,
1163,-0.995,-0.475,
1164,-0.995,-0.47,
1165,-0.99,-0.47,
1166,-0.985,-0.435,
1167,-1.0,-0.455,
1168,-1.03,-0.43,
1169,-1.035,-0.425,
1170,-1.045,-0.435,
1171,-1.065,-0.47,
1172,-1.08,-0.48,
1173,-1.09,-0.485,
1174,-1.095,-0.505,
1175,-1.08,-0.515,
1176,-1.055,-0.52,
1177,-1.045,-0.5,
1178,-1.04,-0.475,
1179,-1.05,-0.465,
1180,-1.04,-0.455,
1181,-1.05,-0.47,
1182,-1.055,-0.48,
1183,-1.035,-0.495,
1184,-1.025,-0.5,
1185,-1.02,-0.5,
1186,-0.995,-0.515,
1187,-0.985,-0.49,
1188,-0.96,-0.47,
1189,-0.95,-0.43,
1190,-0.95,-0.4,
1191,-0.96,-0.405,
1192,-0.95,-0.41,
1193,-0.965,-0.41,
1194,-0.985,-0.425,
1195,-0.98,-0.445,
1196,-0.965,-0.465,
1197,-0.945,-0.5,
1198,-0.96,-0.505,
1199,-0.955,-0.515,
1200,-0.95,-0.525,
1201,-0.96,-0.52,
1202,-0.95,-0.515,
1203,-0.935,-0.515,
1204,-0.91,-0.5,
1205,-0.86,-0.51,
1206,-0.825,-0.5,
1207,-0.8,-0.5,
1208,-0.795,-0.48,
1209,-0.785,-0.435,
1210,-0.81,-0.395,
1211,-0.835,-0.365,
1212,-0.855,-0.37,
1213,-0.885,-0.355,
1214,-0.895,-0.405,
1215,-0.905,-0.42,
1216,-0.9,-0.46,
1217,-0.875,-0.46,
1218,-0.84,-0.45,
1219,-0.805,-0.4,
1220,-0.805,-0.345,
1221,-0.79,-0.335,
1222,-0.805,-0.29,
1223,-0.81,-0.27,
1224,-0.84,-0.26,
1225,-0.855,-0.27,
1226,-0.87,-0.295,
1227,-0.895,-0.32,
1228,-0.915,-0.355,
1229,-0.935,-0.36,
1230,-0.95,-0.385,
1231,-0.96,-0.385,
1232,-0.97,-0.405,
1233,-0.965,-0.405,
1234,-0.975,-0.415,
1235,-0.965,-0.42,
1236,-0.97,-0.45,
1237,-0.975,-0.43,
1238,-0.985,-0.445,
1239,-0.995,-0.44,
1240,-1.01,-0.44,
1241,-1.0,-0.43,
1242,-0.995,-0.455,
1243,-1.005,-0.45,
1244,-1.025,-0.445,
1245,-1.045,-0.46,
1246,-1.055,-0.425,
1247,-1.065,-0.45,
1248,-1.065,-0.475,
1249,-1.075,-0.475,
1250,-1.075,-0.49,
1251,-1.06,-0.475,
1252,-1.06,-0.465,
1253,-1.06,-0.455,
1254,-1.05,-0.505,
1255,-1.045,-0.495,
1256,-1.06,-0.53,
1257,-1.065,-0.54,
1258,-1.105,-0.535,
1259,-1.125,-0.545,
1260,-1.165,-0.555,
1261,-1.175,-0.55,
1262,-1.165,-0.555,
1263,-1.13,-0.565,
1264,-1.095,-0.565,
1265,-1.09,-0.55,
1266,-1.075,-0.535,
1267,-1.08,-0.545,
1268,-1.055,-0.59,
1269,-1.06,-0.645,
1270,-1.0,-0.74,
1271,-0.91,-0.84,
1272,-0.805,-0.97,
1273,-0.66,-1.1,
1274,-0.515,-1.205,
1275,-0.36,-1.315,
1276,-0.24,-1.375,
1277,-0.185,-1.415,
1278,-0.19,-1.355,
1279,-0.205,-1.25,
1280,-0.2,-1.11,
1281,-0.16,-0.97,
1282,-0.065,-0.79,
1283,0.07,-0.635,
1284,0.205,-0.455,R
1285,0.28,-0.22,
1286,0.275,0.085,
1287,0.14,0.37,
1288,-0.12,0.615,
1289,-0.495,0.73,
1290,-0.905,0.69,
1291,-1.28,0.515,
1292,-1.575,0.24,
1293,-1.765,-0.04,
1294,-1.865,-0.27,
1295,-1.905,-0.395,
1296,-1.94,-0.46,
1297,-1.97,-0.49,
1298,-2.0,-0.54,
1299,-2.03,-0.58,
1300,-2.045,-0.63,
1301,-2.05,-0.66,
1302,-2.06,-0.67,
1303,-2.085,-0.665,
1304,-2.085,-0.675,
1305,-2.095,-0.64,
1306,-2.075,-0.625,
1307,-2.045,-0.63,
1308,-2.025,-0.645,
1309,-1.975,-0.675,
1310,-1.895,-0.67,
1311,-1.785,-0.675,
1312,-1.65,-0.66,
1313,-1.505,-0.625,
1314,-1.355,-0.585,
1315,-1.245,-0.505,
1316,-1.15,-0.46,
1317,-1.085,-0.415,
1318,-1.065,-0.385,
1319,-1.09,-0.37,
1320,-1.08,-0.395,
1321,-1.095,-0.385,
1322,-1.09,-0.385,
1323,-1.055,-0.39,
1324,-1.025,-0.365,
1325,-1.005,-0.345,
1326,-0.99,-0.35,
1327,-0.98,-0.35,
1328,-0.98,-0.37,
1329,-0.995,-0.38,
1330,-1.01,-0.39,
1331,-1.03,-0.4,
1332,-1.03,-0.4,
1333,-1.04,-0.4,
1334,-1.04,-0.385,
1335,-1.03,-0.395,
1336,-1.025,-0.39,
1337,-1.015,-0.4,
1338,-1.03,-0.415,
1339,-1.04,-0.435,
1340,-1.065,-0.465,
1341,-1.075,-0.49,
1342,-1.1,-0.495,
1343,-1.105,-0.51,
1344,-1.095,-0.535,
1345,-1.1,-0.53,
1346,-1.115,-0.55,
1347,-1.115,-0.56,
1348,-1.125,-0.565,
1349,-1.13,-0.59,
1350,-1.11,-0.59,
1351,-1.13,-0.605,
1352,-1.155,-0.63,
1353,-1.17,-0.665,
1354,-1.205,-0.675,
1355,-1.215,-0.685,
1356,-1.23,-0.715,
1357,-1.24,-0.73,
1358,-1.24,-0.74,
1359,-1.235,-0.74,
1360,-1.245,-0.74,
1361,-1.235,-0.745,
1362,-1.25,-0.735,
1363,-1.26,-0.75,
1364,-1.25,-0.775,
1365,-1.27,-0.805,
1366,-1.27,-0.815,
1367,-1.29,-0.825,
1368,-1.305,-0.855,
1369,-1.31,-0.845,
1370,-1.325,-0.845,
1371,-1.32,-0.85,
1372,-1.31,-0.85,
1373,-1.3,-0.845,
1374,-1.285,-0.855,
1375,-1.27,-0.865,
1376,-1.275,-0.86,
1377,-1.27,-0.88,
1378,-1.265,-0.865,
1379,-1.27,-0.87,
1380,-1.25,-0.865,
1381,-1.275,-0.86,
1382,-1.235,-0.855,
1383,-1.215,-0.85,
1384,-1.185,-0.825,
1385,-1.16,-0.81,
1386,-1.155,-0.79,
1387,-1.135,-0.775,
1388,-1.13,-0.77,
1389,-1.13,-0.765,
1390,-1.12,-0.75,
1391,-1.095,-0.745,
1392,-1.08,-0.74,
1393,-1.07,-0.71,
1394,-1.055,-0.67,
1395,-1.03,-0.65,
1396,-1.015,-0.625,
1397,-0.99,-0.6,
1398,-0.99,-0.59,
1399,-0.975,-0.615,
1400,-0.95,-0.62,
1401,-0.945,-0.625,
1402,-0.945,-0.605,
1403,-0.94,-0.615,
1404,-0.935,-0.585,
1405,-0.93,-0.56,
1406,-0.925,-0.54,
1407,-0.9,-0.52,
1408,-0.9,-0.52,
1409,-0.875,-0.51,
1410,-0.87,-0.485,
1411,-0.875,-0.49,
1412,-0.87,-0.495,
1413,-0.865,-0.5,
1414,-0.88,-0.495,
1415,-0.885,-0.505,
1416,-0.895,-0.5,
1417,-0.89,-0.495,
1418,-0.89,-0.495,
1419,-0.89,-0.475,
1420,-0.88,-0.47,
1421,-0.88,-0.445,
1422,-0.855,-0.45,
1423,-0.865,-0.455,
1424,-0.855,-0.445,
1425,-0.88,-0.47,
1426,-0.885,-0.47,
1427,-0.88,-0.495,
1428,-0.885,-0.495,
1429,-0.89,-0.5,
1430,-0.885,-0.48,
1431,-0.9,-0.465,
1432,-0.88,-0.455,
1433,-0.87,-0.44,
1434,-0.87,-0.445,
1435,-0.885,-0.445,
1436,-0.875,-0.445,
1437,-0.885,-0.45,
1438,-0.9,-0.455,
1439,-0.905,-0.47,
1440,-0.89,-0.49,
1441,-0.9,-0.48,
1442,-0.905,-0.48,
1443,-0.895,-0.45,
1444,-0.89,-0.44,
1445,-0.89,-0.435,
1446,-0.87,-0.42,
1447,-0.87,-0.43,
1448,-0.89,-0.435,
1449,-0.885,-0.465,
1450,-0.92,-0.48,
1451,-0.91,-0.485,
1452,-0.915,-0.475,
1453,-0.905,-0.485,
1454,-0.92,-0.48,
1455,-0.88,-0.475,
1456,-0.885,-0.465,
1457,-0.86,-0.46,
1458,-0.865,-0.455,
1459,-0.88,-0.455,
1460,-0.87,-0.48,
1461,-0.875,-0.495,
1462,-0.885,-0.495,
1463,-0.89,-0.51,
1464,-0.895,-0.51,
1465,-0.895,-0.5,
1466,-0.89,-0.5,
1467,-0.88,-0.475,
1468,-0.865,-0.475,
1469,-0.855,-0.455,
1470,-0.855,-0.475,
1471,-0.87,-0.485,
1472,-0.885,-0.48,
1473,-0.885,-0.5,
1474,-0.88,-0.5,
1475,-0.88,-0.525,
1476,-0.89,-0.515,
1477,-0.89,-0.51,
1478,-0.875,-0.5,
1479,-0.87,-0.5,
1480,-0.875,-0.485,
1481,-0.85,-0.475,
1482,-0.85,-0.485,
1483,-0.855,-0.48,
1484,-0.85,-0.5,
1485,-0.86,-0.5,
1486,-0.86,-0.505,
1487,-0.87,-0.515,
1488,-0.865,-0.505,
1489,-0.89,-0.535,
1490,-0.875,-0.515,
1491,-0.855,-0.52,
1492,-0.835,-0.48,
1493,-0.835,-0.485,
1494,-0.825,-0.47,
1495,-0.84,-0.465,
1496,-0.84,-0.455,
1497,-0.815,-0.45,
1498,-0.825,-0.47,
1499,-0.825,-0.49,
1500,-0.82,-0.47,
1501,-0.82,-0.495,
1502,-0.795,-0.485,
1503,-0.795,-0.48,
1504,-0.765,-0.505,
1505,-0.75,-0.49,
1506,-0.73,-0.515,
1507,-0.72,-0.535,
1508,-0.73,-0.525,
1509,-0.73,-0.545,
1510,-0.72,-0.55,
1511,-0.705,-0.55,
1512,-0.68,-0.54,
1513,-0.67,-0.54,
1514,-0.655,-0.495,
1515,-0.66,-0.47,
1516,-0.66,-0.445,
1517,-0.65,-0.43,
1518,-0.645,-0.435,
1519,-0.69,-0.46,
1520,-0.7,-0.465,
1521,-0.725,-0.495,
1522,-0.735,-0.505,
1523,-0.725,-0.5,
1524,-0.71,-0.495,
1525,-0.67,-0.455,
1526,-0.645,-0.425,
1527,-0.615,-0.37,
1528,-0.61,-0.33,
1529,-0.605,-0.305,
1530,-0.625,-0.3,
1531,-0.68,-0.335,
1532,-0.71,-0.365,
1533,-0.735,-0.41,
1534,-0.76,-0.48,
1535,-0.78,-0.495,
1536,-0.785,-0.49,
1537,-0.805,-0.475,
1538,-0.82,-0.45,
1539,-0.815,-0.445,
1540,-0.83,-0.445,
1541,-0.825,-0.44,
1542,-0.815,-0.455,
1543,-0.825,-0.48,
1544,-0.855,-0.505,
1545,-0.855,-0.52,
1546,-0.86,-0.515,
1547,-0.86,-0.515,
1548,-0.865,-0.5,
1549,-0.87,-0.47,
1550,-0.875,-0.485,
1551,-0.85,-0.47,
1552,-0.84,-0.485,
1553,-0.845,-0.48,
1554,-0.84,-0.485,
1555,-0.85,-0.49,
1556,-0.845,-0.5,
1557,-0.845,-0.51,
1558,-0.845,-0.525,
1559,-0.85,-0.535,
1560,-0.845,-0.525,
1561,-0.845,-0.535,
1562,-0.84,-0.53,
1563,-0.825,-0.52,
1564,-0.84,-0.515,
1565,-0.825,-0.52,
1566,-0.825,-0.52,
1567,-0.825,-0.535,
1568,-0.835,-0.555,
1569,-0.86,-0.58,
1570,-0.875,-0.605,
1571,-0.895,-0.65,
1572,-0.905,-0.725,
1573,-0.895,-0.77,
1574,-0.84,-0.87,
1575,-0.745,-0.97,
1576,-0.61,-1.105,
1577,-0.455,-1.235,
1578,-0.32,-1.38,
1579,-0.205,-1.48,
1580,-0.185,-1.54,
1581,-0.185,-1.52,
1582,-0.215,-1.425,
1583,-0.26,-1.3,
1584,-0.23,-1.145,
1585,-0.18,-0.98,
1586,-0.045,-0.8,
1587,0.13,-0.585,R
1588,0.27,-0.345,
1589,0.345,-0.015,
1590,0.275,0.285,
1591,0.035,0.535,
1592,-0.335,0.65,
1593,-0.73,0.615,
1594,-1.09,0.435,
1595,-1.345,0.19,
1596,-1.51,-0.065,
1597,-1.615,-0.245,
1598,-1.685,-0.38,
1599,-1.72,-0.45,
1600,-1.77,-0.475,
1601,-1.805,-0.515,
1602,-1.83,-0.55,
1603,-1.85,-0.605,
1604,-1.855,-0.645,
1605,-1.865,-0.67,
1606,-1.875,-0.675,
1607,-1.87,-0.685,
1608,-1.87,-0.68,
1609,-1.885,-0.68,
1610,-1.85,-0.67,
1611,-1.805,-0.655,
1612,-1.75,-0.68,
1613,-1.655,-0.695,
1614,-1.5,-0.695,
1615,-1.355,-0.66,
1616,-1.2,-0.635,
1617,-1.065,-0.585,
1618,-0.97,-0.54,
1619,-0.915,-0.52,
1620,-0.88,-0.475,
1621,-0.885,-0.475,
1622,-0.885,-0.465,
1623,-0.86,-0.455,
1624,-0.85,-0.455,
1625,-0.84,-0.465,
1626,-0.815,-0.475,
1627,-0.83,-0.465,
1628,-0.82,-0.49,
1629,-0.835,-0.51,
1630,-0.85,-0.505,
1631,-0.86,-0.515,
1632,-0.86,-0.52,
1633,-0.885,-0.525,
1634,-0.88,-0.52,
1635,-0.895,-0.505,
1636,-0.87,-0.53,
1637,-0.875,-0.515,
1638,-0.865,-0.53,
1639,-0.865,-0.555,
1640,-0.885,-0.565,
1641,-0.905,-0.575,
1642,-0.915,-0.595,
1643,-0.945,-0.62,
1644,-0.965,-0.64,
1645,-0.975,-0.64,
1646,-0.975,-0.65,
1647,-0.99,-0.66,
1648,-0.975,-0.64,
1649,-0.975,-0.655,
1650,-0.975,-0.68,
1651,-0.975,-0.685,
1652,-1.01,-0.7,
1653,-1.02,-0.735,
1654,-1.035,-0.755,
1655,-1.045,-0.77,
1656,-1.07,-0.78,
1657,-1.085,-0.8,
1658,-1.095,-0.8,
1659,-1.115,-0.8,
1660,-1.125,-0.79,
1661,-1.145,-0.8,
1662,-1.16,-0.815,
1663,-1.18,-0.835,
1664,-1.2,-0.83,
1665,-1.225,-0.855,
1666,-1.245,-0.865,
1667,-1.275,-0.875,
1668,-1.28,-0.905,
1669,-1.31,-0.89,
1670,-1.315,-0.885,
1671,-1.31,-0.87,
1672,-1.28,-0.88,
1673,-1.275,-0.855,
1674,-1.235,-0.88,
1675,-1.23,-0.88,
1676,-1.205,-0.89,
1677,-1.185,-0.905,
1678,-1.16,-0.915,
1679,-1.125,-0.925,
1680,-1.1,-0.925,
1681,-1.075,-0.92,
1682,-1.055,-0.91,
1683,-1.02,-0.89,
1684,-1.005,-0.895,
1685,-0.985,-0.865,
1686,-0.945,-0.85,
1687,-0.95,-0.85,
1688,-0.925,-0.84,
1689,-0.91,-0.82,
1690,-0.91,-0.815,
1691,-0.905,-0.805,
1692,-0.885,-0.8,
1693,-0.905,-0.77,
1694,-0.9,-0.75,
1695,-0.88,-0.72,
1696,-0.86,-0.7,
1697,-0.84,-0.685,
1698,-0.84,-0.67,
1699,-0.825,-0.66,
1700,-0.835,-0.64,
1701,-0.825,-0.64,
1702,-0.84,-0.65,
1703,-0.835,-0.65,
1704,-0.84,-0.63,
1705,-0.84,-0.61,
1706,-0.825,-0.595,
1707,-0.82,-0.575,
1708,-0.785,-0.58,
1709,-0.795,-0.565,
1710,-0.78,-0.56,
1711,-0.78,-0.565,
1712,-0.775,-0.55,
1713,-0.765,-0.55,
1714,-0.78,-0.56,
1715,-0.79,-0.56,
1716,-0.81,-0.555,
1717,-0.805,-0.55,
1718,-0.805,-0.56,
1719,-0.805,-0.54,
1720,-0.795,-0.54,
1721,-0.79,-0.525,
1722,-0.77,-0.505,
1723,-0.765,-0.535,
1724,-0.785,-0.53,
1725,-0.795,-0.54,
1726,-0.8,-0.57,
1727,-0.82,-0.57,
1728,-0.825,-0.575,
1729,-0.845,-0.56,
1730,-0.845,-0.575,
1731,-0.845,-0.58,
1732,-0.835,-0.57,
1733,-0.825,-0.56,
1734,-0.825,-0.565,
1735,-0.825,-0.57,
1736,-0.825,-0.58,
1737,-0.835,-0.58,
1738,-0.86,-0.595,
1739,-0.855,-0.62,
1740,-0.855,-0.625,
1741,-0.885,-0.625,
1742,-0.87,-0.61,
1743,-0.865,-0.6,
1744,-0.86,-0.615,
1745,-0.855,-0.625,
1746,-0.865,-0.625,
1747,-0.855,-0.63,
1748,-0.875,-0.635,
1749,-0.86,-0.64,
1750,-0.855,-0.655,
1751,-0.855,-0.655,
1752,-0.855,-0.67,
1753,-0.865,-0.66,
1754,-0.855,-0.67,
1755,-0.84,-0.635,
1756,-0.845,-0.65,
1757,-0.84,-0.645,
1758,-0.835,-0.65,
1759,-0.835,-0.655,
1760,-0.83,-0.64,
1761,-0.845,-0.665,
1762,-0.865,-0.665,
1763,-0.865,-0.68,
1764,-0.87,-0.675,
1765,-0.875,-0.68,
1766,-0.87,-0.685,
1767,-0.855,-0.665,
1768,-0.845,-0.66,
1769,-0.82,-0.62,
1770,-0.815,-0.615,
1771,-0.83,-0.63,
1772,-0.835,-0.645,
1773,-0.84,-0.65,
1774,-0.855,-0.65,
1775,-0.86,-0.68,
1776,-0.855,-0.665,
1777,-0.865,-0.675,
1778,-0.845,-0.67,
1779,-0.85,-0.655,
1780,-0.835,-0.63,
1781,-0.855,-0.645,
1782,-0.815,-0.63,
1783,-0.835,-0.63,
1784,-0.825,-0.65,
1785,-0.835,-0.69,
1786,-0.835,-0.71,
1787,-0.84,-0.725,
1788,-0.84,-0.725,
1789,-0.835,-0.71,
1790,-0.815,-0.71,
1791,-0.8,-0.685,
1792,-0.785,-0.675,
1793,-0.775,-0.68,
1794,-0.76,-0.675,
1795,-0.765,-0.7,
1796,-0.74,-0.72,
1797,-0.75,-0.735,
1798,-0.75,-0.765,
1799,-0.74,-0.765,
1800,-0.74,-0.775,
1801,-0.725,-0.75,
1802,-0.705,-0.72,
1803,-0.67,-0.695,
1804,-0.65,-0.685,
1805,-0.63,-0.67,
1806,-0.625,-0.655,
1807,-0.645,-0.655,
1808,-0.66,-0.67,
1809,-0.69,-0.68,
1810,-0.715,-0.695,
1811,-0.73,-0.715,
1812,-0.75,-0.715,
1813,-0.75,-0.705,
1814,-0.72,-0.715,
1815,-0.68,-0.685,
1816,-0.65,-0.655,
1817,-0.63,-0.595,
1818,-0.62,-0.58,
1819,-0.64,-0.56,
1820,-0.675,-0.54,
1821,-0.71,-0.575,
1822,-0.76,-0.6,
1823,-0.795,-0.63,
1824,-0.825,-0.655,
1825,-0.84,-0.685,
1826,-0.83,-0.66,
1827,-0.835,-0.66,
1828,-0.825,-0.64,
1829,-0.84,-0.64,
1830,-0.83,-0.635,
1831,-0.865,-0.66,
1832,-0.865,-0.685,
1833,-0.9,-0.705,
1834,-0.9,-0.725,
1835,-0.92,-0.72,
1836,-0.905,-0.755,
1837,-0.91,-0.76,
1838,-0.91,-0.77,
1839,-0.915,-0.745,
1840,-0.895,-0.755,
1841,-0.87,-0.735,
1842,-0.87,-0.74,
1843,-0.865,-0.74,
1844,-0.87,-0.735,
1845,-0.885,-0.755,
1846,-0.9,-0.745,
1847,-0.915,-0.76,
1848,-0.91,-0.77,
1849,-0.925,-0.77,
1850,-0.935,-0.755,
1851,-0.93,-0.765,
1852,-0.925,-0.73,
1853,-0.915,-0.75,
1854,-0.905,-0.74,
1855,-0.885,-0.765,
1856,-0.89,-0.765,
1857,-0.9,-0.765,
1858,-0.89,-0.78,
1859,-0.885,-0.78,
1860,-0.91,-0.8,
1861,-0.935,-0.795,
1862,-0.94,-0.805,
1863,-0.94,-0.815,
1864,-0.92,-0.835,
1865,-0.9,-0.895,
1866,-0.845,-0.97,
1867,-0.765,-1.08,
1868,-0.65,-1.185,
1869,-0.52,-1.31,
1870,-0.395,-1.415,
1871,-0.245,-1.515,
1872,-0.145,-1.59,
1873,-0.11,-1.62,
1874,-0.135,-1.56,
1875,-0.16,-1.435,
1876,-0.15,-1.295,
1877,-0.09,-1.155,
1878,0.035,-1.025,
1879,0.18,-0.885,R
1880,0.335,-0.685,
1881,0.405,-0.455,
1882,0.355,-0.145,
1883,0.145,0.14,
1884,-0.22,0.33,
1885,-0.665,0.4,
1886,-1.11,0.295,
1887,-1.455,0.055,
1888,-1.685,-0.22,
1889,-1.805,-0.46,
1890,-1.89,-0.64,
1891,-1.915,-0.755,
1892,-1.965,-0.825,
1893,-2.0,-0.88,
1894,-2.025,-0.92,
1895,-2.05,-0.955,
1896,-2.055,-0.98,
1897,-2.055,-1.01,
1898,-2.06,-1.0,
1899,-2.04,-0.985,
1900,-2.025,-0.95,
1901,-2.01,-0.94,
1902,-1.98,-0.935,
1903,-1.94,-0.955,
1904,-1.88,-0.975,
1905,-1.78,-1.0,
1906,-1.665,-1.01,
1907,-1.505,-0.985,
1908,-1.36,-0.93,
1909,-1.24,-0.85,
1910,-1.13,-0.76,
1911,-1.045,-0.69,
1912,-0.995,-0.63,
1913,-0.98,-0.6,
1914,-0.97,-0.585,
1915,-0.975,-0.595,
1916,-0.965,-0.605,
1917,-0.955,-0.625,
1918,-0.945,-0.65,
1919,-0.95,-0.675,
1920,-0.95,-0.665,
1921,-0.945,-0.66,
1922,-0.93,-0.655,
1923,-0.935,-0.635,
1924,-0.935,-0.62,
1925,-0.94,-0.61,
1926,-0.935,-0.6,
1927,-0.955,-0.625,
1928,-0.945,-0.645,
1929,-0.94,-0.65,
1930,-0.96,-0.67,
1931,-0.985,-0.685,
1932,-0.98,-0.695,
1933,-0.985,-0.685,
1934,-0.985,-0.675,
1935,-0.985,-0.67,
1936,-1.005,-0.675,
1937,-1.0,-0.68,
1938,-1.005,-0.72,
1939,-1.015,-0.76,
1940,-1.0,-0.79,
1941,-1.03,-0.82,
1942,-1.04,-0.87,
1943,-1.055,-0.875,
1944,-1.075,-0.875,
1945,-1.08,-0.895,
1946,-1.1,-0.91,
1947,-1.095,-0.915,
1948,-1.105,-0.93,
1949,-1.095,-0.945,
1950,-1.095,-0.98,
1951,-1.11,-0.985,
1952,-1.14,-1.02,
1953,-1.14,-1.03,
1954,-1.165,-1.035,
1955,-1.19,-1.045,
1956,-1.205,-1.045,
1957,-1.195,-1.035,
1958,-1.2,-1.045,
1959,-1.19,-1.035,
1960,-1.18,-1.04,
1961,-1.185,-1.025,
1962,-1.165,-1.03,
1963,-1.18,-1.01,
1964,-1.185,-1.01,
1965,-1.18,-1.02,
1966,-1.18,-1.04,
1967,-1.19,-1.045,
1968,-1.2,-1.04,
1969,-1.22,-1.04,
1970,-1.195,-1.02,
1971,-1.175,-1.03,
1972,-1.16,-1.015,
1973,-1.135,-1.0,
1974,-1.135,-0.985,
1975,-1.105,-0.985,
1976,-1.1,-0.975,
1977,-1.08,-0.965,
1978,-1.08,-0.96,
1979,-1.065,-0.95,
1980,-1.065,-0.94,
1981,-1.045,-0.9,
1982,-1.025,-0.91,
1983,-1.005,-0.89,
1984,-0.98,-0.875,
1985,-0.95,-0.84,
1986,-0.925,-0.82,
1987,-0.93,-0.805,
1988,-0.93,-0.775,
1989,-0.915,-0.77,
1990,-0.9,-0.75,
1991,-0.895,-0.74,
1992,-0.87,-0.7,
1993,-0.87,-0.69,
1994,-0.865,-0.66,
1995,-0.855,-0.67,
1996,-0.855,-0.645,
1997,-0.845,-0.62,
1998,-0.835,-0.61,
1999,-0.825,-0.6,
2000,-0.825,-0.605,
2001,-0.825,-0.62,
2002,-0.82,-0.625,
2003,-0.83,-0.64,
2004,-0.825,-0.635,
2005,-0.845,-0.63,
2006,-0.845,-0.61,
2007,-0.825,-0.6,
2008,-0.83,-0.58,
2009,-0.825,-0.585,
2010,-0.82,-0.57,
2011,-0.82,-0.58,
2012,-0.805,-0.575,
2013,-0.81,-0.59,
2014,-0.84,-0.605,
2015,-0.81,-0.6,
2016,-0.82,-0.6,
2017,-0.83,-0.575,
2018,-0.84,-0.56,
2019,-0.85,-0.565,
2020,-0.85,-0.56,
2021,-0.83,-0.57,
2022,-0.835,-0.58,
2023,-0.81,-0.585,
2024,-0.815,-0.59,
2025,-0.81,-0.6,
2026,-0.82,-0.59,
2027,-0.835,-0.61,
2028,-0.855,-0.605,
2029,-0.84,-0.575,
2030,-0.85,-0.59,
2031,-0.855,-0.575,
2032,-0.855,-0.54,
2033,-0.85,-0.545,
2034,-0.835,-0.55,
2035,-0.845,-0.565,
2036,-0.85,-0.58,
2037,-0.835,-0.585,
2038,-0.86,-0.59,
2039,-0.875,-0.59,
2040,-0.86,-0.6,
2041,-0.855,-0.57,
2042,-0.855,-0.555,
2043,-0.84,-0.555,
2044,-0.83,-0.545,
2045,-0.835,-0.535,
2046,-0.82,-0.555,
2047,-0.825,-0.545,
2048,-0.84,-0.58,
2049,-0.84,-0.58,
2050,-0.845,-0.6,
2051,-0.845,-0.61,
2052,-0.84,-0.61,
2053,-0.835,-0.595,
2054,-0.845,-0.6,
2055,-0.815,-0.605,
2056,-0.82,-0.585,
2057,-0.81,-0.565,
2058,-0.805,-0.575,
2059,-0.82,-0.575,
2060,-0.81,-0.565,
2061,-0.82,-0.585,
2062,-0.825,-0.595,
2063,-0.83,-0.605,
2064,-0.83,-0.615,
2065,-0.825,-0.605,
2066,-0.82,-0.605,
2067,-0.8,-0.58,
2068,-0.8,-0.57,
2069,-0.795,-0.565,
2070,-0.78,-0.55,
2071,-0.785,-0.58,
2072,-0.79,-0.6,
2073,-0.795,-0.615,
2074,-0.795,-0.635,
2075,-0.8,-0.635,
2076,-0.81,-0.63,
2077,-0.82,-0.63,
2078,-0.795,-0.615,
2079,-0.785,-0.595,
2080,-0.785,-0.59,
2081,-0.775,-0.585,
2082,-0.76,-0.57,
2083,-0.755,-0.595,
2084,-0.765,-0.58,
2085,-0.775,-0.605,
2086,-0.77,-0.61,
2087,-0.775,-0.63,
2088,-0.75,-0.64,
2089,-0.74,-0.67,
2090,-0.735,-0.65,
2091,-0.715,-0.655,
2092,-0.695,-0.67,
2093,-0.675,-0.64,
2094,-0.66,-0.615,
2095,-0.655,-0.62,
2096,-0.655,-0.615,
2097,-0.66,-0.635,
2098,-0.67,-0.635,
2099,-0.66,-0.635,
2100,-0.65,-0.64,
2101,-0.65,-0.63,
2102,-0.63,-0.615,
2103,-0.605,-0.575,
2104,-0.6,-0.54,
2105,-0.61,-0.51,
2106,-0.61,-0.49,
2107,-0.645,-0.48,
2108,-0.665,-0.495,
2109,-0.685,-0.53,
2110,-0.695,-0.57,
2111,-0.725,-0.555,
2112,-0.715,-0.56,
2113,-0.71,-0.545,
2114,-0.695,-0.51,
2115,-0.685,-0.46,
2116,-0.67,-0.43,
2117,-0.65,-0.4,
2118,-0.67,-0.375,
2119,-0.69,-0.375,
2120,-0.72,-0.41,
2121,-0.76,-0.42,
2122,-0.8,-0.465,
2123,-0.835,-0.515,
2124,-0.845,-0.53,
2125,-0.865,-0.54,
2126,-0.875,-0.505,
2127,-0.885,-0.495,
2128,-0.885,-0.495,
2129,-0.88,-0.48,
2130,-0.88,-0.49,
2131,-0.88,-0.52,
2132,-0.905,-0.54,
2133,-0.9,-0.54,
2134,-0.91,-0.535,
2135,-0.925,-0.54,
2136,-0.945,-0.55,
2137,-0.955,-0.54,
2138,-0.95,-0.555,
2139,-0.935,-0.54,
2140,-0.94,-0.545,
2141,-0.92,-0.545,
2142,-0.905,-0.535,
2143,-0.92,-0.54,
2144,-0.92,-0.53,
2145,-0.925,-0.51,
2146,-0.925,-0.525,
2147,-0.925,-0.525,
2148,-0.935,-0.545,
2149,-0.94,-0.525,
2150,-0.92,-0.545,
2151,-0.915,-0.525,
2152,-0.915,-0.54,
2153,-0.89,-0.52,
2154,-0.88,-0.52,
2155,-0.88,-0.52,
2156,-0.865,-0.525,
2157,-0.885,-0.56,
2158,-0.905,-0.595,
2159,-0.945,-0.64,
2160,-0.94,-0.68,
2161,-0.965,-0.72,
2162,-0.95,-0.77,
2163,-0.885,-0.85,
2164,-0.775,-0.955,
2165,-0.65,-1.045,
2166,-0.48,-1.185,
2167,-0.33,-1.285,
2168,-0.195,-1.395,
2169,-0.135,-1.44,
2170,-0.125,-1.41,
2171,-0.14,-1.33,
2172,-0.135,-1.19,
2173,-0.1,-1.06,
2174,0.03,-0.91,
2175,0.185,-0.725,R
2176,0.335,-0.5,
2177,0.415,-0.22,
2178,0.34,0.12,
2179,0.095,0.42,
2180,-0.285,0.575,
2181,-0.725,0.55,
2182,-1.135,0.38,
2183,-1.44,0.085,
2184,-1.65,-0.18,
2185,-1.765,-0.385,
2186,-1.815,-0.505,
2187,-1.83,-0.555,
2188,-1.85,-0.58,
2189,-1.87,-0.59,
2190,-1.88,-0.64,
2191,-1.9,-0.69,
2192,-1.91,-0.71,
2193,-1.925,-0.745,
2194,-1.945,-0.75,
2195,-1.945,-0.735,
2196,-1.935,-0.725,
2197,-1.92,-0.715,
2198,-1.895,-0.705,
2199,-1.85,-0.725,
2200,-1.765,-0.74,
2201,-1.66,-0.745,
2202,-1.51,-0.725,
2203,-1.37,-0.71,
2204,-1.24,-0.67,
2205,-1.135,-0.615,
2206,-1.055,-0.58,
2207,-1.015,-0.545,
2208,-1.02,-0.515,
2209,-1.005,-0.495,
2210,-1.01,-0.475,
2211,-1.01,-0.485,
2212,-0.98,-0.505,
2213,-0.96,-0.5,
2214,-0.96,-0.5,
2215,-0.935,-0.505,
2216,-0.93,-0.515,
2217,-0.93,-0.535,
2218,-0.93,-0.55,
2219,-0.945,-0.545,
2220,-0.945,-0.585,
2221,-0.985,-0.56,
2222,-0.965,-0.58,
2223,-0.955,-0.565,
2224,-0.955,-0.56,
2225,-0.95,-0.57,
2226,-0.94,-0.565,
2227,-0.945,-0.575,
2228,-0.95,-0.585,
2229,-0.975,-0.62,
2230,-0.975,-0.635,
2231,-0.995,-0.655,
2232,-1.0,-0.66,
2233,-1.005,-0.665,
2234,-1.01,-0.67,
2235,-1.02,-0.665,
2236,-1.025,-0.67,
2237,-1.035,-0.7,
2238,-1.02,-0.7,
2239,-1.02,-0.73,
2240,-1.04,-0.77,
2241,-1.055,-0.795,
2242,-1.07,-0.825,
2243,-1.08,-0.84,
2244,-1.09,-0.855,
2245,-1.095,-0.84,
2246,-1.115,-0.86,
2247,-1.125,-0.835,
2248,-1.13,-0.855,
2249,-1.105,-0.865,
2250,-1.115,-0.87,
2251,-1.12,-0.895,
2252,-1.12,-0.91,
2253,-1.14,-0.925,
2254,-1.145,-0.935,
2255,-1.16,-0.955,
2256,-1.18,-0.96,
2257,-1.185,-0.96,
2258,-1.2,-0.955,
2259,-1.19,-0.955,
2260,-1.185,-0.95,
2261,-1.185,-0.945,
2262,-1.175,-0.945,
2263,-1.165,-0.945,
2264,-1.16,-0.955,
2265,-1.16,-0.965,
2266,-1.17,-0.965,
2267,-1.175,-0.98,
2268,-1.175,-0.985,
2269,-1.155,-0.975,
2270,-1.145,-0.985,
2271,-1.135,-0.96,
2272,-1.105,-0.95,
2273,-1.095,-0.95,
2274,-1.08,-0.94,
2275,-1.05,-0.915,
2276,-1.02,-0.93,
2277,-1.01,-0.925,
2278,-0.99,-0.925,
2279,-0.965,-0.92,
2280,-0.955,-0.885,
2281,-0.955,-0.87,
2282,-0.94,-0.855,
2283,-0.92,-0.825,
2284,-0.91,-0.805,
2285,-0.89,-0.77,
2286,-0.87,-0.745,
2287,-0.86,-0.75,
2288,-0.835,-0.765,
2289,-0.85,-0.755,
2290,-0.85,-0.76,
2291,-0.835,-0.745,
2292,-0.825,-0.745,
2293,-0.825,-0.71,
2294,-0.805,-0.7,
2295,-0.81,-0.66,
2296,-0.795,-0.625,
2297,-0.77,-0.61,
2298,-0.765,-0.615,
2299,-0.765,-0.605,
2300,-0.765,-0.6,
2301,-0.77,-0.62,
2302,-0.76,-0.625,
2303,-0.77,-0.635,
2304,-0.765,-0.625,
2305,-0.76,-0.615,
2306,-0.755,-0.605,
2307,-0.76,-0.59,
2308,-0.745,-0.565,
2309,-0.74,-0.545,
2310,-0.735,-0.535,
2311,-0.735,-0.55,
2312,-0.75,-0.55,
2313,-0.76,-0.565,
2314,-0.76,-0.565,
2315,-0.76,-0.575,
2316,-0.77,-0.565,
2317,-0.765,-0.56,
2318,-0.76,-0.56,
2319,-0.755,-0.545,
2320,-0.74,-0.53,
2321,-0.74,-0.545,
2322,-0.74,-0.505,
2323,-0.74,-0.515,
2324,-0.76,-0.505,
2325,-0.765,-0.52,
2326,-0.775,-0.53,
2327,-0.8,-0.535,
2328,-0.8,-0.55,
2329,-0.795,-0.525,
2330,-0.785,-0.515,
2331,-0.78,-0.495,
2332,-0.785,-0.49,
2333,-0.785,-0.465,
2334,-0.79,-0.46,
2335,-0.78,-0.47,
2336,-0.81,-0.475,
2337,-0.805,-0.495,
2338,-0.84,-0.52,
2339,-0.845,-0.525,
2340,-0.86,-0.51,
2341,-0.875,-0.525,
2342,-0.87,-0.515,
2343,-0.875,-0.48,
2344,-0.86,-0.495,
2345,-0.855,-0.475,
2346,-0.845,-0.48,
2347,-0.835,-0.46,
2348,-0.835,-0.495,
2349,-0.85,-0.5,
2350,-0.865,-0.51,
2351,-0.87,-0.515,
2352,-0.875,-0.515,
2353,-0.875,-0.52,
2354,-0.865,-0.5,
2355,-0.87,-0.505,
2356,-0.87,-0.48,
2357,-0.875,-0.48,
2358,-0.865,-0.47,
2359,-0.86,-0.5,
2360,-0.85,-0.51,
2361,-0.855,-0.52,
2362,-0.865,-0.555,
2363,-0.875,-0.57,
2364,-0.88,-0.575,
2365,-0.89,-0.575,
2366,-0.885,-0.555,
2367,-0.88,-0.56,
2368,-0.88,-0.525,
2369,-0.875,-0.525,
2370,-0.87,-0.515,
2371,-0.86,-0.52,
2372,-0.87,-0.53,
2373,-0.875,-0.535,
2374,-0.885,-0.54,
2375,-0.88,-0.555,
2376,-0.895,-0.565,
2377,-0.895,-0.575,
2378,-0.9,-0.57,
2379,-0.89,-0.56,
2380,-0.89,-0.555,
2381,-0.88,-0.54,
2382,-0.855,-0.52,
2383,-0.83,-0.53,
2384,-0.815,-0.54,
2385,-0.815,-0.54,
2386,-0.81,-0.575,
2387,-0.81,-0.58,
2388,-0.82,-0.595,
2389,-0.805,-0.615,
2390,-0.78,-0.61,
2391,-0.795,-0.615,
2392,-0.76,-0.62,
2393,-0.745,-0.605,
2394,-0.72,-0.59,
2395,-0.715,-0.585,
2396,-0.71,-0.58,
2397,-0.68,-0.57,
2398,-0.67,-0.565,
2399,-0.675,-0.55,
2400,-0.69,-0.54,
2401,-0.71,-0.535,
2402,-0.73,-0.525,
2403,-0.735,-0.53,
2404,-0.72,-0.555,
2405,-0.745,-0.55,
2406,-0.745,-0.565,
2407,-0.72,-0.585,
2408,-0.715,-0.56,
2409,-0.685,-0.565,
2410,-0.69,-0.545,
2411,-0.685,-0.49,
2412,-0.67,-0.48,
2413,-0.67,-0.465,
2414,-0.68,-0.445,
2415,-0.715,-0.44,
2416,-0.72,-0.46,
2417,-0.75,-0.485,
2418,-0.775,-0.515,
2419,-0.785,-0.55,
2420,-0.805,-0.585,
2421,-0.84,-0.59,
2422,-0.865,-0.605,
2423,-0.86,-0.61,
2424,-0.89,-0.595,
2425,-0.915,-0.61,
2426,-0.905,-0.575,
2427,-0.905,-0.59,
2428,-0.885,-0.575,
2429,-0.875,-0.57,
2430,-0.88,-0.545,
2431,-0.865,-0.565,
2432,-0.885,-0.585,
2433,-0.905,-0.59,
2434,-0.905,-0.585,
2435,-0.89,-0.615,
2436,-0.905,-0.615,
2437,-0.91,-0.61,
2438,-0.92,-0.605,
2439,-0.915,-0.575,
2440,-0.9,-0.575,
2441,-0.92,-0.565,
2442,-0.885,-0.54,
2443,-0.885,-0.55,
2444,-0.895,-0.575,
2445,-0.895,-0.58,
2446,-0.9,-0.605,
2447,-0.91,-0.63,
2448,-0.94,-0.65,
2449,-0.93,-0.645,
2450,-0.93,-0.63,
2451,-0.915,-0.63,
2452,-0.91,-0.595,
2453,-0.895,-0.605,
2454,-0.89,-0.585,
2455,-0.875,-0.61,
2456,-0.885,-0.63,
2457,-0.895,-0.645,
2458,-0.93,-0.65,
2459,-0.925,-0.665,
2460,-0.92,-0.715,
2461,-0.915,-0.785,
2462,-0.855,-0.88,
2463,-0.755,-0.99,
2464,-0.625,-1.095,
2465,-0.48,-1.19,
2466,-0.305,-1.295,
2467,-0.195,-1.405,
2468,-0.15,-1.455,
2469,-0.125,-1.43,
2470,-0.165,-1.365,
2471,-0.19,-1.25,
2472,-0.16,-1.105,
2473,-0.07,-0.975,
2474,0.085,-0.825,
2475,0.245,-0.66,R
2476,0.37,-0.39,
2477,0.4,-0.09,
2478,0.275,0.21,
2479,-0.035,0.455,
2480,-0.43,0.55,
2481,-0.87,0.5,
2482,-1.25,0.3,
2483,-1.515,0.02,
2484,-1.695,-0.23,
2485,-1.795,-0.425,
2486,-1.845,-0.545,
2487,-1.91,-0.595,
2488,-1.96,-0.65,
2489,-1.985,-0.67,
2490,-2.0,-0.73,
2491,-2.02,-0.77,
2492,-2.01,-0.795,
2493,-2.015,-0.815,
2494,-2.015,-0.81,
2495,-2.01,-0.805,
2496,-2.005,-0.79,
2497,-1.985,-0.8,
2498,-1.93,-0.8,
2499,-1.84,-0.825,
2500,-1.71,-0.825,
2501,-1.555,-0.805,
2502,-1.395,-0.765,
2503,-1.255,-0.705,
2504,-1.155,-0.655,
2505,-1.07,-0.61,
2506,-1.025,-0.56,
2507,-1.01,-0.55,
2508,-1.01,-0.515,
2509,-1.02,-0.52,
2510,-1.015,-0.51,
2511,-1.005,-0.49,
2512,-0.975,-0.475,
2513,-0.975,-0.475,
2514,-0.95,-0.465,
2515,-0.945,-0.49,
2516,-0.955,-0.505,
2517,-0.97,-0.525,
2518,-0.995,-0.535,
2519,-1.0,-0.545,
2520,-0.98,-0.555,
2521,-0.99,-0.555,
2522,-0.995,-0.56,
2523,-1.0,-0.57,
2524,-0.975,-0.585,
2525,-0.97,-0.58,
2526,-0.95,-0.58,
2527,-0.975,-0.585,
2528,-0.98,-0.595,
2529,-1.02,-0.6,
2530,-1.04,-0.6,
2531,-1.035,-0.62,
2532,-1.05,-0.63,
2533,-1.065,-0.635,
2534,-1.07,-0.665,
2535,-1.06,-0.67,
2536,-1.06,-0.67,
2537,-1.065,-0.7,
2538,-1.075,-0.705,
2539,-1.105,-0.73,
2540,-1.085,-0.755,
2541,-1.11,-0.755,
2542,-1.12,-0.775,
2543,-1.125,-0.78,
2544,-1.155,-0.81,
2545,-1.165,-0.825,
2546,-1.18,-0.825,
2547,-1.175,-0.845,
2548,-1.185,-0.845,
2549,-1.185,-0.86,
2550,-1.175,-0.85,
2551,-1.185,-0.865,
2552,-1.19,-0.86,
2553,-1.19,-0.86,
2554,-1.21,-0.88,
2555,-1.205,-0.91,
2556,-1.23,-0.93,
2557,-1.23,-0.955,
2558,-1.235,-0.965,
2559,-1.22,-0.945,
2560,-1.215,-0.94,
2561,-1.2,-0.92,
2562,-1.19,-0.905,
2563,-1.16,-0.915,
2564,-1.15,-0.895,
2565,-1.155,-0.905,
2566,-1.155,-0.91,
2567,-1.13,-0.9,
2568,-1.125,-0.885,
2569,-1.13,-0.87,
2570,-1.12,-0.845,
2571,-1.095,-0.83,
2572,-1.09,-0.825,
2573,-1.05,-0.835,
2574,-1.03,-0.805,
2575,-1.005,-0.785,
2576,-0.985,-0.77,
2577,-0.96,-0.745,
2578,-0.97,-0.73,
2579,-0.96,-0.745,
2580,-0.955,-0.74,
2581,-0.94,-0.715,
2582,-0.935,-0.685,
2583,-0.92,-0.655,
2584,-0.895,-0.625,
2585,-0.895,-0.59,
2586,-0.885,-0.57,
2587,-0.89,-0.58,
2588,-0.9,-0.58,
2589,-0.895,-0.575,
2590,-0.885,-0.575,
2591,-0.885,-0.595,
2592,-0.905,-0.58,
2593,-0.89,-0.575,
2594,-0.875,-0.565,
2595,-0.875,-0.55,
2596,-0.86,-0.53,
2597,-0.86,-0.515,
2598,-0.845,-0.49,
2599,-0.85,-0.49,
2600,-0.845,-0.49,
2601,-0.845,-0.485,
2602,-0.845,-0.49,
2603,-0.85,-0.505,
2604,-0.87,-0.505,
2605,-0.885,-0.51,
2606,-0.885,-0.52,
2607,-0.875,-0.505,
2608,-0.865,-0.485,
2609,-0.855,-0.46,
2610,-0.86,-0.46,
2611,-0.865,-0.475,
2612,-0.85,-0.485,
2613,-0.86,-0.5,
2614,-0.86,-0.495,
2615,-0.885,-0.535,
2616,-0.88,-0.53,
2617,-0.895,-0.535,
2618,-0.905,-0.515,
2619,-0.9,-0.47,
2620,-0.885,-0.475,
2621,-0.885,-0.47,
2622,-0.865,-0.465,
2623,-0.875,-0.48,
2624,-0.875,-0.47,
2625,-0.88,-0.475,
2626,-0.895,-0.51,
2627,-0.9,-0.51,
2628,-0.91,-0.525,
2629,-0.92,-0.535,
2630,-0.915,-0.555,
2631,-0.925,-0.515,
2632,-0.91,-0.505,
2633,-0.89,-0.46,
2634,-0.895,-0.465,
2635,-0.885,-0.475,
2636,-0.89,-0.49,
2637,-0.89,-0.5,
2638,-0.9,-0.525,
2639,-0.895,-0.5,
2640,-0.905,-0.515,
2641,-0.875,-0.515,
2642,-0.9,-0.5,
2643,-0.9,-0.48,
2644,-0.885,-0.465,
2645,-0.89,-0.46,
2646,-0.9,-0.43,
2647,-0.875,-0.45,
2648,-0.895,-0.465,
2649,-0.895,-0.48,
2650,-0.875,-0.51,
2651,-0.885,-0.52,
2652,-0.885,-0.51,
2653,-0.885,-0.49,
2654,-0.885,-0.475,
2655,-0.875,-0.465,
2656,-0.855,-0.46,
2657,-0.86,-0.45,
2658,-0.84,-0.445,
2659,-0.845,-0.45,
2660,-0.855,-0.465,
2661,-0.865,-0.475,
2662,-0.88,-0.48,
2663,-0.89,-0.48,
2664,-0.885,-0.495,
2665,-0.885,-0.5,
2666,-0.875,-0.49,
2667,-0.875,-0.49,
2668,-0.88,-0.475,
2669,-0.86,-0.465,
2670,-0.835,-0.445,
2671,-0.85,-0.445,
2672,-0.84,-0.46,
2673,-0.835,-0.47,
2674,-0.84,-0.49,
2675,-0.84,-0.48,
2676,-0.845,-0.47,
2677,-0.84,-0.485,
2678,-0.855,-0.485,
2679,-0.835,-0.47,
2680,-0.82,-0.45,
2681,-0.795,-0.44,
2682,-0.785,-0.44,
2683,-0.77,-0.465,
2684,-0.765,-0.485,
2685,-0.76,-0.5,
2686,-0.775,-0.54,
2687,-0.765,-0.525,
2688,-0.765,-0.53,
2689,-0.76,-0.51,
2690,-0.74,-0.5,
2691,-0.715,-0.475,
2692,-0.685,-0.43,
2693,-0.68,-0.41,
2694,-0.675,-0.37,
2695,-0.705,-0.38,
2696,-0.715,-0.405,
2697,-0.73,-0.425,
2698,-0.755,-0.445,
2699,-0.765,-0.47,
2700,-0.775,-0.475,
2701,-0.755,-0.46,
2702,-0.745,-0.42,
2703,-0.72,-0.385,
2704,-0.695,-0.335,
2705,-0.685,-0.3,
2706,-0.68,-0.265,
2707,-0.685,-0.29,
2708,-0.715,-0.305,
2709,-0.75,-0.34,
2710,-0.785,-0.395,
2711,-0.805,-0.43,
2712,-0.83,-0.45,
2713,-0.845,-0.465,
2714,-0.84,-0.45,
2715,-0.84,-0.435,
2716,-0.865,-0.395,
2717,-0.87,-0.395,
2718,-0.87,-0.38,
2719,-0.865,-0.405,
2720,-0.88,-0.435,
2721,-0.89,-0.46,
2722,-0.895,-0.475,
2723,-0.905,-0.49,
2724,-0.915,-0.49,
2725,-0.915,-0.505,
2726,-0.92,-0.495,
2727,-0.91,-0.475,
2728,-0.9,-0.46,
2729,-0.885,-0.435,
2730,-0.89,-0.43,
2731,-0.89,-0.425,
2732,-0.89,-0.435,
2733,-0.905,-0.465,
2734,-0.925,-0.46,
2735,-0.92,-0.47,
2736,-0.925,-0.485,
2737,-0.93,-0.5,
2738,-0.925,-0.505,
2739,-0.91,-0.47,
2740,-0.905,-0.47,
2741,-0.91,-0.46,
2742,-0.9,-0.45,
2743,-0.89,-0.465,
2744,-0.885,-0.47,
2745,-0.905,-0.485,
2746,-0.92,-0.5,
2747,-0.925,-0.505,
2748,-0.94,-0.515,
2749,-0.95,-0.525,
2750,-0.945,-0.55,
2751,-0.955,-0.575,
2752,-0.945,-0.625,
2753,-0.92,-0.69,
2754,-0.87,-0.79,
2755,-0.765,-0.91,
2756,-0.645,-1.04,
2757,-0.5,-1.17,
2758,-0.375,-1.29,
2759,-0.26,-1.38,
2760,-0.215,-1.38,
2761,-0.22,-1.325,
2762,-0.245,-1.215,
2763,-0.235,-1.035,
2764,-0.195,-0.865,
2765,-0.055,-0.725,
2766,0.095,-0.55,R
2767,0.25,-0.315,
2768,0.32,-0.025,
2769,0.22,0.305,
2770,-0.035,0.55,
2771,-0.415,0.66,
2772,-0.83,0.64,
2773,-1.16,0.425,
2774,-1.41,0.175,
2775,-1.54,-0.055,
2776,-1.605,-0.23,
2777,-1.64,-0.32,
2778,-1.69,-0.355,
2779,-1.725,-0.425,
2780,-1.785,-0.47,
2781,-1.825,-0.52,
2782,-1.845,-0.57,
2783,-1.865,-0.61,
2784,-1.88,-0.61,
2785,-1.885,-0.605,
2786,-1.895,-0.59,
2787,-1.89,-0.6,
2788,-1.87,-0.585,
2789,-1.83,-0.6,
2790,-1.755,-0.61,
2791,-1.655,-0.625,
2792,-1.525,-0.64,
2793,-1.405,-0.62,
2794,-1.27,-0.6,
2795,-1.145,-0.54,
2796,-1.075,-0.49,
2797,-1.035,-0.445,
2798,-1.005,-0.405,
2799,-1.01,-0.395,
2800,-1.015,-0.395,
2801,-1.005,-0.395,
2802,-0.975,-0.385,
2803,-0.95,-0.395,
2804,-0.93,-0.4,
2805,-0.935,-0.395,
2806,-0.945,-0.4,
2807,-0.95,-0.41,
2808,-0.94,-0.41,
2809,-0.93,-0.425,
2810,-0.92,-0.425,
2811,-0.925,-0.425,
2812,-0.945,-0.45,
2813,-0.945,-0.435,
2814,-0.95,-0.45,
2815,-0.94,-0.43,
2816,-0.955,-0.445,
2817,-0.96,-0.455,
2818,-0.95,-0.5,
2819,-0.97,-0.525,
2820,-0.96,-0.55,
2821,-0.97,-0.57,
2822,-0.975,-0.575,
2823,-0.975,-0.58,
2824,-0.98,-0.58,
2825,-0.985,-0.58,
2826,-0.97,-0.605,
2827,-0.985,-0.635,
2828,-1.015,-0.65,
2829,-1.04,-0.67,
2830,-1.065,-0.68,
2831,-1.085,-0.72,
2832,-1.07,-0.725,
2833,-1.07,-0.755,
2834,-1.07,-0.74,
2835,-1.07,-0.75,
2836,-1.07,-0.75,
2837,-1.08,-0.755,
2838,-1.095,-0.79,
2839,-1.1,-0.8,
2840,-1.11,-0.83,
2841,-1.145,-0.86,
2842,-1.145,-0.85,
2843,-1.165,-0.9,
2844,-1.16,-0.88,
2845,-1.18,-0.875,
2846,-1.175,-0.905,
2847,-1.185,-0.88,
2848,-1.185,-0.91,
2849,-1.185,-0.895,
2850,-1.17,-0.88,
2851,-1.16,-0.91,
2852,-1.16,-0.905,
2853,-1.165,-0.905,
2854,-1.16,-0.935,
2855,-1.165,-0.945,
2856,-1.17,-0.945,
2857,-1.175,-0.935,
2858,-1.165,-0.925,
2859,-1.15,-0.89,
2860,-1.12,-0.865,
2861,-1.105,-0.85,
2862,-1.085,-0.83,
2863,-1.06,-0.84,
2864,-1.04,-0.83,
2865,-1.03,-0.835,
2866,-1.03,-0.835,
2867,-1.035,-0.81,
2868,-1.005,-0.79,
2869,-0.995,-0.77,
2870,-0.98,-0.75,
2871,-0.96,-0.715,
2872,-0.93,-0.695,
2873,-0.92,-0.685,
2874,-0.89,-0.675,
2875,-0.88,-0.67,
2876,-0.87,-0.66,
2877,-0.875,-0.66,
2878,-0.87,-0.645,
2879,-0.855,-0.65,
2880,-0.87,-0.625,
2881,-0.87,-0.645,
2882,-0.875,-0.635,
2883,-0.87,-0.625,
2884,-0.84,-0.575,
2885,-0.825,-0.57,
2886,-0.83,-0.57,
2887,-0.805,-0.56,
2888,-0.815,-0.57,
2889,-0.825,-0.545,
2890,-0.835,-0.56,
2891,-0.85,-0.56,
2892,-0.845,-0.56,
2893,-0.84,-0.54,
2894,-0.825,-0.545,
2895,-0.83,-0.51,
2896,-0.815,-0.52,
2897,-0.81,-0.5,
2898,-0.8,-0.5,
2899,-0.805,-0.495,
2900,-0.8,-0.495,
2901,-0.81,-0.505,
2902,-0.82,-0.525,
2903,-0.845,-0.53,
2904,-0.855,-0.525,
2905,-0.845,-0.52,
2906,-0.85,-0.53,
2907,-0.84,-0.505,
2908,-0.83,-0.5,
2909,-0.835,-0.49,
2910,-0.835,-0.495,
2911,-0.83,-0.5,
2912,-0.835,-0.495,
2913,-0.84,-0.495,
2914,-0.86,-0.515,
2915,-0.865,-0.525,
2916,-0.885,-0.52,
2917,-0.895,-0.52,
2918,-0.885,-0.53,
2919,-0.895,-0.535,
2920,-0.89,-0.53,
2921,-0.885,-0.52,
2922,-0.885,-0.51,
2923,-0.865,-0.52,
2924,-0.84,-0.52,
2925,-0.815,-0.515,
2926,-0.82,-0.535,
2927,-0.845,-0.535,
2928,-0.865,-0.545,
2929,-0.915,-0.545,
2930,-0.945,-0.54,
2931,-0.915,-0.52,
2932,-0.88,-0.51,
2933,-0.865,-0.48,
2934,-0.835,-0.48,
2935,-0.855,-0.49,
2936,-0.88,-0.51,
2937,-0.92,-0.52,
2938,-0.935,-0.51,
2939,-0.94,-0.51,
2940,-0.935,-0.5,
2941,-0.945,-0.505,
2942,-0.93,-0.495,
2943,-0.935,-0.505,
2944,-0.915,-0.51,
2945,-0.91,-0.515,
2946,-0.885,-0.53,
2947,-0.885,-0.52,
2948,-0.895,-0.515,
2949,-0.89,-0.545,
2950,-0.905,-0.55,
2951,-0.925,-0.54,
2952,-0.9,-0.535,
2953,-0.91,-0.49,
2954,-0.91,-0.48,
2955,-0.895,-0.485,
2956,-0.885,-0.495,
2957,-0.865,-0.5,
2958,-0.855,-0.51,
2959,-0.85,-0.515,
2960,-0.855,-0.525,
2961,-0.865,-0.54,
2962,-0.87,-0.55,
2963,-0.87,-0.565,
2964,-0.85,-0.565,
2965,-0.865,-0.545,
2966,-0.83,-0.54,
2967,-0.835,-0.51,
2968,-0.805,-0.51,
2969,-0.765,-0.495,
2970,-0.77,-0.51,
2971,-0.75,-0.53,
2972,-0.745,-0.54,
2973,-0.735,-0.555,
2974,-0.745,-0.57,
2975,-0.745,-0.57,
2976,-0.76,-0.565,
2977,-0.775,-0.55,
2978,-0.78,-0.525,
2979,-0.765,-0.485,
2980,-0.76,-0.445,
2981,-0.75,-0.435,
2982,-0.735,-0.42,
2983,-0.765,-0.43,
2984,-0.775,-0.455,
2985,-0.765,-0.455,
2986,-0.76,-0.475,
2987,-0.735,-0.49,
2988,-0.715,-0.485,
2989,-0.73,-0.49,
2990,-0.725,-0.46,
2991,-0.75,-0.435,
2992,-0.75,-0.4,
2993,-0.79,-0.38,
2994,-0.795,-0.345,
2995,-0.83,-0.385,
2996,-0.895,-0.41,
2997,-0.92,-0.445,
2998,-0.925,-0.505,
2999,-0.93,-0.53,
3000,-0.945,-0.54,
3001,-0.94,-0.57,
3002,-0.935,-0.565,
3003,-0.935,-0.545,
3004,-0.94,-0.535,
3005,-0.95,-0.515,
3006,-0.98,-0.495,
3007,-0.965,-0.48,
3008,-0.96,-0.47,
3009,-0.965,-0.495,
3010,-0.98,-0.52,
3011,-0.995,-0.535,
3012,-0.99,-0.55,
3013,-0.985,-0.545,
3014,-0.97,-0.545,
3015,-0.98,-0.525,
3016,-0.955,-0.51,
3017,-0.975,-0.51,
3018,-0.96,-0.505,
3019,-0.97,-0.525,
3020,-0.965,-0.535,
3021,-0.985,-0.555,
3022,-0.99,-0.565,
3023,-1.0,-0.58,
3024,-1.01,-0.56,
3025,-1.035,-0.57,
3026,-1.04,-0.58,
3027,-1.035,-0.58,
3028,-1.02,-0.56,
3029,-1.015,-0.555,
3030,-1.005,-0.56,
3031,-1.0,-0.565,
3032,-0.995,-0.56,
3033,-1.015,-0.55,
3034,-1.025,-0.555,
3035,-1.04,-0.575,
3036,-1.065,-0.605,
3037,-1.095,-0.655,
3038,-1.115,-0.73,
3039,-1.12,-0.795,
3040,-1.095,-0.895,
3041,-1.065,-1.02,
3042,-0.98,-1.18,
3043,-0.885,-1.345,
3044,-0.76,-1.495,
3045,-0.66,-1.63,
3046,-0.61,-1.68,
3047,-0.59,-1.655,
3048,-0.585,-1.545,
3049,-0.575,-1.41,
3050,-0.505,-1.24,
3051,-0.37,-1.065,
3052,-0.18,-0.92,
3053,0.025,-0.74,
3054,0.19,-0.485,R
3055,0.23,-0.175,
3056,0.175,0.125,
3057,-0.015,0.375,
3058,-0.31,0.485,
3059,-0.65,0.46,
3060,-1.0,0.325,
3061,-1.28,0.125,
3062,-1.475,-0.07,
3063,-1.595,-0.21,
3064,-1.665,-0.285,
3065,-1.695,-0.34,
3066,-1.735,-0.36,
3067,-1.785,-0.4,
3068,-1.86,-0.43,
3069,-1.905,-0.48,
3070,-1.93,-0.505,
3071,-1.95,-0.53,
3072,-1.965,-0.545,
3073,-1.975,-0.555,
3074,-1.94,-0.57,
3075,-1.935,-0.58,
3076,-1.895,-0.615,
3077,-1.845,-0.615,
3078,-1.765,-0.64,
3079,-1.665,-0.65,
3080,-1.535,-0.63,
3081,-1.405,-0.595,
3082,-1.3,-0.57,
3083,-1.21,-0.535,
3084,-1.145,-0.505,
3085,-1.125,-0.5,
3086,-1.11,-0.475,
3087,-1.125,-0.47,
3088,-1.12,-0.495,
3089,-1.11,-0.48,
3090,-1.1,-0.475,
3091,-1.09,-0.49,
3092,-1.08,-0.475,
3093,-1.08,-0.45,
3094,-1.08,-0.445,
3095,-1.07,-0.455,
3096,-1.09,-0.48,
3097,-1.085,-0.49,
3098,-1.08,-0.485,
3099,-1.065,-0.495,
3100,-1.06,-0.47,
3101,-1.07,-0.51,
3102,-1.075,-0.51,
3103,-1.06,-0.54,
3104,-1.075,-0.565,
3105,-1.08,-0.595,
3106,-1.095,-0.63,
3107,-1.12,-0.62,
3108,-1.13,-0.62,
3109,-1.15,-0.61,
3110,-1.14,-0.605,
3111,-1.15,-0.605,
3112,-1.145,-0.61,
3113,-1.145,-0.61,
3114,-1.14,-0.645,
3115,-1.155,-0.685,
3116,-1.18,-0.705,
3117,-1.185,-0.72,
3118,-1.185,-0.725,
3119,-1.175,-0.735,
3120,-1.185,-0.73,
3121,-1.22,-0.75,
3122,-1.24,-0.775,
3123,-1.265,-0.76,
3124,-1.275,-0.77,
3125,-1.255,-0.8,
3126,-1.265,-0.815,
3127,-1.25,-0.825,
3128,-1.245,-0.83,
3129,-1.245,-0.82,
3130,-1.245,-0.81,
3131,-1.255,-0.835,
3132,-1.28,-0.86,
3133,-1.3,-0.87,
3134,-1.305,-0.885,
3135,-1.295,-0.875,
3136,-1.29,-0.875,
3137,-1.295,-0.865,
3138,-1.295,-0.865,
3139,-1.28,-0.845,
3140,-1.265,-0.86,
3141,-1.265,-0.855,
3142,-1.26,-0.845,
3143,-1.275,-0.875,
3144,-1.275,-0.885,
3145,-1.295,-0.905,
3146,-1.29,-0.915,
3147,-1.27,-0.905,
3148,-1.26,-0.895,
3149,-1.235,-0.86,
3150,-1.21,-0.85,
3151,-1.185,-0.84,
3152,-1.185,-0.835,
3153,-1.175,-0.815,
3154,-1.16,-0.8,
3155,-1.16,-0.775,
3156,-1.14,-0.775,
3157,-1.135,-0.79,
3158,-1.135,-0.785,
3159,-1.105,-0.76,
3160,-1.055,-0.75,
3161,-1.05,-0.73,
3162,-1.02,-0.7,
3163,-0.995,-0.665,
3164,-0.98,-0.65,
3165,-0.965,-0.645,
3166,-0.985,-0.645,
3167,-1.005,-0.67,
3168,-1.02,-0.665,
3169,-1.04,-0.685,
3170,-1.025,-0.655,
3171,-1.015,-0.64,
3172,-1.01,-0.615,
3173,-1.0,-0.605,
3174,-0.985,-0.585,
3175,-0.96,-0.575,
3176,-0.955,-0.555,
3177,-0.955,-0.555,
3178,-0.955,-0.56,
3179,-0.985,-0.56,
3180,-0.995,-0.595,
3181,-0.99,-0.6,
3182,-1.01,-0.59,
3183,-0.99,-0.585,
3184,-0.985,-0.56,
3185,-0.985,-0.53,
3186,-0.975,-0.5,
3187,-0.96,-0.485,
3188,-0.945,-0.495,
3189,-0.935,-0.525,
3190,-0.955,-0.54,
3191,-0.995,-0.565,
3192,-1.025,-0.585,
3193,-1.045,-0.575,
3194,-1.065,-0.565,
3195,-1.065,-0.545,
3196,-1.035,-0.52,
3197,-0.995,-0.5,
3198,-0.97,-0.505,
3199,-0.97,-0.515,
3200,-0.995,-0.525,
3201,-1.03,-0.54,
3202,-1.05,-0.57,
3203,-1.055,-0.575,
3204,-1.065,-0.58,
3205,-1.035,-0.58,
3206,-1.015,-0.58,
3207,-1.0,-0.56,
3208,-1.0,-0.545,
3209,-1.005,-0.535,
3210,-1.01,-0.54,
3211,-1.04,-0.555,
3212,-1.045,-0.57,
3213,-1.065,-0.625,
3214,-1.08,-0.63,
3215,-1.065,-0.645,
3216,-1.05,-0.63,
3217,-1.04,-0.59,
3218,-1.025,-0.565,
3219,-1.025,-0.515,
3220,-1.025,-0.51,
3221,-1.025,-0.5,
3222,-1.04,-0.49,
3223,-1.04,-0.515,
3224,-1.04,-0.535,
3225,-1.06,-0.575,
3226,-1.075,-0.595,
3227,-1.08,-0.625,
3228,-1.07,-0.615,
3229,-1.06,-0.6,
3230,-1.065,-0.575,
3231,-1.045,-0.57,
3232,-1.04,-0.52,
3233,-1.055,-0.525,
3234,-1.055,-0.53,
3235,-1.06,-0.575,
3236,-1.06,-0.575,
3237,-1.1,-0.585,
3238,-1.115,-0.615,
3239,-1.13,-0.625,
3240,-1.15,-0.625,
3241,-1.155,-0.605,
3242,-1.125,-0.6,
3243,-1.075,-0.55,
3244,-1.04,-0.54,
3245,-1.02,-0.545,
3246,-1.035,-0.54,
3247,-1.06,-0.56,
3248,-1.09,-0.56,
3249,-1.115,-0.545,
3250,-1.11,-0.54,
3251,-1.115,-0.535,
3252,-1.095,-0.525,
3253,-1.105,-0.54,
3254,-1.115,-0.555,
3255,-1.125,-0.55,
3256,-1.125,-0.55,
3257,-1.095,-0.535,
3258,-1.085,-0.51,
3259,-1.075,-0.5,
3260,-1.07,-0.515,
3261,-1.07,-0.52,
3262,-1.09,-0.535,
3263,-1.11,-0.55,
3264,-1.11,-0.57,
3265,-1.125,-0.56,
3266,-1.145,-0.575,
3267,-1.13,-0.58,
3268,-1.105,-0.565,
3269,-1.1,-0.58,
3270,-1.095,-0.595,
3271,-1.1,-0.575,
3272,-1.1,-0.58,
3273,-1.1,-0.55,
3274,-1.075,-0.545,
3275,-1.075,-0.525,
3276,-1.06,-0.545,
3277,-1.065,-0.56,
3278,-1.065,-0.6,
3279,-1.07,-0.63,
3280,-1.07,-0.645,
3281,-1.06,-0.64,
3282,-1.06,-0.62,
3283,-1.015,-0.585,
3284,-1.025,-0.58,
3285,-1.015,-0.56,
3286,-0.985,-0.585,
3287,-0.97,-0.6,
3288,-0.955,-0.6,
3289,-0.955,-0.585,
3290,-0.945,-0.56,
3291,-0.945,-0.525,
3292,-0.945,-0.5,
3293,-0.965,-0.495,
3294,-0.975,-0.505,
3295,-0.995,-0.515,
3296,-1.01,-0.545,
3297,-1.01,-0.575,
3298,-1.025,-0.585,
3299,-1.01,-0.59,
3300,-0.99,-0.565,
3301,-0.96,-0.505,
3302,-0.94,-0.455,
3303,-0.935,-0.41,
3304,-0.94,-0.36,
3305,-0.97,-0.385,
3306,-1.02,-0.39,
3307,-1.06,-0.44,
3308,-1.09,-0.49,
3309,-1.11,-0.495,
3310,-1.11,-0.54,
3311,-1.13,-0.555,
3312,-1.155,-0.56,
3313,-1.16,-0.565,
3314,-1.165,-0.57,
3315,-1.185,-0.55,
3316,-1.195,-0.535,
3317,-1.19,-0.545,
3318,-1.2,-0.525,
3319,-1.19,-0.52,
3320,-1.195,-0.54,
3321,-1.2,-0.58,
3322,-1.18,-0.58,
3323,-1.175,-0.6,
3324,-1.185,-0.61,
3325,-1.21,-0.615,
3326,-1.225,-0.595,
3327,-1.245,-0.59,
3328,-1.245,-0.585,
3329,-1.24,-0.58,
3330,-1.19,-0.58,
3331,-1.18,-0.575,
3332,-1.165,-0.61,
3333,-1.205,-0.59,
3334,-1.2,-0.59,
3335,-1.225,-0.59,
3336,-1.22,-0.625,
3337,-1.23,-0.62,
3338,-1.235,-0.635,
3339,-1.225,-0.62,
3340,-1.205,-0.61,
3341,-1.185,-0.595,
3342,-1.155,-0.57,
3343,-1.15,-0.555,
3344,-1.18,-0.575,
3345,-1.21,-0.61,
3346,-1.245,-0.65,
3347,-1.285,-0.7,
3348,-1.325,-0.76,
3349,-1.33,-0.825,
3350,-1.31,-0.88,
3351,-1.24,-0.96,
3352,-1.125,-1.04,
3353,-0.96,-1.145,
3354,-0.815,-1.27,
3355,-0.685,-1.405,
3356,-0.62,-1.52,
3357,-0.56,-1.55,
3358,-0.565,-1.545,
3359,-0.585,-1.435,
3360,-0.58,-1.31,
3361,-0.55,-1.145,
3362,-0.43,-0.99,
3363,-0.27,-0.82,
3364,-0.1,-0.64,R
3365,0.04,-0.415,
3366,0.05,-0.13,
3367,-0.04,0.15,
3368,-0.345,0.355,
3369,-0.765,0.415,
3370,-1.18,0.33,
3371,-1.56,0.095,
3372,-1.845,-0.155,
3373,-2.03,-0.4,
3374,-2.165,-0.525,
3375,-2.215,-0.61,
3376,-2.245,-0.64,
3377,-2.24,-0.665,
3378,-2.24,-0.715,
3379,-2.21,-0.76,
3380,-2.215,-0.815,
3381,-2.205,-0.83,
3382,-2.215,-0.84,
3383,-2.23,-0.815,
3384,-2.26,-0.82,
3385,-2.26,-0.81,
3386,-2.235,-0.825,
3387,-2.19,-0.825,
3388,-2.09,-0.83,
3389,-1.955,-0.845,
3390,-1.815,-0.815,
3391,-1.685,-0.785,
3392,-1.575,-0.735,
3393,-1.51,-0.67,
3394,-1.43,-0.62,
3395,-1.395,-0.6,
3396,-1.385,-0.585,
3397,-1.385,-0.58,
3398,-1.375,-0.595,
3399,-1.38,-0.595,
3400,-1.35,-0.615,
3401,-1.315,-0.605,
3402,-1.29,-0.585,
3403,-1.265,-0.57,
3404,-1.265,-0.575,
3405,-1.27,-0.56,
3406,-1.29,-0.575,
3407,-1.305,-0.59,
3408,-1.3,-0.595,
3409,-1.325,-0.595,
3410,-1.345,-0.6,
3411,-1.38,-0.595,
3412,-1.365,-0.6,
3413,-1.375,-0.63,
3414,-1.335,-0.645,
3415,-1.32,-0.65,
3416,-1.305,-0.66,
3417,-1.305,-0.66,
3418,-1.345,-0.67,
3419,-1.36,-0.67,
3420,-1.36,-0.675,
3421,-1.385,-0.685,
3422,-1.39,-0.695,
3423,-1.385,-0.71,
3424,-1.38,-0.73,
3425,-1.365,-0.745,
3426,-1.38,-0.73,
3427,-1.41,-0.76,
3428,-1.43,-0.79,
3429,-1.44,-0.81,
3430,-1.445,-0.845,
3431,-1.455,-0.87,
3432,-1.465,-0.86,
3433,-1.48,-0.86,
3434,-1.5,-0.845,
3435,-1.525,-0.875,
3436,-1.525,-0.865,
3437,-1.54,-0.89,
3438,-1.525,-0.91,
3439,-1.5,-0.91,
3440,-1.515,-0.925,
3441,-1.5,-0.95,
3442,-1.495,-0.99,
3443,-1.495,-1.0,
3444,-1.535,-1.0,
3445,-1.54,-1.0,
3446,-1.55,-0.995,
3447,-1.545,-0.99,
3448,-1.535,-0.975,
3449,-1.52,-0.985,
3450,-1.495,-0.995,
3451,-1.49,-0.99,
3452,-1.495,-1.0,
3453,-1.505,-1.0,
3454,-1.5,-1.0,
3455,-1.51,-1.015,
3456,-1.505,-1.01,
3457,-1.515,-1.0,
3458,-1.52,-0.995,
3459,-1.505,-0.96,
3460,-1.475,-0.94,
3461,-1.425,-0.9,
3462,-1.375,-0.9,
3463,-1.34,-0.885,
3464,-1.315,-0.915,
3465,-1.315,-0.89,
3466,-1.33,-0.9,
3467,-1.36,-0.91,
3468,-1.395,-0.885,
3469,-1.385,-0.88,
3470,-1.355,-0.865,
3471,-1.315,-0.83,
3472,-1.255,-0.81,
3473,-1.22,-0.775,
3474,-1.205,-0.75,
3475,-1.175,-0.74,
3476,-1.17,-0.72,
3477,-1.175,-0.7,
3478,-1.16,-0.67,
3479,-1.165,-0.645,
3480,-1.16,-0.655,
3481,-1.175,-0.65,
3482,-1.185,-0.66,
3483,-1.205,-0.68,
3484,-1.215,-0.685,
3485,-1.21,-0.685,
3486,-1.205,-0.67,
3487,-1.19,-0.635,
3488,-1.175,-0.605,
3489,-1.185,-0.58,
3490,-1.185,-0.585,
3491,-1.175,-0.605,
3492,-1.18,-0.635,
3493,-1.185,-0.645,
3494,-1.185,-0.64,
3495,-1.2,-0.625,
3496,-1.195,-0.6,
3497,-1.175,-0.6,
3498,-1.165,-0.585,
3499,-1.15,-0.575,
3500,-1.16,-0.59,
3501,-1.145,-0.595,
3502,-1.155,-0.615,
3503,-1.175,-0.625,
3504,-1.16,-0.635,
3505,-1.185,-0.65,
3506,-1.2,-0.645,
3507,-1.21,-0.645,
3508,-1.175,-0.63,
3509,-1.165,-0.63,
3510,-1.185,-0.61,
3511,-1.175,-0.6,
3512,-1.165,-0.59,
3513,-1.175,-0.58,
3514,-1.205,-0.59,
3515,-1.235,-0.61,
3516,-1.26,-0.615,
3517,-1.245,-0.645,
3518,-1.245,-0.64,
3519,-1.24,-0.66,
3520,-1.205,-0.645,
3521,-1.19,-0.635,
3522,-1.175,-0.61,
3523,-1.18,-0.645,
3524,-1.19,-0.615,
3525,-1.22,-0.62,
3526,-1.235,-0.61,
3527,-1.25,-0.615,
3528,-1.24,-0.625,
3529,-1.235,-0.645,
3530,-1.23,-0.665,
3531,-1.205,-0.65,
3532,-1.205,-0.635,
3533,-1.18,-0.61,
3534,-1.2,-0.62,
3535,-1.19,-0.6,
3536,-1.185,-0.615,
3537,-1.165,-0.605,
3538,-1.15,-0.615,
3539,-1.15,-0.62,
3540,-1.18,-0.625,
3541,-1.2,-0.635,
3542,-1.24,-0.645,
3543,-1.255,-0.675,
3544,-1.255,-0.66,
3545,-1.23,-0.675,
3546,-1.225,-0.65,
3547,-1.205,-0.645,
3548,-1.175,-0.615,
3549,-1.195,-0.605,
3550,-1.185,-0.59,
3551,-1.165,-0.615,
3552,-1.17,-0.615,
3553,-1.165,-0.63,
3554,-1.18,-0.66,
3555,-1.19,-0.655,
3556,-1.2,-0.66,
3557,-1.19,-0.655,
3558,-1.195,-0.645,
3559,-1.195,-0.65,
3560,-1.18,-0.655,
3561,-1.185,-0.64,
3562,-1.185,-0.645,
3563,-1.175,-0.64,
3564,-1.17,-0.615,
3565,-1.16,-0.63,
3566,-1.175,-0.635,
3567,-1.185,-0.62,
3568,-1.18,-0.61,
3569,-1.185,-0.595,
3570,-1.195,-0.59,
3571,-1.17,-0.58,
3572,-1.175,-0.59,
3573,-1.15,-0.635,
3574,-1.15,-0.645,
3575,-1.155,-0.655,
3576,-1.16,-0.66,
3577,-1.16,-0.645,
3578,-1.16,-0.64,
3579,-1.17,-0.62,
3580,-1.16,-0.62,
3581,-1.135,-0.6,
3582,-1.13,-0.62,
3583,-1.11,-0.61,
3584,-1.125,-0.625,
3585,-1.135,-0.615,
3586,-1.16,-0.61,
3587,-1.175,-0.61,
3588,-1.18,-0.63,
3589,-1.16,-0.63,
3590,-1.145,-0.645,
3591,-1.115,-0.645,
3592,-1.095,-0.63,
3593,-1.085,-0.625,
3594,-1.075,-0.615,
3595,-1.05,-0.63,
3596,-1.055,-0.66,
3597,-1.055,-0.685,
3598,-1.04,-0.695,
3599,-1.035,-0.69,
3600,-1.015,-0.675,
3601,-0.98,-0.665,
3602,-0.98,-0.645,
3603,-0.96,-0.625,
3604,-0.955,-0.625,
3605,-0.965,-0.62,
3606,-0.965,-0.605,
3607,-0.995,-0.615,
3608,-1.03,-0.61,
3609,-1.025,-0.6,
3610,-1.035,-0.61,
3611,-1.05,-0.595,
3612,-1.015,-0.595,
3613,-0.97,-0.56,
3614,-0.94,-0.535,
3615,-0.94,-0.51,
3616,-0.95,-0.5,
3617,-0.965,-0.495,
3618,-0.99,-0.495,
3619,-1.005,-0.51,
3620,-1.045,-0.535,
3621,-1.095,-0.57,
3622,-1.12,-0.615,
3623,-1.115,-0.65,
3624,-1.135,-0.675,
3625,-1.145,-0.69,
3626,-1.16,-0.65,
3627,-1.195,-0.625,
3628,-1.19,-0.59,
3629,-1.205,-0.59,
3630,-1.2,-0.585,
3631,-1.19,-0.595,
3632,-1.185,-0.635,
3633,-1.175,-0.635,
3634,-1.16,-0.67,
3635,-1.18,-0.675,
3636,-1.18,-0.675,
3637,-1.195,-0.67,
3638,-1.215,-0.675,
3639,-1.215,-0.665,
3640,-1.195,-0.635,
3641,-1.18,-0.635,
3642,-1.15,-0.63,
3643,-1.14,-0.635,
3644,-1.145,-0.635,
3645,-1.145,-0.63,
3646,-1.185,-0.645,
3647,-1.205,-0.65,
3648,-1.26,-0.665,
3649,-1.265,-0.68,
3650,-1.27,-0.68,
3651,-1.245,-0.675,
3652,-1.225,-0.635,
3653,-1.205,-0.655,
3654,-1.17,-0.64,
3655,-1.16,-0.645,
3656,-1.16,-0.645,
3657,-1.175,-0.68,
3658,-1.19,-0.725,
3659,-1.215,-0.77,
3660,-1.235,-0.82,
3661,-1.225,-0.87,
3662,-1.2,-0.92,
3663,-1.125,-0.995,
3664,-1.0,-1.085,
3665,-0.84,-1.23,
3666,-0.67,-1.39,
3667,-0.52,-1.51,
3668,-0.46,-1.55,
3669,-0.455,-1.545,
3670,-0.51,-1.46,
3671,-0.515,-1.315,
3672,-0.475,-1.17,
3673,-0.32,-0.98,
3674,-0.14,-0.785,R
3675,0.025,-0.53,
3676,0.115,-0.205,
3677,0.04,0.065,
3678,-0.22,0.295,
3679,-0.62,0.36,
3680,-1.05,0.295,
3681,-1.445,0.1,
3682,-1.735,-0.125,
3683,-1.9,-0.34,
3684,-1.975,-0.51,
3685,-2.015,-0.59,
3686,-2.07,-0.645,
3687,-2.12,-0.67,
3688,-2.165,-0.705,
3689,-2.22,-0.77,
3690,-2.255,-0.805,
3691,-2.26,-0.83,
3692,-2.255,-0.83,
3693,-2.255,-0.85,
3694,-2.265,-0.86,
3695,-2.285,-0.87,
3696,-2.29,-0.87,
3697,-2.275,-0.865,
3698,-2.23,-0.89,
3699,-2.175,-0.91,
3700,-2.095,-0.915,
3701,-2.005,-0.88,
3702,-1.89,-0.875,
3703,-1.735,-0.81,
3704,-1.625,-0.745,
3705,-1.515,-0.695,
3706,-1.415,-0.65,
3707,-1.365,-0.63,
3708,-1.355,-0.64,
3709,-1.34,-0.615,
3710,-1.32,-0.61,
3711,-1.285,-0.6,
3712,-1.25,-0.605,
3713,-1.225,-0.61,
3714,-1.205,-0.59,
3715,-1.2,-0.58,
3716,-1.185,-0.585,
3717,-1.21,-0.595,
3718,-1.24,-0.625,
3719,-1.27,-0.66,
3720,-1.28,-0.66,
3721,-1.27,-0.68,
3722,-1.28,-0.685,
3723,-1.235,-0.69,
3724,-1.245,-0.675,
3725,-1.245,-0.675,
3726,-1.235,-0.665,
3727,-1.23,-0.65,
3728,-1.25,-0.655,
3729,-1.25,-0.675,
3730,-1.265,-0.68,
3731,-1.27,-0.715,
3732,-1.275,-0.73,
3733,-1.28,-0.755,
3734,-1.275,-0.745,
3735,-1.285,-0.73,
3736,-1.285,-0.725,
3737,-1.305,-0.75,
3738,-1.3,-0.76,
3739,-1.32,-0.805,
3740,-1.325,-0.845,
3741,-1.345,-0.865,
3742,-1.345,-0.88,
3743,-1.35,-0.915,
3744,-1.365,-0.93,
3745,-1.375,-0.945,
3746,-1.4,-0.935,
3747,-1.42,-0.93,
3748,-1.435,-0.925,
3749,-1.45,-0.93,
3750,-1.445,-0.91,
3751,-1.43,-0.92,
3752,-1.435,-0.94,
3753,-1.435,-0.955,
3754,-1.43,-0.94,
3755,-1.43,-0.955,
3756,-1.435,-0.945,
3757,-1.445,-0.98,
3758,-1.46,-0.995,
3759,-1.47,-1.0,
3760,-1.45,-1.005,
3761,-1.435,-1.015,
3762,-1.43,-1.02,
3763,-1.41,-1.015,
3764,-1.42,-1.0,
3765,-1.445,-1.005,
3766,-1.45,-1.01,
3767,-1.445,-1.015,
3768,-1.44,-1.005,
3769,-1.42,-1.015,
3770,-1.415,-1.01,
3771,-1.39,-1.005,
3772,-1.355,-1.005,
3773,-1.335,-0.995,
3774,-1.305,-0.995,
3775,-1.29,-0.96,
3776,-1.285,-0.955,
3777,-1.28,-0.9,
3778,-1.275,-0.89,
3779,-1.28,-0.88,
3780,-1.26,-0.885,
3781,-1.22,-0.895,
3782,-1.21,-0.885,
3783,-1.205,-0.87,
3784,-1.185,-0.86,
3785,-1.17,-0.825,
3786,-1.15,-0.805,
3787,-1.12,-0.785,
3788,-1.11,-0.785,
3789,-1.1,-0.78,
3790,-1.105,-0.775,
3791,-1.13,-0.76,
3792,-1.13,-0.765,
3793,-1.115,-0.73,
3794,-1.11,-0.715,
3795,-1.105,-0.71,
3796,-1.09,-0.705,
3797,-1.065,-0.7,
3798,-1.035,-0.68,
3799,-1.015,-0.67,
3800,-1.04,-0.64,
3801,-1.065,-0.615,
3802,-1.065,-0.625,
3803,-1.105,-0.605,
3804,-1.11,-0.62,
3805,-1.1,-0.62,
3806,-1.1,-0.615,
3807,-1.08,-0.62,
3808,-1.06,-0.63,
3809,-1.04,-0.635,
3810,-1.03,-0.615,
3811,-1.03,-0.63,
3812,-1.04,-0.61,
3813,-1.065,-0.58,
3814,-1.105,-0.6,
3815,-1.115,-0.605,
3816,-1.115,-0.64,
3817,-1.115,-0.65,
3818,-1.115,-0.65,
3819,-1.105,-0.66,
3820,-1.075,-0.68,
3821,-1.075,-0.645,
3822,-1.075,-0.63,
3823,-1.06,-0.615,
3824,-1.075,-0.605,
3825,-1.095,-0.605,
3826,-1.125,-0.62,
3827,-1.16,-0.62,
3828,-1.185,-0.67,
3829,-1.18,-0.67,
3830,-1.16,-0.67,
3831,-1.14,-0.655,
3832,-1.115,-0.65,
3833,-1.105,-0.64,
3834,-1.1,-0.635,
3835,-1.105,-0.64,
3836,-1.11,-0.665,
3837,-1.11,-0.665,
3838,-1.11,-0.685,
3839,-1.115,-0.685,
3840,-1.11,-0.69,
3841,-1.115,-0.665,
3842,-1.13,-0.65,
3843,-1.135,-0.64,
3844,-1.13,-0.625,
3845,-1.13,-0.635,
3846,-1.11,-0.66,
3847,-1.105,-0.665,
3848,-1.105,-0.665,
3849,-1.085,-0.65,
3850,-1.08,-0.635,
3851,-1.09,-0.655,
3852,-1.095,-0.66,
3853,-1.105,-0.675,
3854,-1.115,-0.665,
3855,-1.12,-0.655,
3856,-1.12,-0.63,
3857,-1.12,-0.61,
3858,-1.095,-0.605,
3859,-1.09,-0.615,
3860,-1.115,-0.625,
3861,-1.11,-0.63,
3862,-1.11,-0.65,
3863,-1.095,-0.655,
3864,-1.1,-0.66,
3865,-1.095,-0.66,
3866,-1.095,-0.665,
3867,-1.105,-0.68,
3868,-1.105,-0.66,
3869,-1.105,-0.655,
3870,-1.08,-0.64,
3871,-1.055,-0.62,
3872,-1.05,-0.625,
3873,-1.075,-0.615,
3874,-1.095,-0.605,
3875,-1.135,-0.62,
3876,-1.135,-0.59,
3877,-1.13,-0.63,
3878,-1.125,-0.625,
3879,-1.13,-0.63,
3880,-1.095,-0.645,
3881,-1.075,-0.655,
3882,-1.06,-0.655,
3883,-1.055,-0.645,
3884,-1.05,-0.64,
3885,-1.055,-0.64,
3886,-1.075,-0.645,
3887,-1.075,-0.645,
3888,-1.08,-0.67,
3889,-1.07,-0.675,
3890,-1.075,-0.65,
3891,-1.07,-0.64,
3892,-1.04,-0.63,
3893,-1.04,-0.62,
3894,-1.015,-0.62,
3895,-1.0,-0.65,
3896,-1.01,-0.675,
3897,-1.0,-0.71,
3898,-1.005,-0.715,
3899,-0.98,-0.7,
3900,-0.975,-0.68,
3901,-0.94,-0.66,
3902,-0.925,-0.625,
3903,-0.885,-0.615,
3904,-0.86,-0.605,
3905,-0.865,-0.58,
3906,-0.895,-0.555,
3907,-0.92,-0.56,
3908,-0.945,-0.595,
3909,-0.965,-0.62,
3910,-0.97,-0.655,
3911,-0.99,-0.68,
3912,-0.99,-0.665,
3913,-0.995,-0.655,
3914,-0.975,-0.615,
3915,-0.945,-0.57,
3916,-0.92,-0.535,
3917,-0.885,-0.495,
3918,-0.86,-0.44,
3919,-0.875,-0.425,
3920,-0.92,-0.43,
3921,-0.96,-0.425,
3922,-0.98,-0.45,
3923,-1.0,-0.5,
3924,-1.03,-0.55,
3925,-1.04,-0.59,
3926,-1.05,-0.59,
3927,-1.075,-0.565,
3928,-1.08,-0.555,
3929,-1.085,-0.555,
3930,-1.075,-0.565,
3931,-1.065,-0.575,
3932,-1.055,-0.595,
3933,-1.065,-0.61,
3934,-1.09,-0.645,
3935,-1.125,-0.645,
3936,-1.16,-0.665,
3937,-1.185,-0.65,
3938,-1.2,-0.62,
3939,-1.175,-0.59,
3940,-1.15,-0.555,
3941,-1.125,-0.55,
3942,-1.11,-0.575,
3943,-1.105,-0.58,
3944,-1.13,-0.6,
3945,-1.13,-0.635,
3946,-1.13,-0.64,
3947,-1.135,-0.64,
3948,-1.14,-0.64,
3949,-1.14,-0.635,
3950,-1.15,-0.625,
3951,-1.165,-0.625,
3952,-1.16,-0.605,
3953,-1.155,-0.63,
3954,-1.145,-0.62,
3955,-1.095,-0.605,
3956,-1.095,-0.6,
3957,-1.08,-0.605,
3958,-1.085,-0.625,
3959,-1.11,-0.67,
3960,-1.125,-0.69,
3961,-1.15,-0.695,
3962,-1.18,-0.725,
3963,-1.17,-0.72,
3964,-1.17,-0.765,
3965,-1.12,-0.84,
3966,-1.045,-0.88,
3967,-0.93,-1.0,
3968,-0.77,-1.095,
3969,-0.61,-1.215,
3970,-0.45,-1.34,
3971,-0.35,-1.415,
3972,-0.315,-1.425,
3973,-0.335,-1.375,
3974,-0.385,-1.27,
3975,-0.385,-1.13,
3976,-0.335,-0.98,
3977,-0.225,-0.805,
3978,-0.065,-0.63,R
3979,0.105,-0.415,
3980,0.185,-0.16,
3981,0.18,0.1,
3982,0.005,0.325,
3983,-0.345,0.475,
3984,-0.765,0.475,
3985,-1.205,0.335,
3986,-1.575,0.1,
3987,-1.835,-0.16,
3988,-1.975,-0.395,
3989,-2.05,-0.56,
3990,-2.09,-0.655,
3991,-2.11,-0.705,
3992,-2.145,-0.755,
3993,-2.18,-0.8,
3994,-2.19,-0.835,
3995,-2.215,-0.865,
3996,-2.205,-0.87,
3997,-2.175,-0.86,
3998,-2.16,-0.845,
3999,-2.145,-0.82,
4000,-2.115,-0.82,
4001,-2.085,-0.835,
4002,-2.055,-0.835,
4003,-2.025,-0.835,
4004,-1.96,-0.85,
4005,-1.855,-0.825,
4006,-1.715,-0.78,
4007,-1.565,-0.745,
4008,-1.45,-0.69,
4009,-1.355,-0.66,
4010,-1.3,-0.605,
4011,-1.25,-0.565,
4012,-1.23,-0.545,
4013,-1.235,-0.525,
4014,-1.23,-0.535,
4015,-1.225,-0.545,
4016,-1.24,-0.57,
4017,-1.24,-0.595,
4018,-1.245,-0.63,
4019,-1.23,-0.62,
4020,-1.22,-0.625,
4021,-1.21,-0.61,
4022,-1.205,-0.565,
4023,-1.21,-0.53,
4024,-1.17,-0.495,
4025,-1.165,-0.505,
4026,-1.17,-0.525,
4027,-1.175,-0.56,
4028,-1.19,-0.585,
4029,-1.2,-0.62,
4030,-1.21,-0.645,
4031,-1.22,-0.645,
4032,-1.225,-0.65,
4033,-1.22,-0.635,
4034,-1.225,-0.63,
4035,-1.225,-0.64,
4036,-1.215,-0.645,
4037,-1.23,-0.675,
4038,-1.21,-0.685,
4039,-1.225,-0.725,
4040,-1.27,-0.77,
4041,-1.275,-0.79,
4042,-1.285,-0.8,
4043,-1.3,-0.79,
4044,-1.305,-0.79,
4045,-1.315,-0.805,
4046,-1.335,-0.83,
4047,-1.36,-0.86,
4048,-1.38,-0.87,
4049,-1.38,-0.88,
4050,-1.365,-0.88,
4051,-1.355,-0.885,
4052,-1.33,-0.88,
4053,-1.345,-0.915,
4054,-1.36,-0.905,
4055,-1.375,-0.93,
4056,-1.385,-0.95,
4057,-1.415,-0.955,
4058,-1.445,-0.975,
4059,-1.45,-0.97,
4060,-1.435,-0.975,
4061,-1.415,-0.98,
4062,-1.41,-0.955,
4063,-1.39,-0.955,
4064,-1.385,-0.965,
4065,-1.36,-0.99,
4066,-1.38,-0.995,
4067,-1.395,-1.0,
4068,-1.405,-1.02,
4069,-1.415,-1.025,
4070,-1.44,-1.015,
4071,-1.42,-1.025,
4072,-1.4,-0.985,
4073,-1.38,-0.965,
4074,-1.35,-0.925,
4075,-1.305,-0.9,
4076,-1.295,-0.9,
4077,-1.295,-0.895,
4078,-1.285,-0.895,
4079,-1.28,-0.89,
4080,-1.285,-0.875,
4081,-1.275,-0.885,
4082,-1.255,-0.885,
4083,-1.23,-0.875,
4084,-1.205,-0.855,
4085,-1.19,-0.81,
4086,-1.15,-0.79,
4087,-1.135,-0.75,
4088,-1.11,-0.72,
4089,-1.09,-0.705,
4090,-1.07,-0.71,
4091,-1.07,-0.7,
4092,-1.08,-0.735,
4093,-1.09,-0.72,
4094,-1.1,-0.715,
4095,-1.105,-0.69,
4096,-1.07,-0.645,
4097,-1.065,-0.625,
4098,-1.055,-0.59,
4099,-1.03,-0.575,
4100,-1.02,-0.595,
4101,-1.04,-0.63,
4102,-1.045,-0.655,
4103,-1.065,-0.66,
4104,-1.07,-0.64,
4105,-1.065,-0.635,
4106,-1.055,-0.61,
4107,-1.035,-0.6,
4108,-1.025,-0.57,
4109,-1.025,-0.56,
4110,-1.025,-0.55,
4111,-1.025,-0.56,
4112,-1.04,-0.575,
4113,-1.05,-0.58,
4114,-1.055,-0.575,
4115,-1.035,-0.565,
4116,-1.03,-0.57,
4117,-1.035,-0.565,
4118,-1.055,-0.585,
4119,-1.055,-0.575,
4120,-1.065,-0.57,
4121,-1.055,-0.56,
4122,-1.07,-0.555,
4123,-1.05,-0.555,
4124,-1.055,-0.56,
4125,-1.05,-0.565,
4126,-1.045,-0.57,
4127,-1.07,-0.595,
4128,-1.065,-0.59,
4129,-1.08,-0.59,
4130,-1.08,-0.565,
4131,-1.065,-0.56,
4132,-1.045,-0.545,
4133,-1.055,-0.54,
4134,-1.045,-0.535,
4135,-1.05,-0.54,
4136,-1.035,-0.53,
4137,-1.045,-0.55,
4138,-1.07,-0.59,
4139,-1.065,-0.605,
4140,-1.08,-0.62,
4141,-1.075,-0.59,
4142,-1.075,-0.535,
4143,-1.055,-0.49,
4144,-1.05,-0.49,
4145,-1.035,-0.515,
4146,-1.025,-0.575,
4147,-1.005,-0.615,
4148,-1.0,-0.63,
4149,-0.995,-0.63,
4150,-0.99,-0.615,
4151,-0.99,-0.615,
4152,-1.005,-0.63,
4153,-1.025,-0.63,
4154,-1.045,-0.655,
4155,-1.055,-0.66,
4156,-1.055,-0.65,
4157,-1.05,-0.615,
4158,-1.03,-0.585,
4159,-1.01,-0.545,
4160,-0.995,-0.525,
4161,-0.98,-0.51,
4162,-0.985,-0.515,
4163,-1.015,-0.56,
4164,-1.04,-0.59,
4165,-1.06,-0.625,
4166,-1.06,-0.615,
4167,-1.055,-0.605,
4168,-1.035,-0.6,
4169,-1.015,-0.595,
4170,-0.995,-0.585,
4171,-0.98,-0.58,
4172,-0.965,-0.57,
4173,-0.99,-0.575,
4174,-0.985,-0.575,
4175,-0.99,-0.585,
4176,-0.995,-0.605,
4177,-1.01,-0.63,
4178,-1.005,-0.625,
4179,-1.0,-0.615,
4180,-0.985,-0.605,
4181,-0.975,-0.6,
4182,-0.95,-0.61,
4183,-0.955,-0.59,
4184,-0.96,-0.595,
4185,-0.96,-0.575,
4186,-0.975,-0.555,
4187,-0.965,-0.56,
4188,-0.96,-0.565,
4189,-0.975,-0.595,
4190,-0.95,-0.6,
4191,-0.945,-0.58,
4192,-0.93,-0.58,
4193,-0.9,-0.58,
4194,-0.895,-0.575,
4195,-0.87,-0.57,
4196,-0.865,-0.61,
4197,-0.84,-0.63,
4198,-0.845,-0.655,
4199,-0.84,-0.67,
4200,-0.86,-0.695,
4201,-0.845,-0.68,
4202,-0.835,-0.68,
4203,-0.825,-0.665,
4204,-0.795,-0.65,
4205,-0.785,-0.64,
4206,-0.81,-0.635,
4207,-0.835,-0.605,
4208,-0.855,-0.575,
4209,-0.86,-0.555,
4210,-0.87,-0.54,
4211,-0.875,-0.565,
4212,-0.895,-0.59,
4213,-0.895,-0.63,
4214,-0.895,-0.625,
4215,-0.885,-0.635,
4216,-0.845,-0.615,
4217,-0.83,-0.58,
4218,-0.795,-0.535,
4219,-0.765,-0.515,
4220,-0.75,-0.475,
4221,-0.785,-0.445,
4222,-0.795,-0.465,
4223,-0.83,-0.505,
4224,-0.87,-0.555,
4225,-0.925,-0.6,
4226,-0.96,-0.64,
4227,-0.94,-0.635,
4228,-0.945,-0.635,
4229,-0.91,-0.62,
4230,-0.9,-0.585,
4231,-0.89,-0.565,
4232,-0.915,-0.56,
4233,-0.935,-0.585,
4234,-0.96,-0.625,
4235,-1.015,-0.66,
4236,-1.035,-0.67,
4237,-1.055,-0.675,
4238,-1.07,-0.665,
4239,-1.05,-0.67,
4240,-1.015,-0.625,
4241,-1.005,-0.6,
4242,-1.0,-0.59,
4243,-0.985,-0.59,
4244,-1.0,-0.61,
4245,-1.0,-0.65,
4246,-1.03,-0.67,
4247,-1.03,-0.68,
4248,-1.035,-0.68,
4249,-1.055,-0.66,
4250,-1.06,-0.65,
4251,-1.065,-0.62,
4252,-1.065,-0.605,
4253,-1.035,-0.61,
4254,-1.025,-0.615,
4255,-1.005,-0.63,
4256,-0.995,-0.65,
4257,-0.995,-0.65,
4258,-1.0,-0.655,
4259,-1.005,-0.65,
4260,-1.03,-0.67,
4261,-1.035,-0.67,
4262,-1.04,-0.685,
4263,-1.055,-0.715,
4264,-1.05,-0.72,
4265,-1.06,-0.725,
4266,-1.055,-0.76,
4267,-1.055,-0.78,
4268,-1.05,-0.87,
4269,-1.03,-0.955,
4270,-0.95,-1.08,
4271,-0.845,-1.21,
4272,-0.725,-1.335,
4273,-0.615,-1.445,
4274,-0.505,-1.535,
4275,-0.44,-1.585,
4276,-0.415,-1.57,
4277,-0.415,-1.495,
4278,-0.42,-1.36,
4279,-0.395,-1.245,
4280,-0.27,-1.105,
4281,-0.13,-0.96,
4282,0.045,-0.79,R
4283,0.185,-0.545,
4284,0.22,-0.25,
4285,0.11,0.035,
4286,-0.175,0.255,
4287,-0.55,0.35,
4288,-0.945,0.295,
4289,-1.265,0.115,
4290,-1.505,-0.09,
4291,-1.655,-0.3,
4292,-1.72,-0.465,
4293,-1.775,-0.56,
4294,-1.825,-0.625,
4295,-1.875,-0.685,
4296,-1.915,-0.755,
4297,-1.95,-0.795,
4298,-1.965,-0.835,
4299,-1.96,-0.845,
4300,-1.955,-0.795,
4301,-1.925,-0.77,
4302,-1.93,-0.735,
4303,-1.925,-0.73,
4304,-1.915,-0.755,
4305,-1.9,-0.77,
4306,-1.88,-0.815,
4307,-1.805,-0.84,
4308,-1.705,-0.865,
4309,-1.575,-0.845,
4310,-1.46,-0.815,
4311,-1.38,-0.76,
4312,-1.305,-0.705,
4313,-1.245,-0.645,
4314,-1.205,-0.625,
4315,-1.15,-0.585,
4316,-1.14,-0.575,
4317,-1.115,-0.58,
4318,-1.105,-0.595,
4319,-1.095,-0.635,
4320,-1.075,-0.655,
4321,-1.075,-0.66,
4322,-1.06,-0.67,
4323,-1.075,-0.66,
4324,-1.09,-0.65,
4325,-1.1,-0.625,
4326,-1.1,-0.6,
4327,-1.105,-0.595,
4328,-1.11,-0.62,
4329,-1.105,-0.645,
4330,-1.09,-0.665,
4331,-1.095,-0.68,
4332,-1.085,-0.705,
4333,-1.095,-0.72,
4334,-1.105,-0.715,
4335,-1.11,-0.725,
4336,-1.11,-0.715,
4337,-1.125,-0.725,
4338,-1.11,-0.72,
4339,-1.115,-0.74,
4340,-1.1,-0.755,
4341,-1.125,-0.79,
4342,-1.14,-0.83,
4343,-1.165,-0.825,
4344,-1.18,-0.845,
4345,-1.185,-0.86,
4346,-1.19,-0.86,
4347,-1.205,-0.875,
4348,-1.19,-0.885,
4349,-1.195,-0.895,
4350,-1.21,-0.895,
4351,-1.225,-0.9,
4352,-1.235,-0.9,
4353,-1.22,-0.89,
4354,-1.25,-0.895,
4355,-1.255,-0.915,
4356,-1.255,-0.955,
4357,-1.26,-0.975,
4358,-1.27,-0.985,
4359,-1.29,-0.98,
4360,-1.305,-0.985,
4361,-1.315,-0.975,
4362,-1.315,-0.98,
4363,-1.29,-0.985,
4364,-1.29,-1.02,
4365,-1.31,-1.04,
4366,-1.3,-1.07,
4367,-1.325,-1.075,
4368,-1.36,-1.06,
4369,-1.335,-1.075,
4370,-1.36,-1.05,
4371,-1.345,-1.045,
4372,-1.33,-1.035,
4373,-1.31,-1.035,
4374,-1.295,-1.02,
4375,-1.265,-1.03,
4376,-1.255,-1.025,
4377,-1.23,-1.025,
4378,-1.215,-1.04,
4379,-1.24,-1.045,
4380,-1.24,-1.04,
4381,-1.23,-1.045,
4382,-1.22,-1.03,
4383,-1.2,-1.02,
4384,-1.175,-1.005,
4385,-1.135,-1.0,
4386,-1.115,-0.995,
4387,-1.085,-0.98,
4388,-1.075,-0.995,
4389,-1.08,-0.945,
4390,-1.07,-0.91,
4391,-1.065,-0.865,
4392,-1.04,-0.84,
4393,-1.025,-0.825,
4394,-1.015,-0.82,
4395,-1.0,-0.83,
4396,-0.99,-0.805,
4397,-0.99,-0.81,
4398,-0.985,-0.8,
4399,-0.965,-0.78,
4400,-0.96,-0.765,
4401,-0.945,-0.75,
4402,-0.93,-0.77,
4403,-0.93,-0.76,
4404,-0.945,-0.77,
4405,-0.96,-0.77,
4406,-0.96,-0.755,
4407,-0.985,-0.72,
4408,-0.985,-0.71,
4409,-0.96,-0.68,
4410,-0.945,-0.695,
4411,-0.9,-0.685,
4412,-0.9,-0.705,
4413,-0.91,-0.7,
4414,-0.94,-0.67,
4415,-0.955,-0.64,
4416,-0.99,-0.62,
4417,-0.98,-0.63,
4418,-0.985,-0.64,
4419,-0.98,-0.655,
4420,-0.99,-0.665,
4421,-0.965,-0.665,
4422,-0.96,-0.7,
4423,-0.945,-0.68,
4424,-0.945,-0.665,
4425,-0.935,-0.645,
4426,-0.93,-0.65,
4427,-0.93,-0.66,
4428,-0.935,-0.655,
4429,-0.965,-0.675,
4430,-0.97,-0.7,
4431,-0.97,-0.685,
4432,-0.97,-0.67,
4433,-0.985,-0.685,
4434,-0.975,-0.67,
4435,-0.965,-0.66,
4436,-0.965,-0.67,
4437,-0.965,-0.68,
4438,-0.97,-0.665,
4439,-0.97,-0.675,
4440,-0.975,-0.685,
4441,-0.965,-0.68,
4442,-0.98,-0.695,
4443,-0.95,-0.705,
4444,-0.95,-0.68,
4445,-0.935,-0.67,
4446,-0.945,-0.67,
4447,-0.925,-0.68,
4448,-0.925,-0.695,
4449,-0.925,-0.705,
4450,-0.935,-0.695,
4451,-0.935,-0.73,
4452,-0.96,-0.715,
4453,-0.96,-0.71,
4454,-0.96,-0.71,
4455,-0.98,-0.72,
4456,-0.96,-0.69,
4457,-0.955,-0.685,
4458,-0.95,-0.66,
4459,-0.93,-0.65,
4460,-0.94,-0.645,
4461,-0.955,-0.655,
4462,-0.94,-0.665,
4463,-0.935,-0.675,
4464,-0.96,-0.685,
4465,-0.945,-0.685,
4466,-0.95,-0.7,
4467,-0.925,-0.685,
4468,-0.885,-0.695,
4469,-0.87,-0.68,
4470,-0.87,-0.675,
4471,-0.85,-0.66,
4472,-0.85,-0.66,
4473,-0.84,-0.655,
4474,-0.845,-0.645,
4475,-0.855,-0.67,
4476,-0.845,-0.685,
4477,-0.855,-0.695,
4478,-0.855,-0.69,
4479,-0.83,-0.69,
4480,-0.84,-0.67,
4481,-0.825,-0.67,
4482,-0.815,-0.665,
4483,-0.79,-0.655,
4484,-0.79,-0.65,
4485,-0.785,-0.645,
4486,-0.785,-0.655,
4487,-0.775,-0.67,
4488,-0.775,-0.68,
4489,-0.8,-0.68,
4490,-0.785,-0.7,
4491,-0.77,-0.675,
4492,-0.755,-0.685,
4493,-0.73,-0.665,
4494,-0.71,-0.665,
4495,-0.715,-0.66,
4496,-0.69,-0.68,
4497,-0.69,-0.71,
4498,-0.705,-0.73,
4499,-0.695,-0.765,
4500,-0.7,-0.765,
4501,-0.7,-0.755,
4502,-0.675,-0.755,
4503,-0.655,-0.75,
4504,-0.63,-0.72,
4505,-0.605,-0.715,
4506,-0.58,-0.7,
4507,-0.56,-0.68,
4508,-0.535,-0.655,
4509,-0.545,-0.65,
4510,-0.55,-0.64,
4511,-0.605,-0.645,
4512,-0.63,-0.65,
4513,-0.66,-0.645,
4514,-0.685,-0.65,
4515,-0.695,-0.66,
4516,-0.69,-0.67,
4517,-0.67,-0.655,
4518,-0.65,-0.64,
4519,-0.605,-0.6,
4520,-0.57,-0.565,
4521,-0.54,-0.54,
4522,-0.54,-0.53,
4523,-0.57,-0.525,
4524,-0.615,-0.54,
4525,-0.655,-0.535,
4526,-0.7,-0.585,
4527,-0.71,-0.595,
4528,-0.735,-0.615,
4529,-0.725,-0.63,
4530,-0.72,-0.61,
4531,-0.71,-0.615,
4532,-0.72,-0.62,
4533,-0.72,-0.64,
4534,-0.72,-0.665,
4535,-0.765,-0.695,
4536,-0.775,-0.71,
4537,-0.805,-0.695,
4538,-0.81,-0.68,
4539,-0.81,-0.65,
4540,-0.785,-0.62,
4541,-0.78,-0.64,
4542,-0.765,-0.62,
4543,-0.75,-0.66,
4544,-0.745,-0.66,
4545,-0.74,-0.69,
4546,-0.745,-0.695,
4547,-0.74,-0.71,
4548,-0.74,-0.705,
4549,-0.75,-0.7,
4550,-0.74,-0.705,
4551,-0.75,-0.7,
4552,-0.74,-0.695,
4553,-0.73,-0.69,
4554,-0.715,-0.69,
4555,-0.72,-0.69,
4556,-0.735,-0.705,
4557,-0.74,-0.71,
4558,-0.735,-0.715,
4559,-0.74,-0.715,
4560,-0.745,-0.705,
4561,-0.76,-0.725,
4562,-0.745,-0.745,
4563,-0.75,-0.75,
4564,-0.76,-0.79,
4565,-0.765,-0.825,
4566,-0.78,-0.875,
4567,-0.76,-0.965,
4568,-0.71,-1.075,
4569,-0.625,-1.205,
4570,-0.495,-1.355,
4571,-0.365,-1.51,
4572,-0.245,-1.645,
4573,-0.145,-1.7,
4574,-0.115,-1.68,
4575,-0.1,-1.565,
4576,-0.095,-1.425,
4577,-0.035,-1.255,
4578,0.075,-1.09,
4579,0.24,-0.92,
4580,0.415,-0.715,R
4581,0.54,-0.475,
4582,0.565,-0.185,
4583,0.445,0.09,
4584,0.175,0.285,
4585,-0.215,0.335,
4586,-0.63,0.25,
4587,-1.0,0.08,
4588,-1.255,-0.15,
4589,-1.38,-0.345,
4590,-1.46,-0.46,
4591,-1.505,-0.57,
4592,-1.565,-0.63,
4593,-1.64,-0.665,
4594,-1.695,-0.73,
4595,-1.74,-0.785,
4596,-1.775,-0.845,
4597,-1.785,-0.845,
4598,-1.805,-0.87,
4599,-1.8,-0.86,
4600,-1.79,-0.845,
4601,-1.775,-0.85,
4602,-1.775,-0.85,
4603,-1.735,-0.85,
4604,-1.705,-0.86,
4605,-1.635,-0.875,
4606,-1.57,-0.895,
4607,-1.495,-0.895,
4608,-1.36,-0.87,
4609,-1.255,-0.835,
4610,-1.145,-0.79,
4611,-1.045,-0.755,
4612,-0.97,-0.68,
4613,-0.905,-0.645,
4614,-0.88,-0.635,
4615,-0.865,-0.605,
4616,-0.87,-0.62,
4617,-0.87,-0.63,
4618,-0.86,-0.65,
4619,-0.865,-0.67,
4620,-0.85,-0.675,
4621,-0.835,-0.66,
4622,-0.84,-0.66,
4623,-0.83,-0.65,
4624,-0.84,-0.65,
4625,-0.82,-0.655,
4626,-0.815,-0.655,
4627,-0.81,-0.645,
4628,-0.82,-0.675,
4629,-0.82,-0.685,
4630,-0.82,-0.7,
4631,-0.84,-0.705,
4632,-0.845,-0.695,
4633,-0.865,-0.705,
4634,-0.88,-0.72,
4635,-0.865,-0.73,
4636,-0.86,-0.725,
4637,-0.85,-0.76,
4638,-0.84,-0.75,
4639,-0.86,-0.76,
4640,-0.84,-0.78,
4641,-0.87,-0.8,
4642,-0.885,-0.82,
4643,-0.905,-0.83,
4644,-0.91,-0.855,
4645,-0.93,-0.87,
4646,-0.945,-0.88,
4647,-0.945,-0.885,
4648,-0.98,-0.895,
4649,-0.975,-0.905,
4650,-0.965,-0.915,
4651,-0.985,-0.925,
4652,-0.97,-0.955,
4653,-0.985,-0.975,
4654,-1.0,-1.0,
4655,-1.015,-1.0,
4656,-1.025,-0.995,
4657,-1.025,-1.035,
4658,-1.03,-1.04,
4659,-1.035,-1.04,
4660,-1.045,-1.035,
4661,-1.04,-1.04,
4662,-1.045,-1.02,
4663,-1.06,-1.02,
4664,-1.045,-1.025,
4665,-1.04,-1.02,
4666,-1.045,-1.06,
4667,-1.06,-1.08,
4668,-1.065,-1.085,
4669,-1.07,-1.1,
4670,-1.06,-1.105,
4671,-1.075,-1.1,
4672,-1.07,-1.09,
4673,-1.055,-1.085,
4674,-1.025,-1.07,
4675,-0.99,-1.055,
4676,-0.975,-1.06,
4677,-0.95,-1.045,
4678,-0.935,-1.03,
4679,-0.925,-1.03,
4680,-0.92,-1.035,
4681,-0.905,-1.03,
4682,-0.9,-1.015,
4683,-0.87,-0.99,
4684,-0.835,-0.98,
4685,-0.825,-0.96,
4686,-0.81,-0.935,
4687,-0.775,-0.895,
4688,-0.765,-0.89,
4689,-0.755,-0.875,
4690,-0.745,-0.87,
4691,-0.745,-0.855,
4692,-0.74,-0.85,
4693,-0.73,-0.84,
4694,-0.73,-0.83,
4695,-0.725,-0.825,
4696,-0.715,-0.79,
4697,-0.695,-0.755,
4698,-0.685,-0.74,
4699,-0.675,-0.72,
4700,-0.665,-0.72,
4701,-0.67,-0.73,
4702,-0.67,-0.755,
4703,-0.67,-0.76,
4704,-0.67,-0.77,
4705,-0.69,-0.775,
4706,-0.69,-0.765,
4707,-0.68,-0.75,
4708,-0.665,-0.725,
4709,-0.66,-0.73,
4710,-0.655,-0.7,
4711,-0.645,-0.695,
4712,-0.64,-0.685,
4713,-0.64,-0.68,
4714,-0.645,-0.7,
4715,-0.65,-0.7,
4716,-0.675,-0.71,
4717,-0.69,-0.705,
4718,-0.71,-0.69,
4719,-0.69,-0.7,
4720,-0.675,-0.705,
4721,-0.66,-0.705,
4722,-0.65,-0.675,
4723,-0.645,-0.68,
4724,-0.65,-0.67,
4725,-0.66,-0.7,
4726,-0.695,-0.69,
4727,-0.69,-0.7,
4728,-0.705,-0.71,
4729,-0.71,-0.725,
4730,-0.725,-0.73,
4731,-0.745,-0.725,
4732,-0.735,-0.715,
4733,-0.72,-0.7,
4734,-0.72,-0.71,
4735,-0.725,-0.695,
4736,-0.7,-0.69,
4737,-0.705,-0.685,
4738,-0.7,-0.68,
4739,-0.715,-0.68,
4740,-0.715,-0.685,
4741,-0.735,-0.7,
4742,-0.745,-0.725,
4743,-0.73,-0.71,
4744,-0.73,-0.715,
4745,-0.71,-0.7,
4746,-0.7,-0.67,
4747,-0.69,-0.68,
4748,-0.68,-0.66,
4749,-0.67,-0.645,
4750,-0.68,-0.68,
4751,-0.69,-0.685,
4752,-0.71,-0.68,
4753,-0.74,-0.685,
4754,-0.745,-0.675,
4755,-0.735,-0.69,
4756,-0.725,-0.69,
4757,-0.705,-0.68,
4758,-0.705,-0.685,
4759,-0.685,-0.7,
4760,-0.68,-0.715,
4761,-0.675,-0.72,
4762,-0.675,-0.72,
4763,-0.69,-0.705,
4764,-0.7,-0.685,
4765,-0.71,-0.68,
4766,-0.725,-0.69,
4767,-0.705,-0.68,
4768,-0.7,-0.66,
4769,-0.695,-0.665,
4770,-0.7,-0.67,
4771,-0.695,-0.665,
4772,-0.7,-0.67,
4773,-0.705,-0.695,
4774,-0.705,-0.7,
4775,-0.71,-0.705,
4776,-0.73,-0.745,
4777,-0.72,-0.735,
4778,-0.73,-0.74,
4779,-0.725,-0.715,
4780,-0.725,-0.69,
4781,-0.705,-0.67,
4782,-0.69,-0.64,
4783,-0.675,-0.635,
4784,-0.665,-0.645,
4785,-0.68,-0.665,
4786,-0.68,-0.68,
4787,-0.69,-0.715,
4788,-0.69,-0.725,
4789,-0.695,-0.705,
4790,-0.695,-0.695,
4791,-0.69,-0.685,
4792,-0.69,-0.65,
4793,-0.66,-0.66,
4794,-0.65,-0.66,
4795,-0.63,-0.655,
4796,-0.62,-0.66,
4797,-0.62,-0.69,
4798,-0.615,-0.695,
4799,-0.615,-0.715,
4800,-0.62,-0.725,
4801,-0.63,-0.715,
4802,-0.635,-0.73,
4803,-0.635,-0.715,
4804,-0.615,-0.695,
4805,-0.585,-0.705,
4806,-0.53,-0.685,
4807,-0.5,-0.685,
4808,-0.47,-0.66,
4809,-0.485,-0.64,
4810,-0.505,-0.615,
4811,-0.535,-0.61,
4812,-0.545,-0.63,
4813,-0.585,-0.65,
4814,-0.615,-0.665,
4815,-0.635,-0.66,
4816,-0.62,-0.635,
4817,-0.575,-0.6,
4818,-0.56,-0.54,
4819,-0.525,-0.48,
4820,-0.495,-0.415,
4821,-0.505,-0.36,
4822,-0.505,-0.305,
4823,-0.515,-0.295,
4824,-0.51,-0.32,
4825,-0.525,-0.405,
4826,-0.56,-0.51,
4827,-0.59,-0.63,
4828,-0.615,-0.695,
4829,-0.655,-0.74,
4830,-0.66,-0.7,
4831,-0.68,-0.61,
4832,-0.705,-0.505,
4833,-0.705,-0.475,
4834,-0.73,-0.53,
4835,-0.745,-0.615,
4836,-0.745,-0.715,
4837,-0.775,-0.745,
4838,-0.785,-0.765,
4839,-0.8,-0.76,
4840,-0.81,-0.735,
4841,-0.78,-0.71,
4842,-0.77,-0.685,
4843,-0.765,-0.665,
4844,-0.755,-0.67,
4845,-0.765,-0.675,
4846,-0.755,-0.68,
4847,-0.75,-0.675,
4848,-0.75,-0.66,
4849,-0.74,-0.67,
4850,-0.73,-0.675,
4851,-0.75,-0.65,
4852,-0.755,-0.635,
4853,-0.75,-0.635,
4854,-0.745,-0.635,
4855,-0.74,-0.63,
4856,-0.765,-0.64,
4857,-0.77,-0.68,
4858,-0.76,-0.69,
4859,-0.775,-0.69,
4860,-0.79,-0.695,
4861,-0.8,-0.69,
4862,-0.795,-0.715,
4863,-0.78,-0.705,
4864,-0.76,-0.72,
4865,-0.75,-0.735,
4866,-0.76,-0.755,
4867,-0.76,-0.79,
4868,-0.765,-0.845,
4869,-0.73,-0.92,
4870,-0.71,-1.01,
4871,-0.64,-1.125,
4872,-0.535,-1.245,
4873,-0.415,-1.355,
4874,-0.27,-1.465,
4875,-0.135,-1.555,
4876,-0.045,-1.565,
4877,-0.01,-1.5,
4878,-0.04,-1.405,
4879,-0.05,-1.255,
4880,-0.025,-1.125,
4881,0.055,-1.02,
4882,0.165,-0.88,
4883,0.31,-0.74,R
4884,0.43,-0.525,
4885,0.49,-0.235,
4886,0.42,0.045,
4887,0.205,0.265,
4888,-0.16,0.375,
4889,-0.575,0.3,
4890,-0.97,0.11,
4891,-1.28,-0.155,
4892,-1.46,-0.4,
4893,-1.55,-0.595,
4894,-1.61,-0.695,
4895,-1.665,-0.755,
4896,-1.7,-0.81,
4897,-1.74,-0.87,
4898,-1.76,-0.905,
4899,-1.8,-0.93,
4900,-1.825,-0.945,
4901,-1.815,-0.92,
4902,-1.825,-0.92,
4903,-1.815,-0.905,
4904,-1.81,-0.9,
4905,-1.795,-0.9,
4906,-1.77,-0.905,
4907,-1.745,-0.915,
4908,-1.685,-0.95,
4909,-1.615,-0.955,
4910,-1.49,-0.97,
4911,-1.335,-0.915,
4912,-1.19,-0.84,
4913,-1.025,-0.775,
4914,-0.91,-0.7,
4915,-0.845,-0.675,
4916,-0.82,-0.655,
4917,-0.83,-0.67,
4918,-0.855,-0.67,
4919,-0.86,-0.69,
4920,-0.865,-0.68,
4921,-0.87,-0.685,
4922,-0.86,-0.685,
4923,-0.855,-0.68,
4924,-0.83,-0.645,
4925,-0.81,-0.645,
4926,-0.805,-0.65,
4927,-0.805,-0.65,
4928,-0.8,-0.64,
4929,-0.805,-0.66,
4930,-0.795,-0.705,
4931,-0.8,-0.705,
4932,-0.81,-0.735,
4933,-0.825,-0.72,
4934,-0.845,-0.755,
4935,-0.845,-0.75,
4936,-0.825,-0.73,
4937,-0.83,-0.75,
4938,-0.84,-0.755,
4939,-0.845,-0.76,
4940,-0.865,-0.785,
4941,-0.885,-0.81,
4942,-0.89,-0.84,
4943,-0.885,-0.84,
4944,-0.895,-0.875,
4945,-0.92,-0.875,
4946,-0.925,-0.895,
4947,-0.935,-0.9,
4948,-0.955,-0.905,
4949,-0.95,-0.92,
4950,-0.945,-0.93,
4951,-0.96,-0.925,
4952,-0.96,-0.95,
4953,-0.975,-0.955,
4954,-0.985,-0.975,
4955,-1.0,-1.01,
4956,-1.03,-1.005,
4957,-1.045,-1.035,
4958,-1.045,-1.06,
4959,-1.05,-1.05,
4960,-1.08,-1.055,
4961,-1.055,-1.06,
4962,-1.06,-1.065,
4963,-1.055,-1.065,
4964,-1.045,-1.045,
4965,-1.075,-1.055,
4966,-1.06,-1.04,
4967,-1.07,-1.075,
4968,-1.08,-1.105,
4969,-1.09,-1.105,
4970,-1.08,-1.115,
4971,-1.085,-1.12,
4972,-1.08,-1.1,
4973,-1.08,-1.07,
4974,-1.065,-1.06,
4975,-1.06,-1.05,
4976,-1.035,-1.08,
4977,-1.035,-1.09,
4978,-1.015,-1.1,
4979,-1.025,-1.085,
4980,-1.025,-1.08,
4981,-0.995,-1.05,
4982,-0.97,-1.07,
4983,-0.955,-1.055,
4984,-0.95,-1.05,
4985,-0.945,-1.02,
4986,-0.905,-0.98,
4987,-0.905,-0.94,
4988,-0.87,-0.91,
4989,-0.855,-0.87,
4990,-0.835,-0.845,
4991,-0.815,-0.865,
4992,-0.81,-0.89,
4993,-0.83,-0.925,
4994,-0.815,-0.95,
4995,-0.825,-0.945,
4996,-0.805,-0.9,
4997,-0.805,-0.87,
4998,-0.795,-0.85,
4999,-0.785,-0.82,
5000,-0.775,-0.81,
5001,-0.77,-0.81,
5002,-0.76,-0.81,
5003,-0.765,-0.815,
5004,-0.75,-0.81,
5005,-0.765,-0.795,
5006,-0.76,-0.775,
5007,-0.76,-0.76,
5008,-0.735,-0.725,
5009,-0.735,-0.705,
5010,-0.735,-0.69,
5011,-0.73,-0.695,
5012,-0.725,-0.705,
5013,-0.73,-0.705,
5014,-0.725,-0.715,
5015,-0.735,-0.72,
5016,-0.75,-0.72,
5017,-0.75,-0.715,
5018,-0.78,-0.72,
5019,-0.76,-0.7,
5020,-0.75,-0.67,
5021,-0.76,-0.66,
5022,-0.74,-0.66,
5023,-0.73,-0.645,
5024,-0.705,-0.675,
5025,-0.715,-0.685,
5026,-0.72,-0.685,
5027,-0.75,-0.7,
5028,-0.77,-0.69,
5029,-0.785,-0.705,
5030,-0.785,-0.73,
5031,-0.78,-0.725,
5032,-0.775,-0.705,
5033,-0.76,-0.685,
5034,-0.745,-0.675,
5035,-0.735,-0.655,
5036,-0.73,-0.66,
5037,-0.74,-0.675,
5038,-0.745,-0.675,
5039,-0.775,-0.695,
5040,-0.79,-0.695,
5041,-0.805,-0.7,
5042,-0.82,-0.715,
5043,-0.805,-0.74,
5044,-0.785,-0.74,
5045,-0.775,-0.755,
5046,-0.765,-0.745,
5047,-0.8,-0.71,
5048,-0.795,-0.7,
5049,-0.795,-0.72,
5050,-0.795,-0.715,
5051,-0.8,-0.73,
5052,-0.795,-0.735,
5053,-0.805,-0.745,
5054,-0.805,-0.735,
5055,-0.795,-0.735,
5056,-0.8,-0.725,
5057,-0.8,-0.715,
5058,-0.785,-0.705,
5059,-0.77,-0.695,
5060,-0.76,-0.725,
5061,-0.765,-0.715,
5062,-0.765,-0.725,
5063,-0.77,-0.725,
5064,-0.79,-0.72,
5065,-0.795,-0.72,
5066,-0.79,-0.725,
5067,-0.78,-0.72,
5068,-0.75,-0.7,
5069,-0.755,-0.695,
5070,-0.735,-0.68,
5071,-0.745,-0.68,
5072,-0.73,-0.695,
5073,-0.73,-0.695,
5074,-0.735,-0.705,
5075,-0.755,-0.695,
5076,-0.745,-0.72,
5077,-0.77,-0.725,
5078,-0.78,-0.73,
5079,-0.75,-0.72,
5080,-0.75,-0.695,
5081,-0.735,-0.67,
5082,-0.735,-0.67,
5083,-0.735,-0.69,
5084,-0.725,-0.735,
5085,-0.725,-0.74,
5086,-0.735,-0.73,
5087,-0.73,-0.74,
5088,-0.72,-0.745,
5089,-0.73,-0.755,
5090,-0.715,-0.75,
5091,-0.68,-0.765,
5092,-0.675,-0.76,
5093,-0.655,-0.755,
5094,-0.63,-0.755,
5095,-0.63,-0.74,
5096,-0.625,-0.76,
5097,-0.64,-0.77,
5098,-0.615,-0.77,
5099,-0.62,-0.755,
5100,-0.605,-0.74,
5101,-0.63,-0.72,
5102,-0.61,-0.68,
5103,-0.62,-0.675,
5104,-0.625,-0.675,
5105,-0.625,-0.675,
5106,-0.63,-0.68,
5107,-0.64,-0.695,
5108,-0.63,-0.695,
5109,-0.615,-0.66,
5110,-0.58,-0.64,
5111,-0.57,-0.62,
5112,-0.57,-0.61,
5113,-0.61,-0.62,
5114,-0.64,-0.635,
5115,-0.675,-0.62,
5116,-0.695,-0.615,
5117,-0.7,-0.62,
5118,-0.71,-0.625,
5119,-0.71,-0.66,
5120,-0.705,-0.68,
5121,-0.72,-0.69,
5122,-0.735,-0.705,
5123,-0.765,-0.7,
5124,-0.805,-0.69,
5125,-0.825,-0.695,
5126,-0.84,-0.675,
5127,-0.86,-0.705,
5128,-0.865,-0.7,
5129,-0.845,-0.66,
5130,-0.83,-0.625,
5131,-0.8,-0.64,
5132,-0.785,-0.71,
5133,-0.795,-0.78,
5134,-0.795,-0.8,
5135,-0.81,-0.825,
5136,-0.84,-0.79,
5137,-0.87,-0.745,
5138,-0.875,-0.72,
5139,-0.905,-0.72,
5140,-0.91,-0.705,
5141,-0.905,-0.705,
5142,-0.88,-0.67,
5143,-0.84,-0.615,
5144,-0.825,-0.595,
5145,-0.795,-0.63,
5146,-0.79,-0.685,
5147,-0.805,-0.735,
5148,-0.82,-0.8,
5149,-0.835,-0.86,
5150,-0.835,-0.905,
5151,-0.84,-0.9,
5152,-0.82,-0.85,
5153,-0.81,-0.815,
5154,-0.815,-0.79,
5155,-0.845,-0.82,
5156,-0.885,-0.885,
5157,-0.905,-0.985,
5158,-0.9,-1.11,
5159,-0.83,-1.275,
5160,-0.71,-1.455,
5161,-0.59,-1.635,
5162,-0.45,-1.77,
5163,-0.32,-1.835,
5164,-0.27,-1.785,
5165,-0.27,-1.665,
5166,-0.29,-1.455,
5167,-0.29,-1.255,
5168,-0.235,-1.165,
5169,-0.08,-1.11,
5170,0.1,-1.01,
5171,0.32,-0.805,R
5172,0.455,-0.505,
5173,0.46,-0.15,
5174,0.295,0.12,
5175,-0.02,0.28,
5176,-0.43,0.245,
5177,-0.835,0.08,
5178,-1.17,-0.155,
5179,-1.365,-0.335,
5180,-1.49,-0.485,
5181,-1.57,-0.55,
5182,-1.63,-0.625,
5183,-1.705,-0.69,
5184,-1.775,-0.735,
5185,-1.83,-0.785,
5186,-1.88,-0.845,
5187,-1.9,-0.895,
5188,-1.895,-0.91,
5189,-1.86,-0.885,
5190,-1.83,-0.865,
5191,-1.805,-0.835,
5192,-1.79,-0.84,
5193,-1.775,-0.86,
5194,-1.74,-0.895,
5195,-1.69,-0.925,
5196,-1.615,-0.955,
5197,-1.54,-0.945,
5198,-1.435,-0.905,
5199,-1.34,-0.8,
5200,-1.175,-0.665,
5201,-1.05,-0.57,
5202,-0.96,-0.565,
5203,-0.925,-0.64,
5204,-0.91,-0.72,
5205,-0.9,-0.77,
5206,-0.895,-0.78,
5207,-0.885,-0.75,
5208,-0.875,-0.715,
5209,-0.87,-0.7,
5210,-0.855,-0.695,
5211,-0.88,-0.7,
5212,-0.88,-0.685,
5213,-0.89,-0.68,
5214,-0.87,-0.66,
5215,-0.87,-0.635,
5216,-0.865,-0.645,
5217,-0.86,-0.665,
5218,-0.87,-0.705,
5219,-0.915,-0.755,
5220,-0.92,-0.745,
5221,-0.91,-0.73,
5222,-0.92,-0.715,
5223,-0.89,-0.685,
5224,-0.88,-0.69,
5225,-0.88,-0.71,
5226,-0.87,-0.725,
5227,-0.875,-0.745,
5228,-0.88,-0.76,
5229,-0.89,-0.77,
5230,-0.915,-0.78,
5231,-0.95,-0.765,
5232,-0.975,-0.78,
5233,-0.99,-0.82,
5234,-0.995,-0.89,
5235,-1.005,-0.93,
5236,-1.0,-0.945,
5237,-1.015,-0.94,
5238,-1.03,-0.91,
5239,-1.03,-0.9,
5240,-1.015,-0.885,
5241,-1.01,-0.905,
5242,-1.01,-0.925,
5243,-1.025,-0.965,
5244,-1.06,-0.97,
5245,-1.075,-0.99,
5246,-1.095,-1.0,
5247,-1.11,-0.995,
5248,-1.11,-0.995,
5249,-1.105,-1.0,
5250,-1.08,-1.03,
5251,-1.065,-1.035,
5252,-1.045,-1.065,
5253,-1.065,-1.07,
5254,-1.075,-1.04,
5255,-1.105,-1.06,
5256,-1.125,-1.04,
5257,-1.16,-1.025,
5258,-1.155,-1.0,
5259,-1.15,-1.02,
5260,-1.12,-1.075,
5261,-1.11,-1.12,
5262,-1.105,-1.145,
5263,-1.105,-1.105,
5264,-1.1,-1.065,
5265,-1.095,-1.015,
5266,-1.06,-1.015,
5267,-1.05,-1.04,
5268,-1.02,-1.06,
5269,-1.015,-1.085,
5270,-1.0,-1.085,
5271,-1.025,-1.05,
5272,-1.03,-1.005,
5273,-1.035,-0.98,
5274,-0.99,-0.95,
5275,-0.95,-0.905,
5276,-0.905,-0.885,
5277,-0.875,-0.87,
5278,-0.865,-0.895,
5279,-0.87,-0.93,
5280,-0.87,-0.955,
5281,-0.87,-0.96,
5282,-0.88,-0.935,
5283,-0.895,-0.885,
5284,-0.89,-0.825,
5285,-0.885,-0.78,
5286,-0.855,-0.74,
5287,-0.845,-0.75,
5288,-0.81,-0.77,
5289,-0.795,-0.785,
5290,-0.76,-0.785,
5291,-0.765,-0.78,
5292,-0.78,-0.78,
5293,-0.775,-0.765,
5294,-0.79,-0.765,
5295,-0.79,-0.745,
5296,-0.81,-0.745,
5297,-0.795,-0.725,
5298,-0.785,-0.715,
5299,-0.755,-0.695,
5300,-0.735,-0.68,
5301,-0.745,-0.68,
5302,-0.745,-0.715,
5303,-0.775,-0.745,
5304,-0.795,-0.75,
5305,-0.805,-0.76,
5306,-0.825,-0.755,
5307,-0.82,-0.76,
5308,-0.82,-0.75,
5309,-0.81,-0.735,
5310,-0.795,-0.715,
5311,-0.79,-0.69,
5312,-0.81,-0.695,
5313,-0.785,-0.695,
5314,-0.77,-0.715,
5315,-0.76,-0.745,
5316,-0.78,-0.79,
5317,-0.815,-0.79,
5318,-0.82,-0.77,
5319,-0.84,-0.725,
5320,-0.84,-0.685,
5321,-0.86,-0.69,
5322,-0.85,-0.665,
5323,-0.845,-0.69,
5324,-0.84,-0.695,
5325,-0.84,-0.69,
5326,-0.855,-0.675,
5327,-0.86,-0.715,
5328,-0.865,-0.725,
5329,-0.87,-0.705,
5330,-0.88,-0.695,
5331,-0.88,-0.7,
5332,-0.885,-0.74,
5333,-0.865,-0.77,
5334,-0.85,-0.785,
5335,-0.825,-0.78,
5336,-0.825,-0.8,
5337,-0.81,-0.82,
5338,-0.82,-0.81,
5339,-0.83,-0.815,
5340,-0.84,-0.795,
5341,-0.855,-0.795,
5342,-0.88,-0.78,
5343,-0.865,-0.78,
5344,-0.865,-0.74,
5345,-0.87,-0.705,
5346,-0.825,-0.7,
5347,-0.815,-0.705,
5348,-0.805,-0.735,
5349,-0.81,-0.745,
5350,-0.835,-0.75,
5351,-0.85,-0.75,
5352,-0.865,-0.72,
5353,-0.87,-0.71,
5354,-0.865,-0.72,
5355,-0.845,-0.725,
5356,-0.84,-0.745,
5357,-0.83,-0.77,
5358,-0.82,-0.755,
5359,-0.805,-0.735,
5360,-0.78,-0.735,
5361,-0.775,-0.725,
5362,-0.77,-0.74,
5363,-0.79,-0.76,
5364,-0.82,-0.765,
5365,-0.83,-0.75,
5366,-0.86,-0.74,
5367,-0.86,-0.72,
5368,-0.845,-0.69,
5369,-0.84,-0.68,
5370,-0.81,-0.69,
5371,-0.805,-0.725,
5372,-0.8,-0.77,
5373,-0.79,-0.785,
5374,-0.8,-0.795,
5375,-0.795,-0.77,
5376,-0.79,-0.77,
5377,-0.775,-0.775,
5378,-0.775,-0.77,
5379,-0.755,-0.785,
5380,-0.75,-0.775,
5381,-0.725,-0.775,
5382,-0.7,-0.8,
5383,-0.665,-0.805,
5384,-0.67,-0.795,
5385,-0.675,-0.79,
5386,-0.665,-0.785,
5387,-0.67,-0.75,
5388,-0.66,-0.73,
5389,-0.655,-0.72,
5390,-0.645,-0.7,
5391,-0.635,-0.675,
5392,-0.62,-0.685,
5393,-0.63,-0.695,
5394,-0.64,-0.685,
5395,-0.655,-0.7,
5396,-0.695,-0.715,
5397,-0.735,-0.71,
5398,-0.735,-0.68,
5399,-0.74,-0.66,
5400,-0.72,-0.645,
5401,-0.7,-0.61,
5402,-0.69,-0.565,
5403,-0.68,-0.52,
5404,-0.685,-0.5,
5405,-0.675,-0.53,
5406,-0.69,-0.615,
5407,-0.705,-0.695,
5408,-0.715,-0.745,
5409,-0.75,-0.745,
5410,-0.775,-0.73,
5411,-0.79,-0.705,
5412,-0.795,-0.68,
5413,-0.82,-0.7,
5414,-0.84,-0.705,
5415,-0.88,-0.705,
5416,-0.885,-0.705,
5417,-0.9,-0.73,
5418,-0.89,-0.75,
5419,-0.905,-0.74,
5420,-0.9,-0.715,
5421,-0.905,-0.705,
5422,-0.895,-0.715,
5423,-0.88,-0.75,
5424,-0.895,-0.79,
5425,-0.89,-0.805,
5426,-0.895,-0.805,
5427,-0.9,-0.795,
5428,-0.9,-0.78,
5429,-0.905,-0.785,
5430,-0.915,-0.785,
5431,-0.93,-0.73,
5432,-0.93,-0.695,
5433,-0.935,-0.71,
5434,-0.925,-0.75,
5435,-0.915,-0.775,
5436,-0.905,-0.8,
5437,-0.905,-0.805,
5438,-0.925,-0.795,
5439,-0.93,-0.79,
5440,-0.935,-0.78,
5441,-0.92,-0.78,
5442,-0.9,-0.755,
5443,-0.865,-0.75,
5444,-0.87,-0.78,
5445,-0.9,-0.79,
5446,-0.925,-0.815,
5447,-0.975,-0.84,
5448,-1.005,-0.885,
5449,-1.015,-0.965,
5450,-0.99,-1.05,
5451,-0.955,-1.145,
5452,-0.865,-1.25,
5453,-0.76,-1.39,
5454,-0.625,-1.555,
5455,-0.5,-1.675,
5456,-0.41,-1.79,
5457,-0.365,-1.83,
5458,-0.37,-1.795,
5459,-0.405,-1.665,
5460,-0.415,-1.465,
5461,-0.335,-1.245,
5462,-0.195,-1.05,
5463,0.0,-0.89,
5464,0.215,-0.715,R
5465,0.375,-0.47,
5466,0.42,-0.21,
5467,0.305,0.03,
5468,0.005,0.19,
5469,-0.435,0.24,
5470,-0.895,0.125,
5471,-1.29,-0.06,
5472,-1.55,-0.3,
5473,-1.69,-0.515,
5474,-1.795,-0.65,
5475,-1.855,-0.735,
5476,-1.89,-0.785,
5477,-1.93,-0.815,
5478,-1.975,-0.865,
5479,-1.995,-0.895,
5480,-1.99,-0.91,
5481,-1.995,-0.955,
5482,-1.98,-0.94,
5483,-1.965,-0.94,
5484,-1.955,-0.94,
5485,-1.97,-0.93,
5486,-1.97,-0.95,
5487,-1.955,-0.955,
5488,-1.905,-0.955,
5489,-1.825,-0.945,
5490,-1.69,-0.935,
5491,-1.545,-0.88,
5492,-1.38,-0.835,
5493,-1.27,-0.79,
5494,-1.16,-0.735,
5495,-1.09,-0.71,
5496,-1.055,-0.69,
5497,-1.035,-0.71,
5498,-1.025,-0.715,
5499,-1.025,-0.745,
5500,-1.025,-0.73,
5501,-1.005,-0.705,
5502,-0.995,-0.685,
5503,-0.98,-0.66,
5504,-0.965,-0.65,
5505,-0.94,-0.655,
5506,-0.95,-0.66,
5507,-0.975,-0.67,
5508,-0.975,-0.685,
5509,-0.98,-0.68,
5510,-0.99,-0.7,
5511,-1.01,-0.7,
5512,-1.015,-0.71,
5513,-0.98,-0.71,
5514,-0.97,-0.705,
5515,-0.965,-0.705,
5516,-0.965,-0.71,
5517,-0.96,-0.725,
5518,-0.965,-0.735,
5519,-0.995,-0.785,
5520,-1.015,-0.8,
5521,-1.03,-0.805,
5522,-1.055,-0.81,
5523,-1.065,-0.83,
5524,-1.05,-0.83,
5525,-1.065,-0.83,
5526,-1.07,-0.83,
5527,-1.05,-0.855,
5528,-1.06,-0.855,
5529,-1.065,-0.865,
5530,-1.08,-0.905,
5531,-1.095,-0.92,
5532,-1.11,-0.94,
5533,-1.13,-0.96,
5534,-1.145,-0.975,
5535,-1.16,-0.98,
5536,-1.16,-0.975,
5537,-1.185,-0.98,
5538,-1.18,-0.98,
5539,-1.185,-0.975,
5540,-1.19,-0.975,
5541,-1.17,-0.995,
5542,-1.17,-1.005,
5543,-1.19,-1.03,
5544,-1.205,-1.025,
5545,-1.22,-1.025,
5546,-1.235,-1.05,
5547,-1.235,-1.06,
5548,-1.25,-1.055,
5549,-1.25,-1.055,
5550,-1.225,-1.055,
5551,-1.215,-1.04,
5552,-1.195,-1.035,
5553,-1.195,-1.045,
5554,-1.195,-1.04,
5555,-1.195,-1.06,
5556,-1.19,-1.07,
5557,-1.19,-1.065,
5558,-1.175,-1.04,
5559,-1.18,-1.035,
5560,-1.17,-1.02,
5561,-1.16,-1.02,
5562,-1.125,-1.0,
5563,-1.11,-0.995,
5564,-1.105,-0.995,
5565,-1.07,-0.98,
5566,-1.065,-0.975,
5567,-1.065,-0.965,
5568,-1.05,-0.95,
5569,-1.04,-0.945,
5570,-1.01,-0.93,
5571,-0.985,-0.91,
5572,-0.985,-0.905,
5573,-0.965,-0.875,
5574,-0.955,-0.85,
5575,-0.945,-0.835,
5576,-0.935,-0.835,
5577,-0.935,-0.81,
5578,-0.915,-0.82,
5579,-0.905,-0.815,
5580,-0.92,-0.82,
5581,-0.915,-0.775,
5582,-0.91,-0.785,
5583,-0.925,-0.775,
5584,-0.915,-0.755,
5585,-0.9,-0.75,
5586,-0.895,-0.725,
5587,-0.89,-0.72,
5588,-0.86,-0.74,
5589,-0.855,-0.725,
5590,-0.875,-0.735,
5591,-0.885,-0.73,
5592,-0.905,-0.725,
5593,-0.92,-0.715,
5594,-0.925,-0.715,
5595,-0.925,-0.725,
5596,-0.915,-0.715,
5597,-0.9,-0.725,
5598,-0.895,-0.705,
5599,-0.885,-0.71,
5600,-0.915,-0.705,
5601,-0.915,-0.73,
5602,-0.915,-0.715,
5603,-0.91,-0.73,
5604,-0.905,-0.74,
5605,-0.92,-0.71,
5606,-0.93,-0.72,
5607,-0.955,-0.7,
5608,-0.945,-0.68,
5609,-0.935,-0.67,
5610,-0.93,-0.675,
5611,-0.92,-0.655,
5612,-0.925,-0.675,
5613,-0.92,-0.69,
5614,-0.91,-0.705,
5615,-0.91,-0.725,
5616,-0.94,-0.715,
5617,-0.945,-0.725,
5618,-0.94,-0.715,
5619,-0.95,-0.7,
5620,-0.945,-0.68,
5621,-0.935,-0.71,
5622,-0.94,-0.685,
5623,-0.935,-0.695,
5624,-0.91,-0.68,
5625,-0.92,-0.69,
5626,-0.915,-0.69,
5627,-0.935,-0.69,
5628,-0.93,-0.7,
5629,-0.96,-0.73,
5630,-0.965,-0.73,
5631,-0.97,-0.725,
5632,-0.975,-0.715,
5633,-0.96,-0.725,
5634,-0.93,-0.695,
5635,-0.93,-0.695,
5636,-0.935,-0.695,
5637,-0.915,-0.71,
5638,-0.935,-0.7,
5639,-0.915,-0.74,
5640,-0.94,-0.77,
5641,-0.92,-0.755,
5642,-0.92,-0.76,
5643,-0.925,-0.74,
5644,-0.935,-0.715,
5645,-0.925,-0.69,
5646,-0.91,-0.67,
5647,-0.905,-0.665,
5648,-0.88,-0.68,
5649,-0.845,-0.705,
5650,-0.83,-0.705,
5651,-0.825,-0.72,
5652,-0.835,-0.73,
5653,-0.85,-0.75,
5654,-0.88,-0.755,
5655,-0.905,-0.75,
5656,-0.9,-0.74,
5657,-0.905,-0.74,
5658,-0.885,-0.725,
5659,-0.875,-0.7,
5660,-0.875,-0.705,
5661,-0.88,-0.69,
5662,-0.89,-0.69,
5663,-0.915,-0.68,
5664,-0.95,-0.695,
5665,-0.97,-0.685,
5666,-0.975,-0.69,
5667,-0.98,-0.68,
5668,-0.965,-0.655,
5669,-0.96,-0.655,
5670,-0.95,-0.655,
5671,-0.945,-0.63,
5672,-0.93,-0.63,
5673,-0.93,-0.63,
5674,-0.94,-0.635,
5675,-0.945,-0.625,
5676,-0.95,-0.645,
5677,-0.94,-0.65,
5678,-0.95,-0.69,
5679,-0.94,-0.665,
5680,-0.94,-0.665,
5681,-0.915,-0.665,
5682,-0.895,-0.655,
5683,-0.885,-0.64,
5684,-0.855,-0.64,
5685,-0.82,-0.64,
5686,-0.785,-0.625,
5687,-0.76,-0.62,
5688,-0.76,-0.615,
5689,-0.75,-0.58,
5690,-0.755,-0.57,
5691,-0.775,-0.55,
5692,-0.795,-0.555,
5693,-0.8,-0.565,
5694,-0.82,-0.575,
5695,-0.83,-0.605,
5696,-0.825,-0.595,
5697,-0.815,-0.59,
5698,-0.805,-0.575,
5699,-0.8,-0.56,
5700,-0.78,-0.535,
5701,-0.785,-0.5,
5702,-0.78,-0.485,
5703,-0.8,-0.47,
5704,-0.805,-0.455,
5705,-0.835,-0.475,
5706,-0.84,-0.505,
5707,-0.87,-0.535,
5708,-0.91,-0.57,
5709,-0.935,-0.605,
5710,-0.96,-0.58,
5711,-0.955,-0.615,
5712,-0.97,-0.605,
5713,-0.98,-0.61,
5714,-1.0,-0.615,
5715,-1.01,-0.605,
5716,-1.015,-0.625,
5717,-1.02,-0.615,
5718,-1.015,-0.63,
5719,-1.0,-0.625,
5720,-1.005,-0.63,
5721,-1.0,-0.635,
5722,-1.01,-0.63,
5723,-1.0,-0.63,
5724,-1.02,-0.645,
5725,-1.03,-0.645,
5726,-1.04,-0.645,
5727,-1.035,-0.64,
5728,-1.035,-0.64,
5729,-1.02,-0.635,
5730,-1.02,-0.625,
5731,-1.015,-0.615,
5732,-1.015,-0.62,
5733,-1.025,-0.61,
5734,-1.055,-0.615,
5735,-1.04,-0.635,
5736,-1.05,-0.65,
5737,-1.04,-0.655,
5738,-1.04,-0.655,
5739,-1.04,-0.64,
5740,-1.035,-0.62,
5741,-1.02,-0.62,
5742,-1.015,-0.6,
5743,-1.015,-0.6,
5744,-1.02,-0.615,
5745,-1.025,-0.66,
5746,-1.05,-0.715,
5747,-1.07,-0.785,
5748,-1.075,-0.84,
5749,-1.075,-0.915,
5750,-1.015,-1.025,
5751,-0.925,-1.135,
5752,-0.795,-1.24,
5753,-0.65,-1.355,
5754,-0.495,-1.47,
5755,-0.37,-1.53,
5756,-0.28,-1.53,
5757,-0.295,-1.45,
5758,-0.32,-1.33,
5759,-0.325,-1.2,
5760,-0.295,-1.07,
5761,-0.185,-0.92,
5762,-0.03,-0.72,R
5763,0.105,-0.44,
5764,0.155,-0.13,
5765,0.055,0.15,
5766,-0.25,0.32,
5767,-0.685,0.32,
5768,-1.155,0.135,
5769,-1.56,-0.135,
5770,-1.86,-0.4,
5771,-2.02,-0.59,
5772,-2.1,-0.735,
5773,-2.135,-0.78,
5774,-2.145,-0.81,
5775,-2.18,-0.835,
5776,-2.19,-0.845,
5777,-2.215,-0.87,
5778,-2.215,-0.89,
5779,-2.195,-0.895,
5780,-2.19,-0.88,
5781,-2.185,-0.87,
5782,-2.18,-0.865,
5783,-2.17,-0.87,
5784,-2.145,-0.87,
5785,-2.125,-0.895,
5786,-2.05,-0.895,
5787,-1.97,-0.895,
5788,-1.86,-0.875,
5789,-1.71,-0.81,
5790,-1.56,-0.745,
5791,-1.43,-0.67,
5792,-1.315,-0.61,
5793,-1.25,-0.59,
5794,-1.195,-0.565,
5795,-1.175,-0.57,
5796,-1.18,-0.565,
5797,-1.17,-0.57,
5798,-1.175,-0.575,
5799,-1.175,-0.545,
5800,-1.15,-0.535,
5801,-1.135,-0.54,
5802,-1.11,-0.54,
5803,-1.09,-0.535,
5804,-1.08,-0.54,
5805,-1.085,-0.555,
5806,-1.09,-0.56,
5807,-1.11,-0.58,
5808,-1.12,-0.59,
5809,-1.13,-0.635,
5810,-1.13,-0.635,
5811,-1.135,-0.61,
5812,-1.14,-0.62,
5813,-1.135,-0.605,
5814,-1.125,-0.6,
5815,-1.115,-0.6,
5816,-1.11,-0.615,
5817,-1.125,-0.63,
5818,-1.13,-0.645,
5819,-1.155,-0.655,
5820,-1.16,-0.705,
5821,-1.18,-0.725,
5822,-1.205,-0.75,
5823,-1.21,-0.74,
5824,-1.24,-0.73,
5825,-1.24,-0.74,
5826,-1.21,-0.745,
5827,-1.215,-0.775,
5828,-1.21,-0.785,
5829,-1.215,-0.79,
5830,-1.23,-0.82,
5831,-1.26,-0.845,
5832,-1.28,-0.86,
5833,-1.295,-0.87,
5834,-1.325,-0.86,
5835,-1.335,-0.865,
5836,-1.33,-0.85,
5837,-1.34,-0.86,
5838,-1.345,-0.895,
5839,-1.35,-0.88,
5840,-1.315,-0.9,
5841,-1.325,-0.905,
5842,-1.335,-0.925,
5843,-1.33,-0.915,
5844,-1.33,-0.93,
5845,-1.325,-0.925,
5846,-1.34,-0.945,
5847,-1.34,-0.935,
5848,-1.345,-0.93,
5849,-1.345,-0.91,
5850,-1.345,-0.92,
5851,-1.34,-0.93,
5852,-1.31,-0.91,
5853,-1.295,-0.92,
5854,-1.29,-0.93,
5855,-1.27,-0.93,
5856,-1.285,-0.935,
5857,-1.275,-0.935,
5858,-1.29,-0.94,
5859,-1.265,-0.925,
5860,-1.245,-0.905,
5861,-1.205,-0.9,
5862,-1.175,-0.885,
5863,-1.155,-0.845,
5864,-1.135,-0.83,
5865,-1.12,-0.83,
5866,-1.11,-0.81,
5867,-1.105,-0.78,
5868,-1.095,-0.775,
5869,-1.09,-0.76,
5870,-1.095,-0.755,
5871,-1.085,-0.73,
5872,-1.09,-0.73,
5873,-1.065,-0.715,
5874,-1.05,-0.695,
5875,-1.015,-0.66,
5876,-1.015,-0.65,
5877,-1.01,-0.625,
5878,-1.01,-0.625,
5879,-1.02,-0.63,
5880,-1.02,-0.635,
5881,-1.035,-0.62,
5882,-1.02,-0.635,
5883,-1.02,-0.63,
5884,-1.01,-0.62,
5885,-1.015,-0.62,
5886,-1.01,-0.595,
5887,-1.005,-0.595,
5888,-0.99,-0.585,
5889,-0.985,-0.59,
5890,-1.0,-0.58,
5891,-1.0,-0.585,
5892,-0.99,-0.58,
5893,-1.005,-0.6,
5894,-1.005,-0.595,
5895,-1.02,-0.57,
5896,-1.025,-0.57,
5897,-1.025,-0.57,
5898,-1.015,-0.54,
5899,-1.015,-0.55,
5900,-1.0,-0.545,
5901,-1.0,-0.54,
5902,-1.015,-0.56,
5903,-1.03,-0.555,
5904,-1.05,-0.585,
5905,-1.075,-0.59,
5906,-1.06,-0.59,
5907,-1.055,-0.6,
5908,-1.04,-0.595,
5909,-1.02,-0.575,
5910,-1.02,-0.575,
5911,-1.01,-0.565,
5912,-1.025,-0.565,
5913,-1.035,-0.545,
5914,-1.045,-0.56,
5915,-1.045,-0.58,
5916,-1.06,-0.59,
5917,-1.045,-0.61,
5918,-1.04,-0.625,
5919,-1.045,-0.64,
5920,-1.04,-0.635,
5921,-1.03,-0.615,
5922,-1.03,-0.59,
5923,-1.035,-0.595,
5924,-1.025,-0.565,
5925,-1.04,-0.575,
5926,-1.03,-0.59,
5927,-1.045,-0.58,
5928,-1.05,-0.605,
5929,-1.06,-0.6,
5930,-1.08,-0.605,
5931,-1.08,-0.605,
5932,-1.065,-0.605,
5933,-1.045,-0.61,
5934,-1.04,-0.595,
5935,-1.025,-0.595,
5936,-1.015,-0.595,
5937,-1.03,-0.6,
5938,-1.035,-0.62,
5939,-1.055,-0.63,
5940,-1.06,-0.63,
5941,-1.05,-0.625,
5942,-1.045,-0.61,
5943,-1.05,-0.59,
5944,-1.06,-0.605,
5945,-1.06,-0.59,
5946,-1.055,-0.595,
5947,-1.045,-0.585,
5948,-1.025,-0.58,
5949,-1.025,-0.58,
5950,-1.025,-0.595,
5951,-1.015,-0.605,
5952,-1.01,-0.6,
5953,-1.03,-0.595,
5954,-1.045,-0.595,
5955,-1.055,-0.585,
5956,-1.06,-0.595,
5957,-1.065,-0.56,
5958,-1.055,-0.565,
5959,-1.02,-0.55,
5960,-1.025,-0.56,
5961,-1.025,-0.55,
5962,-1.015,-0.55,
5963,-1.03,-0.57,
5964,-1.035,-0.58,
5965,-1.05,-0.61,
5966,-1.045,-0.62,
5967,-1.05,-0.61,
5968,-1.05,-0.605,
5969,-1.04,-0.605,
5970,-1.015,-0.59,
5971,-1.005,-0.575,
5972,-0.975,-0.575,
5973,-0.98,-0.595,
5974,-0.98,-0.61,
5975,-0.97,-0.645,
5976,-0.98,-0.675,
5977,-0.98,-0.7,
5978,-0.975,-0.705,
5979,-0.97,-0.72,
5980,-0.97,-0.69,
5981,-0.96,-0.67,
5982,-0.915,-0.625,
5983,-0.885,-0.58,
5984,-0.86,-0.54,
5985,-0.83,-0.54,
5986,-0.825,-0.52,
5987,-0.83,-0.545,
5988,-0.875,-0.55,
5989,-0.91,-0.57,
5990,-0.94,-0.595,
5991,-0.975,-0.585,
5992,-0.995,-0.55,
5993,-0.99,-0.52,
5994,-0.94,-0.505,
5995,-0.91,-0.5,
5996,-0.88,-0.485,
5997,-0.85,-0.505,
5998,-0.835,-0.49,
5999,-0.83,-0.505,
6000,-0.865,-0.505,
6001,-0.925,-0.525,
6002,-0.955,-0.55,
6003,-1.01,-0.545,
6004,-1.04,-0.53,
6005,-1.05,-0.535,
6006,-1.05,-0.525,
6007,-1.04,-0.53,
6008,-1.035,-0.54,
6009,-1.035,-0.555,
6010,-1.045,-0.56,
6011,-1.055,-0.56,
6012,-1.075,-0.565,
6013,-1.09,-0.575,
6014,-1.095,-0.56,
6015,-1.1,-0.57,
6016,-1.115,-0.58,
6017,-1.105,-0.58,
6018,-1.11,-0.575,
6019,-1.11,-0.58,
6020,-1.105,-0.585,
6021,-1.105,-0.6,
6022,-1.105,-0.595,
6023,-1.125,-0.615,
6024,-1.11,-0.605,
6025,-1.125,-0.63,
6026,-1.105,-0.625,
6027,-1.11,-0.635,
6028,-1.11,-0.6,
6029,-1.115,-0.61,
6030,-1.11,-0.575,
6031,-1.115,-0.585,
6032,-1.09,-0.59,
6033,-1.085,-0.6,
6034,-1.095,-0.615,
6035,-1.1,-0.635,
6036,-1.1,-0.635,
6037,-1.115,-0.64,
6038,-1.12,-0.655,
6039,-1.12,-0.655,
6040,-1.135,-0.665,
6041,-1.13,-0.685,
6042,-1.125,-0.73,
6043,-1.13,-0.77,
6044,-1.11,-0.87,
6045,-1.1,-0.98,
6046,-1.04,-1.085,
6047,-0.945,-1.22,
6048,-0.81,-1.33,
6049,-0.67,-1.435,
6050,-0.515,-1.515,
6051,-0.43,-1.505,
6052,-0.415,-1.45,
6053,-0.395,-1.305,
6054,-0.405,-1.165,
6055,-0.34,-1.02,
6056,-0.21,-0.855,
6057,-0.08,-0.67,R
6058,0.045,-0.4,
6059,0.115,-0.095,
6060,0.04,0.22,
6061,-0.19,0.41,
6062,-0.58,0.425,
6063,-1.05,0.295,
6064,-1.48,0.055,
6065,-1.72,-0.2,
6066,-1.88,-0.41,
6067,-1.925,-0.56,
6068,-1.93,-0.635,
6069,-1.95,-0.68,
6070,-1.995,-0.72,
6071,-2.04,-0.735,
6072,-2.07,-0.735,
6073,-2.08,-0.76,
6074,-2.12,-0.775,
6075,-2.2,-0.75,
6076,-2.29,-0.75,
6077,-2.31,-0.75,
6078,-2.275,-0.77,
6079,-2.195,-0.815,
6080,-2.075,-0.88,
6081,-1.98,-0.93,
6082,-1.86,-0.925,
6083,-1.73,-0.905,
6084,-1.635,-0.87,
6085,-1.555,-0.8,
6086,-1.51,-0.725,
6087,-1.43,-0.65,
6088,-1.315,-0.585,
6089,-1.24,-0.57,
6090,-1.18,-0.52,
6091,-1.17,-0.57,
6092,-1.165,-0.59,
6093,-1.195,-0.605,
6094,-1.235,-0.63,
6095,-1.245,-0.65,
6096,-1.24,-0.645,
6097,-1.225,-0.635,
6098,-1.195,-0.615,
6099,-1.19,-0.565,
6100,-1.205,-0.54,
6101,-1.27,-0.535,
6102,-1.29,-0.525,
6103,-1.27,-0.545,
6104,-1.2,-0.59,
6105,-1.16,-0.62,
6106,-1.135,-0.655,
6107,-1.145,-0.675,
6108,-1.145,-0.68,
6109,-1.17,-0.67,
6110,-1.185,-0.65,
6111,-1.19,-0.655,
6112,-1.245,-0.68,
6113,-1.265,-0.68,
6114,-1.255,-0.72,
6115,-1.215,-0.73,
6116,-1.175,-0.75,
6117,-1.165,-0.765,
6118,-1.18,-0.77,
6119,-1.26,-0.76,
6120,-1.345,-0.77,
6121,-1.405,-0.795,
6122,-1.405,-0.78,
6123,-1.39,-0.83,
6124,-1.365,-0.845,
6125,-1.335,-0.87,
6126,-1.305,-0.89,
6127,-1.29,-0.9,
6128,-1.26,-0.91,
6129,-1.265,-0.925,
6130,-1.315,-0.935,
6131,-1.38,-0.94,
6132,-1.455,-0.95,
6133,-1.5,-0.945,
6134,-1.46,-0.97,
6135,-1.425,-0.96,
6136,-1.38,-0.97,
6137,-1.37,-0.99,
6138,-1.39,-0.97,
6139,-1.465,-0.97,
6140,-1.54,-0.96,
6141,-1.59,-0.975,
6142,-1.57,-1.01,
6143,-1.5,-1.01,
6144,-1.4,-1.025,
6145,-1.34,-1.025,
6146,-1.33,-1.01,
6147,-1.375,-0.995,
6148,-1.42,-0.98,
6149,-1.42,-0.965,
6150,-1.39,-0.98,
6151,-1.33,-0.975,
6152,-1.25,-0.98,
6153,-1.19,-0.955,
6154,-1.2,-0.94,
6155,-1.23,-0.935,
6156,-1.32,-0.925,
6157,-1.37,-0.915,
6158,-1.355,-0.905,
6159,-1.33,-0.88,
6160,-1.265,-0.88,
6161,-1.215,-0.845,
6162,-1.2,-0.835,
6163,-1.2,-0.805,
6164,-1.195,-0.785,
6165,-1.155,-0.8,
6166,-1.155,-0.77,
6167,-1.165,-0.745,
6168,-1.195,-0.745,
6169,-1.25,-0.72,
6170,-1.27,-0.77,
6171,-1.305,-0.78,
6172,-1.27,-0.8,
6173,-1.225,-0.785,
6174,-1.14,-0.76,
6175,-1.08,-0.75,
6176,-0.99,-0.69,
6177,-0.935,-0.645,
6178,-0.91,-0.605,
6179,-0.91,-0.595,
6180,-0.98,-0.605,
6181,-1.095,-0.625,
6182,-1.2,-0.65,
6183,-1.22,-0.67,
6184,-1.19,-0.665,
6185,-1.12,-0.66,
6186,-1.04,-0.64,
6187,-0.995,-0.615,
6188,-0.96,-0.625,
6189,-0.995,-0.61,
6190,-1.065,-0.625,
6191,-1.14,-0.645,
6192,-1.195,-0.655,
6193,-1.21,-0.645,
6194,-1.17,-0.67,
6195,-1.105,-0.67,
6196,-1.05,-0.66,
6197,-1.025,-0.64,
6198,-1.01,-0.635,
6199,-1.035,-0.62,
6200,-1.055,-0.64,
6201,-1.1,-0.645,
6202,-1.17,-0.645,
6203,-1.225,-0.65,
6204,-1.275,-0.64,
6205,-1.24,-0.61,
6206,-1.19,-0.6,
6207,-1.15,-0.6,
6208,-1.145,-0.59,
6209,-1.19,-0.57,
6210,-1.205,-0.57,
6211,-1.19,-0.59,
6212,-1.135,-0.65,
6213,-1.11,-0.7,
6214,-1.125,-0.77,
6215,-1.13,-0.75,
6216,-1.15,-0.715,
6217,-1.19,-0.675,
6218,-1.205,-0.615,
6219,-1.22,-0.58,
6220,-1.19,-0.57,
6221,-1.145,-0.565,
6222,-1.135,-0.575,
6223,-1.155,-0.565,
6224,-1.185,-0.58,
6225,-1.22,-0.585,
6226,-1.23,-0.585,
6227,-1.21,-0.59,
6228,-1.195,-0.6,
6229,-1.175,-0.63,
6230,-1.17,-0.66,
6231,-1.155,-0.68,
6232,-1.15,-0.66,
6233,-1.165,-0.64,
6234,-1.175,-0.62,
6235,-1.205,-0.61,
6236,-1.195,-0.595,
6237,-1.18,-0.625,
6238,-1.155,-0.665,
6239,-1.15,-0.685,
6240,-1.15,-0.675,
6241,-1.16,-0.635,
6242,-1.17,-0.615,
6243,-1.155,-0.58,
6244,-1.145,-0.565,
6245,-1.115,-0.575,
6246,-1.095,-0.59,
6247,-1.09,-0.595,
6248,-1.11,-0.61,
6249,-1.17,-0.625,
6250,-1.19,-0.63,
6251,-1.18,-0.645,
6252,-1.17,-0.665,
6253,-1.135,-0.665,
6254,-1.105,-0.675,
6255,-1.09,-0.655,
6256,-1.085,-0.61,
6257,-1.12,-0.575,
6258,-1.13,-0.575,
6259,-1.135,-0.585,
6260,-1.125,-0.6,
6261,-1.105,-0.64,
6262,-1.06,-0.68,
6263,-1.045,-0.68,
6264,-1.06,-0.68,
6265,-1.075,-0.68,
6266,-1.12,-0.69,
6267,-1.13,-0.725,
6268,-1.11,-0.72,
6269,-1.09,-0.725,
6270,-1.075,-0.715,
6271,-1.06,-0.7,
6272,-1.045,-0.655,
6273,-1.02,-0.625,
6274,-0.99,-0.625,
6275,-0.975,-0.59,
6276,-1.005,-0.575,
6277,-1.02,-0.575,
6278,-1.06,-0.59,
6279,-1.095,-0.6,
6280,-1.085,-0.615,
6281,-1.085,-0.635,
6282,-1.09,-0.63,
6283,-1.085,-0.615,
6284,-1.075,-0.58,
6285,-1.055,-0.555,
6286,-1.04,-0.535,
6287,-1.025,-0.515,
6288,-1.025,-0.51,
6289,-1.02,-0.525,
6290,-1.015,-0.52,
6291,-1.055,-0.53,
6292,-1.075,-0.545,
6293,-1.12,-0.545,
6294,-1.145,-0.565,
6295,-1.16,-0.575,
6296,-1.175,-0.56,
6297,-1.18,-0.555,
6298,-1.175,-0.575,
6299,-1.185,-0.575,
6300,-1.215,-0.61,
6301,-1.255,-0.65,
6302,-1.285,-0.675,
6303,-1.295,-0.68,
6304,-1.29,-0.67,
6305,-1.275,-0.645,
6306,-1.25,-0.65,
6307,-1.245,-0.63,
6308,-1.265,-0.63,
6309,-1.29,-0.625,
6310,-1.325,-0.61,
6311,-1.34,-0.635,
6312,-1.34,-0.65,
6313,-1.3,-0.66,
6314,-1.28,-0.68,
6315,-1.27,-0.66,
6316,-1.26,-0.645,
6317,-1.28,-0.635,
6318,-1.31,-0.64,
6319,-1.345,-0.625,
6320,-1.345,-0.63,
6321,-1.33,-0.625,
6322,-1.315,-0.625,
6323,-1.305,-0.66,
6324,-1.295,-0.68,
6325,-1.3,-0.69,
6326,-1.31,-0.685,
6327,-1.335,-0.68,
6328,-1.315,-0.645,
6329,-1.31,-0.65,
6330,-1.31,-0.675,
6331,-1.305,-0.665,
6332,-1.285,-0.68,
6333,-1.285,-0.705,
6334,-1.31,-0.71,
6335,-1.325,-0.755,
6336,-1.35,-0.815,
6337,-1.365,-0.9,
6338,-1.295,-0.99,
6339,-1.23,-1.09,
6340,-1.115,-1.23,
6341,-0.975,-1.385,
6342,-0.81,-1.49,
6343,-0.68,-1.545,
6344,-0.58,-1.52,
6345,-0.555,-1.405,
6346,-0.55,-1.265,
6347,-0.56,-1.12,
6348,-0.535,-0.995,
6349,-0.455,-0.89,
6350,-0.31,-0.75,
6351,-0.17,-0.48,R
6352,-0.09,-0.145,
6353,-0.105,0.185,
6354,-0.26,0.415,
6355,-0.52,0.535,
6356,-0.875,0.445,
6357,-1.255,0.235,
6358,-1.585,-0.03,
6359,-1.855,-0.295,
6360,-2.02,-0.49,
6361,-2.105,-0.58,
6362,-2.145,-0.635,
6363,-2.185,-0.67,
6364,-2.215,-0.675,
6365,-2.26,-0.735,
6366,-2.29,-0.75,
6367,-2.325,-0.77,
6368,-2.355,-0.8,
6369,-2.37,-0.81,
6370,-2.355,-0.845,
6371,-2.355,-0.88,
6372,-2.335,-0.9,
6373,-2.355,-0.91,
6374,-2.35,-0.925,
6375,-2.34,-0.925,
6376,-2.27,-0.935,
6377,-2.17,-0.94,
6378,-2.035,-0.92,
6379,-1.885,-0.865,
6380,-1.715,-0.82,
6381,-1.61,-0.745,
6382,-1.535,-0.705,
6383,-1.515,-0.68,
6384,-1.515,-0.675,
6385,-1.545,-0.68,
6386,-1.56,-0.715,
6387,-1.565,-0.71,
6388,-1.54,-0.715,
6389,-1.525,-0.695,
6390,-1.485,-0.635,
6391,-1.48,-0.595,
6392,-1.465,-0.585,
6393,-1.46,-0.605,
6394,-1.48,-0.645,
6395,-1.485,-0.655,
6396,-1.495,-0.675,
6397,-1.505,-0.685,
6398,-1.515,-0.69,
6399,-1.51,-0.695,
6400,-1.51,-0.7,
6401,-1.475,-0.7,
6402,-1.47,-0.73,
6403,-1.465,-0.73,
6404,-1.46,-0.74,
6405,-1.45,-0.75,
6406,-1.445,-0.76,
6407,-1.43,-0.78,
6408,-1.435,-0.81,
6409,-1.46,-0.835,
6410,-1.51,-0.85,
6411,-1.575,-0.845,
6412,-1.62,-0.85,
6413,-1.625,-0.855,
6414,-1.6,-0.86,
