,MLII,V1,symbol
0,-0.995,-0.47,
1,-0.995,-0.47,
2,-0.995,-0.47,
3,-0.995,-0.47,
4,-0.995,-0.47,
5,-0.995,-0.47,
6,-0.995,-0.47,
7,-1.015,-0.47,
8,-0.985,-0.455,
9,-0.985,-0.45,
10,-0.97,-0.445,
11,-0.975,-0.41,
12,-0.97,-0.425,
13,-0.99,-0.415,
14,-1.0,-0.42,
15,-1.02,-0.425,
16,-1.025,-0.445,
17,-1.03,-0.45,
18,-1.045,-0.455,
19,-1.025,-0.445,
20,-1.035,-0.425,
21,-1.015,-0.405,
22,-1.015,-0.4,
23,-0.995,-0.385,
24,-0.99,-0.38,
25,-0.99,-0.385,
26,-0.995,-0.385,
27,-1.005,-0.405,
28,-1.005,-0.4,
29,-1.015,-0.415,
30,-1.01,-0.41,
31,-0.99,-0.405,
32,-1.02,-0.4,+
33,-1.01,-0.38,
34,-1.015,-0.39,
35,-1.0,-0.37,
36,-0.99,-0.375,
37,-0.995,-0.385,
38,-1.01,-0.395,
39,-1.005,-0.415,
40,-1.015,-0.42,
41,-0.995,-0.41,
42,-1.005,-0.415,
43,-1.005,-0.42,
44,-0.985,-0.41,
45,-0.985,-0.37,
46,-0.98,-0.365,
47,-0.96,-0.35,
48,-0.94,-0.37,
49,-0.96,-0.37,
50,-0.94,-0.385,
51,-0.945,-0.38,
52,-0.945,-0.39,
53,-0.94,-0.385,
54,-0.95,-0.405,
55,-0.935,-0.38,
56,-0.915,-0.385,
57,-0.905,-0.37,
58,-0.89,-0.37,
59,-0.875,-0.36,
60,-0.86,-0.38,
61,-0.865,-0.385,
62,-0.86,-0.385,
63,-0.845,-0.38,
64,-0.85,-0.41,
65,-0.85,-0.385,
66,-0.84,-0.375,
67,-0.82,-0.39,
68,-0.805,-0.365,
69,-0.775,-0.35,
70,-0.755,-0.35,
71,-0.725,-0.325,
72,-0.705,-0.335,
73,-0.685,-0.33,
74,-0.67,-0.355,
75,-0.67,-0.365,
76,-0.66,-0.365,
77,-0.65,-0.365,
78,-0.63,-0.375,
79,-0.605,-0.385,
80,-0.6,-0.38,
81,-0.56,-0.365,
82,-0.53,-0.35,
83,-0.52,-0.355,
84,-0.495,-0.36,
85,-0.475,-0.36,
86,-0.47,-0.37,
87,-0.45,-0.4,
88,-0.45,-0.405,
89,-0.445,-0.4,
90,-0.435,-0.41,
91,-0.425,-0.4,
92,-0.415,-0.4,
93,-0.385,-0.38,
94,-0.37,-0.38,
95,-0.365,-0.365,
96,-0.365,-0.36,
97,-0.35,-0.385,
98,-0.37,-0.395,
99,-0.395,-0.405,
100,-0.42,-0.415,
101,-0.445,-0.41,
102,-0.47,-0.41,
103,-0.49,-0.405,
104,-0.525,-0.38,
105,-0.55,-0.38,
106,-0.555,-0.375,
107,-0.59,-0.385,
108,-0.615,-0.37,
109,-0.65,-0.36,
110,-0.685,-0.37,
111,-0.74,-0.365,
112,-0.765,-0.4,
113,-0.8,-0.4,
114,-0.83,-0.4,
115,-0.845,-0.39,
116,-0.85,-0.37,
117,-0.865,-0.375,
118,-0.875,-0.365,
119,-0.87,-0.37,
120,-0.865,-0.385,
121,-0.87,-0.385,
122,-0.89,-0.385,
123,-0.905,-0.395,
124,-0.925,-0.405,
125,-0.93,-0.43,
126,-0.945,-0.425,
127,-0.95,-0.43,
128,-0.935,-0.415,
129,-0.93,-0.405,
130,-0.93,-0.405,
131,-0.925,-0.395,
132,-0.93,-0.395,
133,-0.935,-0.395,
134,-0.94,-0.405,
135,-0.93,-0.415,
136,-0.95,-0.42,
137,-0.935,-0.435,
138,-0.95,-0.425,
139,-0.955,-0.41,
140,-0.96,-0.415,
141,-0.945,-0.41,
142,-0.92,-0.38,
143,-0.915,-0.375,
144,-0.905,-0.395,
145,-0.92,-0.39,
146,-0.915,-0.4,
147,-0.93,-0.405,
148,-0.935,-0.415,
149,-0.945,-0.415,
150,-0.92,-0.43,
151,-0.915,-0.43,
152,-0.905,-0.415,
153,-0.9,-0.42,
154,-0.905,-0.405,
155,-0.88,-0.39,
156,-0.875,-0.405,
157,-0.87,-0.39,
158,-0.87,-0.395,
159,-0.88,-0.405,
160,-0.88,-0.42,
161,-0.905,-0.42,
162,-0.9,-0.43,
163,-0.91,-0.435,
164,-0.9,-0.425,
165,-0.885,-0.41,
166,-0.865,-0.415,
167,-0.85,-0.4,
168,-0.85,-0.415,
169,-0.845,-0.42,
170,-0.855,-0.425,
171,-0.865,-0.425,
172,-0.875,-0.425,
173,-0.89,-0.44,
174,-0.895,-0.445,
175,-0.895,-0.45,
176,-0.89,-0.43,
177,-0.885,-0.435,
178,-0.875,-0.41,
179,-0.875,-0.405,
180,-0.86,-0.4,
181,-0.87,-0.405,
182,-0.88,-0.41,
183,-0.89,-0.42,
184,-0.9,-0.435,
185,-0.915,-0.425,
186,-0.93,-0.43,
187,-0.93,-0.43,
188,-0.905,-0.425,
189,-0.92,-0.43,
190,-0.88,-0.415,
191,-0.89,-0.41,
192,-0.885,-0.405,
193,-0.905,-0.42,
194,-0.885,-0.425,
195,-0.91,-0.445,
196,-0.9,-0.45,
197,-0.92,-0.455,
198,-0.925,-0.45,
199,-0.92,-0.43,
200,-0.925,-0.425,
201,-0.92,-0.425,
202,-0.92,-0.39,
203,-0.905,-0.39,
204,-0.9,-0.4,
205,-0.915,-0.41,
206,-0.92,-0.41,
207,-0.935,-0.43,
208,-0.945,-0.445,
209,-0.94,-0.44,
210,-0.965,-0.45,
211,-0.95,-0.445,
212,-0.96,-0.445,
213,-0.94,-0.425,
214,-0.94,-0.425,
215,-0.925,-0.42,
216,-0.91,-0.425,
217,-0.915,-0.41,
218,-0.92,-0.425,
219,-0.915,-0.44,
220,-0.92,-0.445,
221,-0.93,-0.45,
222,-0.94,-0.46,
223,-0.94,-0.45,
224,-0.935,-0.43,
225,-0.915,-0.415,
226,-0.915,-0.42,
227,-0.905,-0.395,
228,-0.895,-0.415,
229,-0.905,-0.41,
230,-0.9,-0.425,
231,-0.91,-0.435,
232,-0.91,-0.425,
233,-0.91,-0.445,
234,-0.925,-0.445,
235,-0.91,-0.425,
236,-0.89,-0.415,
237,-0.865,-0.4,
238,-0.845,-0.395,
239,-0.82,-0.365,
240,-0.8,-0.37,
241,-0.79,-0.365,
242,-0.77,-0.37,
243,-0.77,-0.37,
244,-0.755,-0.37,
245,-0.745,-0.34,
246,-0.72,-0.355,
247,-0.675,-0.34,
248,-0.64,-0.345,
249,-0.605,-0.325,
250,-0.58,-0.35,
251,-0.55,-0.345,
252,-0.56,-0.39,
253,-0.575,-0.41,
254,-0.61,-0.45,
255,-0.605,-0.465,
256,-0.625,-0.47,
257,-0.655,-0.465,
258,-0.665,-0.48,
259,-0.705,-0.48,
260,-0.745,-0.48,
261,-0.78,-0.48,
262,-0.85,-0.455,
263,-0.875,-0.455,
264,-0.91,-0.455,
265,-0.91,-0.44,
266,-0.925,-0.455,
267,-0.935,-0.47,
268,-0.95,-0.465,
269,-0.945,-0.475,
270,-0.95,-0.49,
271,-0.955,-0.48,
272,-0.96,-0.48,
273,-0.96,-0.475,
274,-0.945,-0.465,
275,-0.935,-0.45,
276,-0.94,-0.475,
277,-0.945,-0.46,
278,-0.95,-0.47,
279,-0.955,-0.495,
280,-0.965,-0.48,
281,-0.98,-0.49,
282,-0.97,-0.505,
283,-0.975,-0.5,
284,-0.975,-0.505,
285,-0.95,-0.49,
286,-0.955,-0.485,
287,-0.945,-0.465,
288,-0.93,-0.45,
289,-0.945,-0.46,
290,-0.97,-0.47,
291,-0.955,-0.46,
292,-0.95,-0.475,
293,-0.955,-0.485,
294,-0.965,-0.475,
295,-0.975,-0.47,
296,-0.99,-0.455,
297,-1.005,-0.425,
298,-1.0,-0.4,
299,-0.97,-0.335,
300,-0.89,-0.275,
301,-0.755,-0.245,
302,-0.57,-0.225,
303,-0.335,-0.26,
304,-0.04,-0.355,
305,0.32,-0.5,
306,0.665,-0.675,
307,0.945,-0.905,
308,1.115,-1.125,
309,1.205,-1.335,N
310,1.175,-1.475,
311,1.04,-1.53,
312,0.82,-1.545,
313,0.45,-1.505,
314,-0.03,-1.445,
315,-0.535,-1.385,
316,-0.905,-1.29,
317,-1.085,-1.195,
318,-1.07,-1.09,
319,-0.965,-0.99,
320,-0.83,-0.89,
321,-0.735,-0.79,
322,-0.69,-0.72,
323,-0.71,-0.65,
324,-0.755,-0.595,
325,-0.825,-0.56,
326,-0.88,-0.51,
327,-0.92,-0.495,
328,-0.955,-0.495,
329,-0.955,-0.49,
330,-0.965,-0.485,
331,-0.955,-0.47,
332,-0.94,-0.455,
333,-0.935,-0.445,
334,-0.945,-0.42,
335,-0.93,-0.405,
336,-0.96,-0.4,
337,-0.945,-0.395,
338,-0.965,-0.4,
339,-0.97,-0.4,
340,-0.97,-0.41,
341,-0.98,-0.41,
342,-0.98,-0.425,
343,-0.985,-0.405,
344,-0.98,-0.405,
345,-0.98,-0.405,
346,-0.97,-0.385,
347,-0.965,-0.385,
348,-0.975,-0.39,
349,-0.97,-0.385,
350,-0.98,-0.39,
351,-0.975,-0.395,
352,-0.985,-0.405,
353,-1.0,-0.4,
354,-1.015,-0.41,
355,-0.99,-0.41,
356,-0.97,-0.39,
357,-0.97,-0.38,
358,-0.96,-0.37,
359,-0.96,-0.35,
360,-0.94,-0.355,
361,-0.95,-0.35,
362,-0.95,-0.355,
363,-0.975,-0.365,
364,-0.97,-0.38,
365,-0.965,-0.38,
366,-0.95,-0.4,
367,-0.96,-0.39,
368,-0.955,-0.39,
369,-0.93,-0.385,
370,-0.935,-0.36,
371,-0.915,-0.355,
372,-0.905,-0.365,
373,-0.905,-0.375,
374,-0.9,-0.385,
375,-0.91,-0.395,
376,-0.91,-0.395,
377,-0.92,-0.41,
378,-0.9,-0.395,
379,-0.895,-0.405,
380,-0.885,-0.375,
381,-0.885,-0.36,
382,-0.865,-0.36,
383,-0.835,-0.335,
384,-0.825,-0.335,
385,-0.82,-0.345,
386,-0.81,-0.36,
387,-0.815,-0.355,
388,-0.805,-0.355,
389,-0.81,-0.36,
390,-0.8,-0.35,
391,-0.78,-0.345,
392,-0.775,-0.32,
393,-0.745,-0.345,
394,-0.725,-0.325,
395,-0.685,-0.32,
396,-0.665,-0.315,
397,-0.65,-0.325,
398,-0.65,-0.33,
399,-0.65,-0.335,
400,-0.65,-0.325,
401,-0.61,-0.335,
402,-0.59,-0.355,
403,-0.555,-0.34,
404,-0.535,-0.32,
405,-0.5,-0.325,
406,-0.485,-0.315,
407,-0.455,-0.31,
408,-0.43,-0.32,
409,-0.405,-0.305,
410,-0.405,-0.34,
411,-0.395,-0.345,
412,-0.395,-0.355,
413,-0.385,-0.365,
414,-0.375,-0.365,
415,-0.37,-0.38,
416,-0.36,-0.37,
417,-0.34,-0.36,
418,-0.335,-0.36,
419,-0.305,-0.345,
420,-0.31,-0.365,
421,-0.345,-0.37,
422,-0.365,-0.365,
423,-0.38,-0.37,
424,-0.405,-0.375,
425,-0.425,-0.38,
426,-0.455,-0.375,
427,-0.485,-0.36,
428,-0.515,-0.365,
429,-0.535,-0.35,
430,-0.545,-0.33,
431,-0.58,-0.34,
432,-0.585,-0.325,
433,-0.625,-0.325,
434,-0.645,-0.35,
435,-0.685,-0.355,
436,-0.72,-0.375,
437,-0.735,-0.38,
438,-0.765,-0.385,
439,-0.785,-0.375,
440,-0.8,-0.38,
441,-0.805,-0.37,
442,-0.805,-0.37,
443,-0.805,-0.375,
444,-0.83,-0.38,
445,-0.825,-0.375,
446,-0.84,-0.385,
447,-0.87,-0.4,
448,-0.875,-0.395,
449,-0.89,-0.39,
450,-0.895,-0.415,
451,-0.89,-0.395,
452,-0.91,-0.395,
453,-0.9,-0.39,
454,-0.9,-0.395,
455,-0.905,-0.385,
456,-0.89,-0.375,
457,-0.91,-0.385,
458,-0.9,-0.385,
459,-0.91,-0.405,
460,-0.915,-0.415,
461,-0.915,-0.405,
462,-0.93,-0.415,
463,-0.925,-0.43,
464,-0.91,-0.405,
465,-0.895,-0.4,
466,-0.89,-0.395,
467,-0.87,-0.375,
468,-0.865,-0.38,
469,-0.87,-0.39,
470,-0.875,-0.4,
471,-0.885,-0.395,
472,-0.89,-0.41,
473,-0.89,-0.405,
474,-0.87,-0.415,
475,-0.855,-0.395,
476,-0.865,-0.38,
477,-0.85,-0.37,
478,-0.855,-0.35,
479,-0.855,-0.35,
480,-0.85,-0.345,
481,-0.855,-0.335,
482,-0.85,-0.325,
483,-0.86,-0.315,
484,-0.85,-0.295,
485,-0.83,-0.28,
486,-0.77,-0.23,
487,-0.685,-0.195,
488,-0.55,-0.175,
489,-0.41,-0.2,
490,-0.245,-0.275,
491,-0.1,-0.41,
492,0.075,-0.56,
493,0.235,-0.71,
494,0.445,-0.88,
495,0.63,-1.045,
496,0.835,-1.22,
497,1.06,-1.445,
498,1.26,-1.67,
499,1.44,-1.87,
500,1.61,-2.065,
501,1.735,-2.19,
502,1.825,-2.245,
503,1.885,-2.285,V
504,1.91,-2.295,
505,1.905,-2.31,
506,1.875,-2.305,
507,1.825,-2.305,
508,1.76,-2.305,
509,1.675,-2.285,
510,1.575,-2.225,
511,1.53,-2.15,
512,1.51,-2.035,
513,1.55,-1.94,
514,1.56,-1.845,
515,1.54,-1.745,
516,1.535,-1.665,
517,1.445,-1.575,
518,1.335,-1.475,
519,1.2,-1.41,
520,1.065,-1.345,
521,0.89,-1.285,
522,0.71,-1.2,
523,0.48,-1.125,
524,0.18,-1.03,
525,-0.175,-0.935,
526,-0.52,-0.86,
527,-0.81,-0.755,
528,-0.975,-0.63,
529,-1.045,-0.53,
530,-1.065,-0.44,
531,-1.05,-0.375,
532,-1.05,-0.35,
533,-1.065,-0.36,
534,-1.11,-0.35,
535,-1.155,-0.345,
536,-1.22,-0.31,
537,-1.245,-0.29,
538,-1.27,-0.245,
539,-1.27,-0.225,
540,-1.28,-0.185,
541,-1.3,-0.175,
542,-1.32,-0.19,
543,-1.33,-0.17,
544,-1.365,-0.19,
545,-1.37,-0.185,
546,-1.39,-0.175,
547,-1.415,-0.175,
548,-1.405,-0.155,
549,-1.425,-0.145,
550,-1.425,-0.11,
551,-1.445,-0.095,
552,-1.435,-0.1,
553,-1.445,-0.1,
554,-1.48,-0.085,
555,-1.49,-0.1,
556,-1.505,-0.095,
557,-1.54,-0.085,
558,-1.535,-0.08,
559,-1.555,-0.065,
560,-1.545,-0.055,
561,-1.565,-0.02,
562,-1.565,-0.01,
563,-1.57,0.03,
564,-1.57,0.04,
565,-1.575,0.065,
566,-1.585,0.07,
567,-1.585,0.085,
568,-1.59,0.095,
569,-1.6,0.095,
570,-1.615,0.105,
571,-1.62,0.15,
572,-1.63,0.175,
573,-1.63,0.205,
574,-1.645,0.22,
575,-1.615,0.255,
576,-1.61,0.29,
577,-1.62,0.295,
578,-1.615,0.31,
579,-1.61,0.295,
580,-1.605,0.3,
581,-1.63,0.295,
582,-1.64,0.285,
583,-1.675,0.3,
584,-1.7,0.305,
585,-1.725,0.31,
586,-1.745,0.33,
587,-1.755,0.355,
588,-1.78,0.39,
589,-1.815,0.425,
590,-1.885,0.445,
591,-1.92,0.425,
592,-1.985,0.45,
593,-2.055,0.445,
594,-2.12,0.465,
595,-2.18,0.5,
596,-2.225,0.515,
597,-2.25,0.53,
598,-2.27,0.575,
599,-2.295,0.565,
600,-2.3,0.58,
601,-2.305,0.555,
602,-2.31,0.53,
603,-2.315,0.515,
604,-2.305,0.5,
605,-2.295,0.485,
606,-2.285,0.475,
607,-2.285,0.455,
608,-2.25,0.445,
609,-2.22,0.435,
610,-2.18,0.405,
611,-2.145,0.4,
612,-2.125,0.35,
613,-2.095,0.325,
614,-2.05,0.285,
615,-2.015,0.24,
616,-1.995,0.205,
617,-1.94,0.155,
618,-1.88,0.115,
619,-1.825,0.07,
620,-1.77,0.05,
621,-1.7,0.03,
622,-1.63,-0.01,
623,-1.575,-0.03,
624,-1.515,-0.075,
625,-1.485,-0.105,
626,-1.45,-0.14,
627,-1.42,-0.17,
628,-1.4,-0.22,
629,-1.37,-0.23,
630,-1.33,-0.26,
631,-1.31,-0.275,
632,-1.285,-0.295,
633,-1.255,-0.28,
634,-1.23,-0.295,
635,-1.23,-0.29,
636,-1.195,-0.3,
637,-1.195,-0.305,
638,-1.195,-0.315,
639,-1.21,-0.32,
640,-1.22,-0.35,
641,-1.235,-0.355,
642,-1.23,-0.37,
643,-1.22,-0.36,
644,-1.225,-0.355,
645,-1.215,-0.345,
646,-1.21,-0.345,
647,-1.175,-0.32,
648,-1.18,-0.32,
649,-1.185,-0.33,
650,-1.21,-0.315,
651,-1.19,-0.335,
652,-1.2,-0.34,
653,-1.205,-0.345,
654,-1.21,-0.345,
655,-1.21,-0.355,
656,-1.21,-0.34,
657,-1.205,-0.34,
658,-1.185,-0.325,
659,-1.195,-0.315,
660,-1.16,-0.31,
661,-1.175,-0.315,
662,-1.165,-0.32,
663,-1.17,-0.325,
664,-1.17,-0.33,
665,-1.175,-0.355,
666,-1.175,-0.36,
667,-1.165,-0.355,
668,-1.175,-0.345,
669,-1.155,-0.335,
670,-1.145,-0.335,
671,-1.16,-0.32,
672,-1.15,-0.305,
673,-1.14,-0.315,
674,-1.155,-0.33,
675,-1.155,-0.335,
676,-1.15,-0.325,
677,-1.14,-0.355,
678,-1.145,-0.335,
679,-1.155,-0.355,
680,-1.16,-0.34,
681,-1.135,-0.325,
682,-1.135,-0.325,
683,-1.12,-0.315,
684,-1.125,-0.32,
685,-1.13,-0.33,
686,-1.125,-0.325,
687,-1.13,-0.36,
688,-1.135,-0.365,
689,-1.145,-0.365,
690,-1.15,-0.36,
691,-1.145,-0.375,
692,-1.135,-0.37,
693,-1.125,-0.35,
694,-1.12,-0.345,
695,-1.1,-0.33,
696,-1.095,-0.335,
697,-1.1,-0.34,
698,-1.1,-0.35,
699,-1.11,-0.36,
700,-1.12,-0.355,
701,-1.135,-0.385,
702,-1.135,-0.385,
703,-1.135,-0.395,
704,-1.125,-0.385,
705,-1.125,-0.375,
706,-1.095,-0.375,
707,-1.11,-0.355,
708,-1.095,-0.365,
709,-1.12,-0.38,
710,-1.14,-0.385,
711,-1.115,-0.39,
712,-1.13,-0.39,
713,-1.1,-0.4,
714,-1.12,-0.405,
715,-1.13,-0.405,
716,-1.13,-0.39,
717,-1.12,-0.385,
718,-1.11,-0.38,
719,-1.1,-0.375,
720,-1.09,-0.38,
721,-1.1,-0.37,
722,-1.095,-0.38,
723,-1.095,-0.395,
724,-1.1,-0.395,
725,-1.125,-0.42,
726,-1.12,-0.405,
727,-1.13,-0.415,
728,-1.115,-0.41,
729,-1.105,-0.4,
730,-1.1,-0.4,
731,-1.085,-0.39,
732,-1.075,-0.39,
733,-1.085,-0.42,
734,-1.09,-0.4,
735,-1.085,-0.415,
736,-1.09,-0.435,
737,-1.1,-0.425,
738,-1.09,-0.425,
739,-1.095,-0.425,
740,-1.1,-0.4,
741,-1.08,-0.405,
742,-1.08,-0.4,
743,-1.085,-0.4,
744,-1.07,-0.39,
745,-1.08,-0.39,
746,-1.085,-0.415,
747,-1.075,-0.42,
748,-1.07,-0.405,
749,-1.08,-0.425,
750,-1.09,-0.43,
751,-1.085,-0.435,
752,-1.08,-0.425,
753,-1.075,-0.425,
754,-1.07,-0.41,
755,-1.065,-0.405,
756,-1.055,-0.415,
757,-1.05,-0.405,
758,-1.05,-0.415,
759,-1.06,-0.42,
760,-1.065,-0.42,
761,-1.075,-0.43,
762,-1.085,-0.43,
763,-1.085,-0.43,
764,-1.075,-0.43,
765,-1.08,-0.41,
766,-1.075,-0.4,
767,-1.075,-0.39,
768,-1.06,-0.39,
769,-1.06,-0.4,
770,-1.05,-0.4,
771,-1.055,-0.415,
772,-1.06,-0.42,
773,-1.07,-0.435,
774,-1.075,-0.44,
775,-1.065,-0.45,
776,-1.07,-0.435,
777,-1.07,-0.44,
778,-1.055,-0.42,
779,-1.05,-0.41,
780,-1.05,-0.43,
781,-1.045,-0.41,
782,-1.055,-0.41,
783,-1.055,-0.425,
784,-1.06,-0.43,
785,-1.06,-0.425,
786,-1.065,-0.45,
787,-1.07,-0.43,
788,-1.07,-0.445,
789,-1.075,-0.42,
790,-1.065,-0.42,
791,-1.05,-0.41,
792,-1.04,-0.42,
793,-1.04,-0.42,
794,-1.045,-0.43,
795,-1.05,-0.445,
796,-1.055,-0.45,
797,-1.07,-0.475,
798,-1.06,-0.46,
799,-1.08,-0.465,
800,-1.08,-0.47,
801,-1.07,-0.465,
802,-1.065,-0.43,
803,-1.055,-0.425,
804,-1.035,-0.425,
805,-1.04,-0.42,
806,-1.045,-0.43,
807,-1.035,-0.425,
808,-1.05,-0.455,
809,-1.055,-0.47,
810,-1.06,-0.475,
811,-1.055,-0.47,
812,-1.065,-0.465,
813,-1.05,-0.455,
814,-1.065,-0.45,
815,-1.055,-0.46,
816,-1.035,-0.435,
817,-1.045,-0.44,
818,-1.045,-0.44,
819,-1.035,-0.46,
820,-1.04,-0.46,
821,-1.04,-0.485,
822,-1.045,-0.495,
823,-1.045,-0.49,
824,-1.04,-0.465,
825,-1.045,-0.45,
826,-1.025,-0.43,
827,-1.01,-0.425,
828,-1.005,-0.415,
829,-1.02,-0.43,
830,-1.015,-0.41,
831,-1.025,-0.44,
832,-1.03,-0.455,
833,-1.05,-0.47,
834,-1.055,-0.465,
835,-1.065,-0.455,
836,-1.045,-0.445,
837,-1.02,-0.45,
838,-1.035,-0.435,
839,-1.025,-0.42,
840,-1.015,-0.43,
841,-1.03,-0.45,
842,-1.005,-0.43,
843,-1.02,-0.45,
844,-1.025,-0.45,
845,-1.03,-0.475,
846,-1.03,-0.47,
847,-1.04,-0.465,
848,-1.035,-0.435,
849,-1.035,-0.445,
850,-1.015,-0.435,
851,-1.03,-0.405,
852,-1.0,-0.415,
853,-0.995,-0.42,
854,-0.995,-0.42,
855,-1.005,-0.445,
856,-1.01,-0.445,
857,-1.035,-0.455,
858,-1.04,-0.45,
859,-1.045,-0.47,
860,-1.035,-0.45,
861,-1.03,-0.455,
862,-1.01,-0.445,
863,-1.015,-0.425,
864,-1.0,-0.425,
865,-1.0,-0.44,
866,-1.005,-0.435,
867,-1.01,-0.445,
868,-1.02,-0.45,
869,-1.02,-0.455,
870,-1.035,-0.47,
871,-1.05,-0.465,
872,-1.045,-0.45,
873,-1.05,-0.44,
874,-1.045,-0.43,
875,-1.03,-0.43,
876,-1.01,-0.41,
877,-1.0,-0.415,
878,-1.01,-0.425,
879,-1.01,-0.44,
880,-1.015,-0.455,
881,-1.025,-0.46,
882,-1.045,-0.47,
883,-1.045,-0.46,
884,-1.04,-0.46,
885,-1.02,-0.45,
886,-1.015,-0.44,
887,-1.015,-0.44,
888,-1.01,-0.45,
889,-1.01,-0.43,
890,-1.0,-0.445,
891,-0.995,-0.45,
892,-1.01,-0.45,
893,-1.015,-0.45,
894,-1.02,-0.46,
895,-1.025,-0.445,
896,-1.02,-0.455,
897,-1.015,-0.43,
898,-1.01,-0.44,
899,-0.985,-0.42,
900,-0.98,-0.425,
901,-0.985,-0.415,
902,-0.99,-0.425,
903,-0.995,-0.45,
904,-1.015,-0.44,
905,-1.015,-0.45,
906,-1.02,-0.47,
907,-1.01,-0.465,
908,-1.015,-0.445,
909,-0.99,-0.46,
910,-0.985,-0.44,
911,-0.97,-0.44,
912,-0.95,-0.435,
913,-0.93,-0.425,
914,-0.93,-0.415,
915,-0.915,-0.42,
916,-0.905,-0.42,
917,-0.895,-0.4,
918,-0.875,-0.395,
919,-0.86,-0.39,
920,-0.865,-0.365,
921,-0.83,-0.35,
922,-0.805,-0.355,
923,-0.78,-0.33,
924,-0.74,-0.33,
925,-0.7,-0.34,
926,-0.665,-0.345,
927,-0.63,-0.375,
928,-0.625,-0.41,
929,-0.655,-0.43,
930,-0.675,-0.465,
931,-0.705,-0.49,
932,-0.7,-0.465,
933,-0.685,-0.485,
934,-0.69,-0.485,
935,-0.705,-0.46,
936,-0.72,-0.46,
937,-0.77,-0.47,
938,-0.82,-0.46,
939,-0.885,-0.46,
940,-0.955,-0.48,
941,-0.995,-0.48,
942,-1.02,-0.485,
943,-1.015,-0.495,
944,-1.02,-0.49,
945,-1.02,-0.485,
946,-1.015,-0.485,
947,-0.985,-0.485,
948,-0.98,-0.49,
949,-1.0,-0.475,
950,-0.995,-0.48,
951,-1.02,-0.495,
952,-1.035,-0.495,
953,-1.03,-0.525,
954,-1.035,-0.53,
955,-1.03,-0.525,
956,-1.03,-0.52,
957,-1.035,-0.505,
958,-1.01,-0.5,
959,-1.0,-0.48,
960,-0.99,-0.465,
961,-0.995,-0.465,
962,-0.995,-0.48,
963,-1.015,-0.495,
964,-1.025,-0.5,
965,-1.06,-0.505,
966,-1.09,-0.485,
967,-1.08,-0.46,
968,-1.045,-0.42,
969,-0.965,-0.35,
970,-0.8,-0.29,
971,-0.575,-0.27,
972,-0.27,-0.3,
973,0.085,-0.375,
974,0.455,-0.525,
975,0.78,-0.725,
976,1.03,-0.97,
977,1.145,-1.2,N
978,1.14,-1.38,
979,0.99,-1.46,
980,0.685,-1.485,
981,0.24,-1.43,
982,-0.3,-1.375,
983,-0.755,-1.265,
984,-1.04,-1.17,
985,-1.115,-1.07,
986,-1.035,-0.975,
987,-0.92,-0.9,
988,-0.815,-0.81,
989,-0.77,-0.765,
990,-0.79,-0.71,
991,-0.87,-0.635,
992,-0.915,-0.59,
993,-0.98,-0.535,
994,-1.0,-0.515,
995,-1.005,-0.49,
996,-1.005,-0.485,
997,-1.005,-0.48,
998,-1.015,-0.465,
999,-1.02,-0.485,
1000,-1.04,-0.49,
1001,-1.03,-0.475,
1002,-1.04,-0.455,
1003,-1.06,-0.445,
1004,-1.045,-0.425,
1005,-1.055,-0.41,
1006,-1.045,-0.415,
1007,-1.05,-0.4,
1008,-1.045,-0.41,
1009,-1.03,-0.415,
1010,-1.025,-0.425,
1011,-1.045,-0.43,
1012,-1.055,-0.445,
1013,-1.065,-0.435,
1014,-1.07,-0.445,
1015,-1.06,-0.44,
1016,-1.055,-0.42,
1017,-1.055,-0.42,
1018,-1.05,-0.415,
1019,-1.045,-0.41,
1020,-1.025,-0.42,
1021,-1.045,-0.41,
1022,-1.065,-0.43,
1023,-1.065,-0.425,
1024,-1.06,-0.435,
1025,-1.07,-0.435,
1026,-1.08,-0.41,
1027,-1.07,-0.425,
1028,-1.06,-0.41,
1029,-1.06,-0.405,
1030,-1.055,-0.4,
1031,-1.035,-0.395,
1032,-1.025,-0.395,
1033,-1.03,-0.385,
1034,-1.025,-0.415,
1035,-1.04,-0.425,
1036,-1.035,-0.425,
1037,-1.045,-0.425,
1038,-1.04,-0.42,
1039,-1.025,-0.43,
1040,-1.025,-0.42,
1041,-1.005,-0.41,
1042,-1.01,-0.41,
1043,-0.995,-0.39,
1044,-0.99,-0.395,
1045,-0.985,-0.385,
1046,-0.975,-0.405,
1047,-0.985,-0.405,
1048,-0.985,-0.4,
1049,-0.985,-0.4,
1050,-0.99,-0.4,
1051,-0.97,-0.4,
1052,-0.96,-0.38,
1053,-0.95,-0.375,
1054,-0.915,-0.365,
1055,-0.91,-0.35,
1056,-0.91,-0.35,
1057,-0.885,-0.35,
1058,-0.885,-0.36,
1059,-0.885,-0.35,
1060,-0.875,-0.355,
1061,-0.865,-0.36,
1062,-0.86,-0.365,
1063,-0.85,-0.37,
1064,-0.835,-0.355,
1065,-0.795,-0.335,
1066,-0.785,-0.315,
1067,-0.765,-0.32,
1068,-0.745,-0.31,
1069,-0.72,-0.305,
1070,-0.71,-0.315,
1071,-0.695,-0.335,
1072,-0.69,-0.32,
1073,-0.675,-0.355,
1074,-0.66,-0.325,
1075,-0.65,-0.335,
1076,-0.62,-0.345,
1077,-0.62,-0.315,
1078,-0.575,-0.325,
1079,-0.545,-0.315,
1080,-0.545,-0.33,
1081,-0.535,-0.33,
1082,-0.52,-0.345,
1083,-0.515,-0.38,
1084,-0.51,-0.38,
1085,-0.505,-0.39,
1086,-0.495,-0.39,
1087,-0.485,-0.39,
1088,-0.47,-0.395,
1089,-0.46,-0.39,
1090,-0.455,-0.385,
1091,-0.45,-0.37,
1092,-0.46,-0.375,
1093,-0.48,-0.4,
1094,-0.5,-0.41,
1095,-0.525,-0.405,
1096,-0.55,-0.44,
1097,-0.57,-0.44,
1098,-0.595,-0.435,
1099,-0.615,-0.42,
1100,-0.63,-0.415,
1101,-0.65,-0.405,
1102,-0.675,-0.41,
1103,-0.695,-0.4,
1104,-0.7,-0.405,
1105,-0.74,-0.425,
1106,-0.765,-0.425,
1107,-0.78,-0.43,
1108,-0.81,-0.445,
1109,-0.81,-0.445,
1110,-0.835,-0.43,
1111,-0.84,-0.425,
1112,-0.85,-0.42,
1113,-0.85,-0.42,
1114,-0.84,-0.41,
1115,-0.835,-0.41,
1116,-0.84,-0.42,
1117,-0.85,-0.415,
1118,-0.855,-0.425,
1119,-0.875,-0.43,
1120,-0.895,-0.46,
1121,-0.91,-0.45,
1122,-0.915,-0.465,
1123,-0.915,-0.465,
1124,-0.905,-0.445,
1125,-0.89,-0.435,
1126,-0.87,-0.435,
1127,-0.88,-0.43,
1128,-0.88,-0.435,
1129,-0.875,-0.435,
1130,-0.885,-0.435,
1131,-0.89,-0.445,
1132,-0.88,-0.445,
1133,-0.895,-0.455,
1134,-0.9,-0.45,
1135,-0.895,-0.445,
1136,-0.885,-0.44,
1137,-0.87,-0.44,
1138,-0.86,-0.45,
1139,-0.85,-0.425,
1140,-0.84,-0.44,
1141,-0.85,-0.445,
1142,-0.865,-0.465,
1143,-0.85,-0.46,
1144,-0.86,-0.49,
1145,-0.855,-0.485,
1146,-0.86,-0.485,
1147,-0.86,-0.48,
1148,-0.87,-0.47,
1149,-0.85,-0.46,
1150,-0.855,-0.46,
1151,-0.845,-0.445,
1152,-0.84,-0.45,
1153,-0.865,-0.44,
1154,-0.86,-0.455,
1155,-0.855,-0.46,
1156,-0.85,-0.475,
1157,-0.855,-0.47,
1158,-0.875,-0.47,
1159,-0.875,-0.475,
1160,-0.875,-0.47,
1161,-0.86,-0.455,
1162,-0.845,-0.43,
1163,-0.84,-0.44,
1164,-0.835,-0.43,
1165,-0.855,-0.45,
1166,-0.865,-0.47,
1167,-0.875,-0.485,
1168,-0.89,-0.48,
1169,-0.9,-0.49,
1170,-0.89,-0.485,
1171,-0.895,-0.49,
1172,-0.89,-0.465,
1173,-0.9,-0.45,
1174,-0.895,-0.44,
1175,-0.88,-0.44,
1176,-0.86,-0.44,
1177,-0.885,-0.435,
1178,-0.885,-0.465,
1179,-0.9,-0.46,
1180,-0.905,-0.475,
1181,-0.92,-0.485,
1182,-0.925,-0.485,
1183,-0.925,-0.475,
1184,-0.91,-0.465,
1185,-0.925,-0.455,
1186,-0.93,-0.445,
1187,-0.92,-0.435,
1188,-0.93,-0.45,
1189,-0.91,-0.46,
1190,-0.93,-0.48,
1191,-0.92,-0.49,
1192,-0.945,-0.475,
1193,-0.955,-0.49,
1194,-0.945,-0.49,
1195,-0.955,-0.485,
1196,-0.95,-0.49,
1197,-0.95,-0.47,
1198,-0.94,-0.46,
1199,-0.92,-0.465,
1200,-0.915,-0.465,
1201,-0.925,-0.455,
1202,-0.94,-0.475,
1203,-0.945,-0.49,
1204,-0.955,-0.505,
1205,-0.96,-0.51,
1206,-0.95,-0.515,
1207,-0.955,-0.51,
1208,-0.955,-0.5,
1209,-0.945,-0.49,
1210,-0.955,-0.485,
1211,-0.95,-0.475,
1212,-0.94,-0.48,
1213,-0.935,-0.51,
1214,-0.94,-0.51,
1215,-0.95,-0.515,
1216,-0.96,-0.53,
1217,-0.96,-0.525,
1218,-0.965,-0.515,
1219,-0.96,-0.51,
1220,-0.965,-0.485,
1221,-0.945,-0.48,
1222,-0.915,-0.48,
1223,-0.93,-0.475,
1224,-0.935,-0.475,
1225,-0.945,-0.485,
1226,-0.93,-0.495,
1227,-0.955,-0.515,
1228,-0.945,-0.505,
1229,-0.945,-0.51,
1230,-0.955,-0.505,
1231,-0.935,-0.52,
1232,-0.95,-0.5,
1233,-0.945,-0.49,
1234,-0.935,-0.505,
1235,-0.925,-0.48,
1236,-0.92,-0.495,
1237,-0.92,-0.485,
1238,-0.91,-0.495,
1239,-0.915,-0.495,
1240,-0.92,-0.5,
1241,-0.915,-0.505,
1242,-0.905,-0.5,
1243,-0.89,-0.47,
1244,-0.85,-0.445,
1245,-0.83,-0.44,
1246,-0.81,-0.43,
1247,-0.79,-0.415,
1248,-0.77,-0.42,
1249,-0.765,-0.39,
1250,-0.76,-0.4,
1251,-0.735,-0.4,
1252,-0.725,-0.405,
1253,-0.71,-0.4,
1254,-0.67,-0.4,
1255,-0.635,-0.41,
1256,-0.6,-0.415,
1257,-0.585,-0.425,
1258,-0.58,-0.445,
1259,-0.59,-0.445,
1260,-0.595,-0.46,
1261,-0.61,-0.49,
1262,-0.615,-0.52,
1263,-0.615,-0.515,
1264,-0.62,-0.535,
1265,-0.65,-0.525,
1266,-0.685,-0.525,
1267,-0.73,-0.535,
1268,-0.765,-0.535,
1269,-0.815,-0.53,
1270,-0.865,-0.52,
1271,-0.895,-0.515,
1272,-0.92,-0.5,
1273,-0.94,-0.505,
1274,-0.945,-0.52,
1275,-0.96,-0.54,
1276,-0.96,-0.55,
1277,-0.965,-0.555,
1278,-0.97,-0.56,
1279,-0.975,-0.56,
1280,-0.965,-0.535,
1281,-0.96,-0.53,
1282,-0.95,-0.515,
1283,-0.96,-0.52,
1284,-0.96,-0.52,
1285,-0.96,-0.52,
1286,-0.96,-0.52,
1287,-0.965,-0.52,
1288,-0.97,-0.535,
1289,-0.97,-0.54,
1290,-0.98,-0.535,
1291,-0.97,-0.54,
1292,-0.97,-0.53,
1293,-0.97,-0.535,
1294,-0.95,-0.525,
1295,-0.93,-0.52,
1296,-0.945,-0.525,
1297,-0.925,-0.525,
1298,-0.93,-0.525,
1299,-0.945,-0.53,
1300,-0.945,-0.54,
1301,-0.98,-0.55,
1302,-1.02,-0.54,
1303,-1.04,-0.5,
1304,-1.015,-0.44,
1305,-0.96,-0.365,
1306,-0.86,-0.34,
1307,-0.695,-0.275,
1308,-0.48,-0.275,
1309,-0.225,-0.32,
1310,0.09,-0.415,
1311,0.395,-0.55,
1312,0.715,-0.72,
1313,0.955,-0.93,
1314,1.115,-1.13,
1315,1.17,-1.345,N
1316,1.165,-1.48,
1317,1.095,-1.555,
1318,0.925,-1.565,
1319,0.64,-1.54,
1320,0.23,-1.495,
1321,-0.265,-1.445,
1322,-0.705,-1.38,
1323,-1.01,-1.325,
1324,-1.085,-1.245,
1325,-1.05,-1.135,
1326,-0.9,-1.035,
1327,-0.77,-0.96,
1328,-0.71,-0.885,
1329,-0.7,-0.795,
1330,-0.72,-0.72,
1331,-0.77,-0.65,
1332,-0.845,-0.605,
1333,-0.905,-0.56,
1334,-0.915,-0.535,
1335,-0.925,-0.53,
1336,-0.935,-0.52,
1337,-0.945,-0.52,
1338,-0.945,-0.515,
1339,-0.94,-0.52,
1340,-0.94,-0.495,
1341,-0.935,-0.47,
1342,-0.935,-0.47,
1343,-0.925,-0.46,
1344,-0.935,-0.445,
1345,-0.945,-0.465,
1346,-0.95,-0.48,
1347,-0.955,-0.47,
1348,-0.965,-0.475,
1349,-0.975,-0.48,
1350,-1.0,-0.49,
1351,-0.985,-0.48,
1352,-0.98,-0.455,
1353,-0.985,-0.45,
1354,-0.97,-0.445,
1355,-0.965,-0.42,
1356,-0.965,-0.42,
1357,-0.975,-0.425,
1358,-0.98,-0.435,
1359,-0.97,-0.44,
1360,-0.97,-0.46,
1361,-0.98,-0.455,
1362,-0.99,-0.455,
1363,-0.965,-0.445,
1364,-0.97,-0.445,
1365,-0.96,-0.44,
1366,-0.945,-0.435,
1367,-0.94,-0.42,
1368,-0.94,-0.435,
1369,-0.945,-0.425,
1370,-0.945,-0.435,
1371,-0.95,-0.44,
1372,-0.96,-0.465,
1373,-0.96,-0.46,
1374,-0.96,-0.47,
1375,-0.95,-0.455,
1376,-0.945,-0.46,
1377,-0.945,-0.44,
1378,-0.93,-0.435,
1379,-0.91,-0.41,
1380,-0.91,-0.41,
1381,-0.91,-0.405,
1382,-0.925,-0.41,
1383,-0.91,-0.445,
1384,-0.92,-0.455,
1385,-0.935,-0.44,
1386,-0.92,-0.435,
1387,-0.915,-0.43,
1388,-0.905,-0.445,
1389,-0.88,-0.425,
1390,-0.87,-0.405,
1391,-0.86,-0.395,
1392,-0.85,-0.405,
1393,-0.865,-0.41,
1394,-0.855,-0.41,
1395,-0.835,-0.435,
1396,-0.84,-0.445,
1397,-0.825,-0.425,
1398,-0.81,-0.425,
1399,-0.815,-0.42,
1400,-0.78,-0.41,
1401,-0.785,-0.385,
1402,-0.755,-0.385,
1403,-0.735,-0.365,
1404,-0.71,-0.37,
1405,-0.71,-0.375,
1406,-0.705,-0.39,
1407,-0.675,-0.39,
1408,-0.67,-0.41,
1409,-0.65,-0.4,
1410,-0.645,-0.42,
1411,-0.625,-0.385,
1412,-0.605,-0.39,
1413,-0.59,-0.375,
1414,-0.565,-0.37,
1415,-0.535,-0.365,
1416,-0.51,-0.36,
1417,-0.5,-0.39,
1418,-0.485,-0.39,
1419,-0.485,-0.415,
1420,-0.475,-0.41,
1421,-0.47,-0.425,
1422,-0.475,-0.44,
1423,-0.44,-0.43,
1424,-0.425,-0.385,
1425,-0.4,-0.39,
1426,-0.39,-0.38,
1427,-0.365,-0.385,
1428,-0.365,-0.395,
1429,-0.355,-0.4,
1430,-0.35,-0.4,
1431,-0.35,-0.435,
1432,-0.36,-0.44,
1433,-0.37,-0.44,
1434,-0.39,-0.445,
1435,-0.395,-0.445,
1436,-0.41,-0.43,
1437,-0.425,-0.425,
1438,-0.44,-0.415,
1439,-0.45,-0.4,
1440,-0.49,-0.42,
1441,-0.51,-0.41,
1442,-0.55,-0.425,
1443,-0.595,-0.435,
1444,-0.62,-0.445,
1445,-0.655,-0.45,
1446,-0.68,-0.465,
1447,-0.7,-0.45,
1448,-0.715,-0.44,
1449,-0.745,-0.425,
1450,-0.745,-0.41,
1451,-0.765,-0.395,
1452,-0.775,-0.42,
1453,-0.79,-0.425,
1454,-0.8,-0.45,
1455,-0.83,-0.445,
1456,-0.84,-0.46,
1457,-0.85,-0.46,
1458,-0.87,-0.485,
1459,-0.88,-0.485,
1460,-0.89,-0.475,
1461,-0.895,-0.465,
1462,-0.89,-0.455,
1463,-0.87,-0.45,
1464,-0.875,-0.46,
1465,-0.89,-0.47,
1466,-0.885,-0.48,
1467,-0.885,-0.475,
1468,-0.91,-0.48,
1469,-0.92,-0.485,
1470,-0.915,-0.48,
1471,-0.925,-0.465,
1472,-0.92,-0.445,
1473,-0.91,-0.445,
1474,-0.91,-0.415,
1475,-0.9,-0.44,
1476,-0.9,-0.44,
1477,-0.9,-0.45,
1478,-0.915,-0.445,
1479,-0.92,-0.465,
1480,-0.925,-0.47,
1481,-0.93,-0.46,
1482,-0.925,-0.47,
1483,-0.925,-0.485,
1484,-0.915,-0.455,
1485,-0.9,-0.47,
1486,-0.88,-0.465,
1487,-0.88,-0.44,
1488,-0.865,-0.45,
1489,-0.865,-0.465,
1490,-0.89,-0.465,
1491,-0.89,-0.475,
1492,-0.9,-0.485,
1493,-0.92,-0.475,
1494,-0.9,-0.475,
1495,-0.89,-0.48,
1496,-0.89,-0.475,
1497,-0.89,-0.46,
1498,-0.875,-0.46,
1499,-0.88,-0.445,
1500,-0.875,-0.46,
1501,-0.86,-0.46,
1502,-0.86,-0.47,
1503,-0.88,-0.48,
1504,-0.88,-0.485,
1505,-0.9,-0.495,
1506,-0.895,-0.49,
1507,-0.92,-0.505,
1508,-0.905,-0.485,
1509,-0.89,-0.49,
1510,-0.87,-0.48,
1511,-0.88,-0.465,
1512,-0.875,-0.47,
1513,-0.885,-0.455,
1514,-0.89,-0.455,
1515,-0.905,-0.48,
1516,-0.905,-0.485,
1517,-0.9,-0.49,
1518,-0.915,-0.49,
1519,-0.92,-0.5,
1520,-0.92,-0.49,
1521,-0.905,-0.47,
1522,-0.915,-0.465,
1523,-0.915,-0.445,
1524,-0.89,-0.46,
1525,-0.925,-0.47,
1526,-0.925,-0.485,
1527,-0.93,-0.49,
1528,-0.93,-0.49,
1529,-0.935,-0.505,
1530,-0.945,-0.52,
1531,-0.935,-0.495,
1532,-0.925,-0.5,
1533,-0.93,-0.475,
1534,-0.92,-0.485,
1535,-0.92,-0.46,
1536,-0.91,-0.46,
1537,-0.91,-0.47,
1538,-0.93,-0.475,
1539,-0.945,-0.49,
1540,-0.955,-0.5,
1541,-0.96,-0.5,
1542,-0.965,-0.52,
1543,-0.955,-0.5,
1544,-0.96,-0.495,
1545,-0.945,-0.48,
1546,-0.94,-0.485,
1547,-0.935,-0.48,
1548,-0.94,-0.475,
1549,-0.94,-0.485,
1550,-0.93,-0.495,
1551,-0.945,-0.485,
1552,-0.955,-0.52,
1553,-0.955,-0.515,
1554,-0.965,-0.515,
1555,-0.95,-0.515,
1556,-0.955,-0.495,
1557,-0.95,-0.48,
1558,-0.96,-0.47,
1559,-0.945,-0.47,
1560,-0.95,-0.47,
1561,-0.955,-0.47,
1562,-0.945,-0.475,
1563,-0.955,-0.495,
1564,-0.965,-0.495,
1565,-0.985,-0.51,
1566,-0.99,-0.51,
1567,-0.965,-0.5,
1568,-0.965,-0.495,
1569,-0.96,-0.49,
1570,-0.955,-0.455,
1571,-0.96,-0.47,
1572,-0.94,-0.48,
1573,-0.945,-0.475,
1574,-0.94,-0.48,
1575,-0.94,-0.48,
1576,-0.93,-0.485,
1577,-0.94,-0.49,
1578,-0.92,-0.505,
1579,-0.92,-0.46,
1580,-0.9,-0.44,
1581,-0.885,-0.43,
1582,-0.84,-0.41,
1583,-0.835,-0.39,
1584,-0.815,-0.38,
1585,-0.79,-0.395,
1586,-0.8,-0.39,
1587,-0.785,-0.4,
1588,-0.75,-0.405,
1589,-0.735,-0.395,
1590,-0.69,-0.405,
1591,-0.65,-0.42,
1592,-0.65,-0.425,
1593,-0.64,-0.455,
1594,-0.64,-0.475,
1595,-0.645,-0.47,
1596,-0.64,-0.495,
1597,-0.65,-0.5,
1598,-0.665,-0.505,
1599,-0.66,-0.515,
1600,-0.67,-0.53,
1601,-0.72,-0.53,
1602,-0.735,-0.515,
1603,-0.785,-0.53,
1604,-0.83,-0.52,
1605,-0.885,-0.52,
1606,-0.93,-0.505,
1607,-0.945,-0.5,
1608,-0.96,-0.495,
1609,-0.975,-0.5,
1610,-0.975,-0.52,
1611,-1.0,-0.54,
1612,-1.02,-0.545,
1613,-1.015,-0.55,
1614,-1.015,-0.555,
1615,-1.02,-0.555,
1616,-1.015,-0.545,
1617,-1.01,-0.545,
1618,-1.01,-0.525,
1619,-1.01,-0.505,
1620,-1.01,-0.535,
1621,-1.015,-0.52,
1622,-1.01,-0.525,
1623,-1.015,-0.54,
1624,-1.035,-0.54,
1625,-1.035,-0.53,
1626,-1.03,-0.54,
1627,-1.04,-0.54,
1628,-1.04,-0.54,
1629,-1.04,-0.52,
1630,-1.015,-0.52,
1631,-1.01,-0.515,
1632,-1.005,-0.525,
1633,-0.99,-0.51,
1634,-0.995,-0.53,
1635,-1.0,-0.535,
1636,-1.01,-0.545,
1637,-1.04,-0.55,
1638,-1.045,-0.525,
1639,-1.075,-0.54,
1640,-1.095,-0.495,
1641,-1.075,-0.435,
1642,-0.995,-0.375,
1643,-0.87,-0.32,
1644,-0.68,-0.29,
1645,-0.43,-0.315,
1646,-0.105,-0.39,
1647,0.255,-0.53,
1648,0.59,-0.7,
1649,0.88,-0.91,
1650,1.055,-1.155,
1651,1.11,-1.335,N
1652,1.06,-1.47,
1653,0.91,-1.535,
1654,0.615,-1.515,
1655,0.195,-1.455,
1656,-0.295,-1.385,
1657,-0.76,-1.325,
1658,-1.07,-1.26,
1659,-1.185,-1.18,
1660,-1.135,-1.085,
1661,-1.005,-1.0,
1662,-0.88,-0.93,
1663,-0.815,-0.85,
1664,-0.795,-0.77,
1665,-0.84,-0.705,
1666,-0.885,-0.635,
1667,-0.945,-0.565,
1668,-0.99,-0.535,
1669,-1.01,-0.515,
1670,-1.025,-0.495,
1671,-1.02,-0.51,
1672,-1.035,-0.515,
1673,-1.04,-0.51,
1674,-1.055,-0.52,
1675,-1.055,-0.495,
1676,-1.055,-0.48,
1677,-1.05,-0.455,
1678,-1.045,-0.45,
1679,-1.045,-0.435,
1680,-1.04,-0.45,
1681,-1.055,-0.445,
1682,-1.05,-0.45,
1683,-1.055,-0.46,
1684,-1.065,-0.475,
1685,-1.08,-0.465,
1686,-1.07,-0.47,
1687,-1.075,-0.47,
1688,-1.06,-0.45,
1689,-1.08,-0.44,
1690,-1.07,-0.425,
1691,-1.07,-0.43,
1692,-1.065,-0.41,
1693,-1.07,-0.425,
1694,-1.065,-0.43,
1695,-1.06,-0.455,
1696,-1.065,-0.445,
1697,-1.075,-0.465,
1698,-1.09,-0.475,
1699,-1.075,-0.455,
1700,-1.07,-0.445,
1701,-1.075,-0.455,
1702,-1.055,-0.445,
1703,-1.04,-0.43,
1704,-1.035,-0.44,
1705,-1.045,-0.445,
1706,-1.055,-0.435,
1707,-1.055,-0.46,
1708,-1.06,-0.465,
1709,-1.06,-0.455,
1710,-1.08,-0.465,
1711,-1.055,-0.455,
1712,-1.06,-0.45,
1713,-1.035,-0.44,
1714,-1.015,-0.425,
1715,-1.015,-0.415,
1716,-1.0,-0.41,
1717,-0.995,-0.415,
1718,-1.005,-0.44,
1719,-1.01,-0.44,
1720,-1.015,-0.46,
1721,-1.01,-0.46,
1722,-1.005,-0.46,
1723,-0.985,-0.46,
1724,-0.975,-0.43,
1725,-0.96,-0.45,
1726,-0.94,-0.44,
1727,-0.915,-0.42,
1728,-0.91,-0.425,
1729,-0.905,-0.44,
1730,-0.9,-0.445,
1731,-0.895,-0.445,
1732,-0.88,-0.445,
1733,-0.88,-0.44,
1734,-0.89,-0.435,
1735,-0.88,-0.435,
1736,-0.85,-0.415,
1737,-0.815,-0.42,
1738,-0.785,-0.405,
1739,-0.75,-0.395,
1740,-0.735,-0.395,
1741,-0.715,-0.435,
1742,-0.705,-0.43,
1743,-0.705,-0.435,
1744,-0.69,-0.45,
1745,-0.685,-0.46,
1746,-0.67,-0.48,
1747,-0.66,-0.48,
1748,-0.63,-0.47,
1749,-0.635,-0.465,
1750,-0.59,-0.47,
1751,-0.56,-0.455,
1752,-0.555,-0.455,
1753,-0.53,-0.445,
1754,-0.52,-0.455,
1755,-0.52,-0.465,
1756,-0.51,-0.47,
1757,-0.51,-0.47,
1758,-0.51,-0.475,
1759,-0.5,-0.475,
1760,-0.49,-0.475,
1761,-0.48,-0.455,
1762,-0.47,-0.45,
1763,-0.465,-0.455,
1764,-0.46,-0.45,
1765,-0.48,-0.455,
1766,-0.495,-0.45,
1767,-0.53,-0.47,
1768,-0.545,-0.475,
1769,-0.585,-0.475,
1770,-0.605,-0.475,
1771,-0.635,-0.475,
1772,-0.65,-0.46,
1773,-0.67,-0.44,
1774,-0.71,-0.435,
1775,-0.72,-0.42,
1776,-0.745,-0.405,
1777,-0.775,-0.425,
1778,-0.815,-0.41,
1779,-0.84,-0.43,
1780,-0.865,-0.43,
1781,-0.9,-0.435,
1782,-0.92,-0.45,
1783,-0.92,-0.44,
1784,-0.945,-0.445,
1785,-0.945,-0.44,
1786,-0.96,-0.435,
1787,-0.975,-0.42,
1788,-0.975,-0.42,
1789,-0.99,-0.425,
1790,-1.005,-0.44,
1791,-1.005,-0.445,
1792,-1.03,-0.455,
1793,-1.045,-0.465,
1794,-1.065,-0.485,
1795,-1.06,-0.48,
1796,-1.045,-0.47,
1797,-1.035,-0.46,
1798,-1.03,-0.45,
1799,-1.04,-0.44,
1800,-1.03,-0.44,
1801,-1.05,-0.445,
1802,-1.06,-0.45,
1803,-1.06,-0.45,
1804,-1.06,-0.455,
1805,-1.07,-0.455,
1806,-1.07,-0.46,
1807,-1.065,-0.455,
1808,-1.06,-0.45,
1809,-1.045,-0.455,
1810,-1.035,-0.45,
1811,-1.03,-0.43,
1812,-1.015,-0.445,
1813,-1.01,-0.44,
1814,-1.015,-0.445,
1815,-1.04,-0.46,
1816,-1.04,-0.475,
1817,-1.03,-0.48,
1818,-1.035,-0.47,
1819,-1.05,-0.475,
1820,-1.025,-0.48,
1821,-1.01,-0.465,
1822,-1.02,-0.435,
1823,-1.005,-0.43,
1824,-0.995,-0.425,
1825,-0.98,-0.445,
1826,-0.99,-0.445,
1827,-1.005,-0.46,
1828,-1.01,-0.46,
1829,-1.015,-0.47,
1830,-1.005,-0.47,
1831,-1.015,-0.47,
1832,-1.01,-0.465,
1833,-0.995,-0.47,
1834,-0.985,-0.45,
1835,-0.975,-0.435,
1836,-0.975,-0.435,
1837,-0.965,-0.445,
1838,-0.965,-0.475,
1839,-0.995,-0.47,
1840,-0.995,-0.475,
1841,-1.0,-0.47,
1842,-1.005,-0.5,
1843,-1.02,-0.49,
1844,-1.005,-0.475,
1845,-1.005,-0.46,
1846,-1.0,-0.445,
1847,-0.975,-0.44,
1848,-0.985,-0.445,
1849,-1.005,-0.435,
1850,-1.0,-0.465,
1851,-1.02,-0.47,
1852,-1.02,-0.475,
1853,-1.03,-0.485,
1854,-1.01,-0.48,
1855,-1.01,-0.465,
1856,-1.015,-0.475,
1857,-1.01,-0.46,
1858,-1.0,-0.455,
1859,-0.995,-0.455,
1860,-1.01,-0.455,
1861,-1.005,-0.465,
1862,-1.015,-0.485,
1863,-1.03,-0.485,
1864,-1.025,-0.485,
1865,-1.045,-0.5,
1866,-1.06,-0.49,
1867,-1.05,-0.5,
1868,-1.04,-0.475,
1869,-1.04,-0.45,
1870,-1.03,-0.445,
1871,-1.035,-0.455,
1872,-1.015,-0.445,
1873,-1.03,-0.465,
1874,-1.035,-0.45,
1875,-1.04,-0.47,
1876,-1.035,-0.48,
1877,-1.05,-0.49,
1878,-1.06,-0.5,
1879,-1.075,-0.495,
1880,-1.06,-0.5,
1881,-1.05,-0.48,
1882,-1.045,-0.475,
1883,-1.04,-0.455,
1884,-1.03,-0.47,
1885,-1.03,-0.47,
1886,-1.035,-0.495,
1887,-1.045,-0.485,
1888,-1.05,-0.485,
1889,-1.06,-0.5,
1890,-1.065,-0.505,
1891,-1.075,-0.475,
1892,-1.06,-0.495,
1893,-1.05,-0.47,
1894,-1.035,-0.45,
1895,-1.035,-0.445,
1896,-1.015,-0.45,
1897,-1.01,-0.45,
1898,-0.995,-0.45,
1899,-0.995,-0.46,
1900,-0.985,-0.47,
1901,-0.985,-0.46,
1902,-0.97,-0.455,
1903,-0.95,-0.45,
1904,-0.945,-0.43,
1905,-0.925,-0.435,
1906,-0.91,-0.415,
1907,-0.89,-0.405,
1908,-0.865,-0.38,
1909,-0.86,-0.4,
1910,-0.825,-0.39,
1911,-0.81,-0.39,
1912,-0.77,-0.39,
1913,-0.74,-0.405,
1914,-0.72,-0.425,
1915,-0.71,-0.435,
1916,-0.695,-0.465,
1917,-0.7,-0.46,
1918,-0.705,-0.475,
1919,-0.72,-0.47,
1920,-0.695,-0.485,
1921,-0.71,-0.475,
1922,-0.72,-0.505,
1923,-0.755,-0.515,
1924,-0.8,-0.525,
1925,-0.84,-0.545,
1926,-0.9,-0.555,
1927,-0.965,-0.555,
1928,-1.015,-0.535,
1929,-1.045,-0.515,
1930,-1.04,-0.515,
1931,-1.055,-0.5,
1932,-1.06,-0.49,
1933,-1.045,-0.49,
1934,-1.055,-0.515,
1935,-1.05,-0.515,
1936,-1.075,-0.515,
1937,-1.085,-0.545,
1938,-1.08,-0.545,
1939,-1.08,-0.54,
1940,-1.08,-0.53,
1941,-1.07,-0.52,
1942,-1.065,-0.505,
1943,-1.075,-0.51,
1944,-1.07,-0.515,
1945,-1.08,-0.505,
1946,-1.09,-0.525,
1947,-1.085,-0.53,
1948,-1.1,-0.525,
1949,-1.085,-0.555,
1950,-1.1,-0.555,
1951,-1.105,-0.545,
1952,-1.085,-0.525,
1953,-1.075,-0.52,
1954,-1.055,-0.515,
1955,-1.065,-0.495,
1956,-1.05,-0.495,
1957,-1.055,-0.49,
1958,-1.06,-0.5,
1959,-1.085,-0.495,
1960,-1.12,-0.475,
1961,-1.12,-0.46,
1962,-1.09,-0.415,
1963,-0.99,-0.35,
1964,-0.835,-0.31,
1965,-0.575,-0.305,
1966,-0.255,-0.355,
1967,0.145,-0.465,
1968,0.535,-0.655,
1969,0.865,-0.895,
1970,1.065,-1.155,
1971,1.165,-1.375,N
1972,1.11,-1.525,
1973,0.9,-1.57,
1974,0.525,-1.55,
1975,-0.015,-1.49,
1976,-0.575,-1.39,
1977,-1.0,-1.285,
1978,-1.21,-1.18,
1979,-1.21,-1.055,
1980,-1.085,-0.95,
1981,-0.955,-0.86,
1982,-0.855,-0.81,
1983,-0.83,-0.755,
1984,-0.855,-0.685,
1985,-0.935,-0.645,
1986,-0.99,-0.595,
1987,-1.035,-0.56,
1988,-1.05,-0.54,
1989,-1.085,-0.51,
1990,-1.055,-0.51,
1991,-1.06,-0.495,
1992,-1.025,-0.485,
1993,-1.035,-0.485,
1994,-1.045,-0.47,
1995,-1.05,-0.485,
1996,-1.055,-0.465,
1997,-1.09,-0.485,
1998,-1.09,-0.485,
1999,-1.085,-0.48,
2000,-1.085,-0.455,
2001,-1.08,-0.45,
2002,-1.08,-0.445,
2003,-1.07,-0.445,
2004,-1.055,-0.435,
2005,-1.065,-0.43,
2006,-1.07,-0.425,
2007,-1.06,-0.45,
2008,-1.08,-0.465,
2009,-1.09,-0.47,
2010,-1.09,-0.485,
2011,-1.09,-0.475,
2012,-1.085,-0.455,
2013,-1.07,-0.45,
2014,-1.07,-0.45,
2015,-1.05,-0.445,
2016,-1.045,-0.44,
2017,-1.055,-0.435,
2018,-1.065,-0.43,
2019,-1.065,-0.45,
2020,-1.04,-0.465,
2021,-1.06,-0.485,
2022,-1.055,-0.48,
2023,-1.05,-0.48,
2024,-1.065,-0.46,
2025,-1.04,-0.46,
2026,-1.03,-0.455,
2027,-1.02,-0.44,
2028,-1.025,-0.45,
2029,-1.01,-0.44,
2030,-0.99,-0.455,
2031,-0.995,-0.455,
2032,-0.99,-0.46,
2033,-0.99,-0.47,
2034,-0.985,-0.455,
2035,-0.98,-0.455,
2036,-0.97,-0.44,
2037,-0.955,-0.435,
2038,-0.935,-0.415,
2039,-0.935,-0.415,
2040,-0.91,-0.41,
2041,-0.905,-0.41,
2042,-0.905,-0.415,
2043,-0.89,-0.44,
2044,-0.9,-0.415,
2045,-0.915,-0.45,
2046,-0.905,-0.455,
2047,-0.88,-0.435,
2048,-0.845,-0.435,
2049,-0.82,-0.425,
2050,-0.815,-0.41,
2051,-0.775,-0.41,
2052,-0.765,-0.415,
2053,-0.745,-0.415,
2054,-0.71,-0.41,
2055,-0.725,-0.425,
2056,-0.695,-0.415,
2057,-0.675,-0.435,
2058,-0.64,-0.42,
2059,-0.625,-0.43,
2060,-0.605,-0.425,
2061,-0.57,-0.41,
2062,-0.55,-0.4,
2063,-0.53,-0.41,
2064,-0.51,-0.395,
2065,-0.485,-0.41,
2066,-0.47,-0.42,
2067,-0.47,-0.44,
2068,-0.45,-0.44,
2069,-0.445,-0.455,
2070,-0.42,-0.45,
2071,-0.425,-0.45,
2072,-0.415,-0.455,
2073,-0.41,-0.44,
2074,-0.395,-0.445,
2075,-0.395,-0.44,
2076,-0.37,-0.41,
2077,-0.4,-0.43,
2078,-0.41,-0.45,
2079,-0.45,-0.465,
2080,-0.485,-0.45,
2081,-0.5,-0.455,
2082,-0.53,-0.455,
2083,-0.585,-0.45,
2084,-0.615,-0.45,
2085,-0.62,-0.42,
2086,-0.65,-0.425,
2087,-0.665,-0.42,
2088,-0.705,-0.405,
2089,-0.74,-0.42,
2090,-0.765,-0.425,
2091,-0.8,-0.43,
2092,-0.83,-0.44,
2093,-0.85,-0.46,
2094,-0.86,-0.465,
2095,-0.885,-0.47,
2096,-0.91,-0.46,
2097,-0.905,-0.445,
2098,-0.915,-0.45,
2099,-0.92,-0.445,
2100,-0.93,-0.425,
2101,-0.93,-0.44,
2102,-0.955,-0.455,
2103,-0.96,-0.45,
2104,-0.97,-0.445,
2105,-0.975,-0.47,
2106,-0.985,-0.47,
2107,-0.995,-0.485,
2108,-1.0,-0.48,
2109,-0.98,-0.46,
2110,-0.99,-0.465,
2111,-0.975,-0.465,
2112,-0.96,-0.46,
2113,-0.965,-0.48,
2114,-0.98,-0.465,
2115,-0.985,-0.485,
2116,-0.99,-0.48,
2117,-0.995,-0.485,
2118,-0.98,-0.5,
2119,-0.985,-0.49,
2120,-0.985,-0.485,
2121,-0.965,-0.475,
2122,-0.945,-0.46,
2123,-0.945,-0.445,
2124,-0.925,-0.44,
2125,-0.925,-0.445,
2126,-0.94,-0.455,
2127,-0.95,-0.465,
2128,-0.955,-0.47,
2129,-0.955,-0.49,
2130,-0.935,-0.495,
2131,-0.945,-0.49,
2132,-0.945,-0.49,
2133,-0.93,-0.46,
2134,-0.915,-0.475,
2135,-0.915,-0.46,
2136,-0.91,-0.475,
2137,-0.915,-0.475,
2138,-0.92,-0.475,
2139,-0.93,-0.495,
2140,-0.94,-0.505,
2141,-0.92,-0.51,
2142,-0.925,-0.505,
2143,-0.935,-0.505,
2144,-0.915,-0.5,
2145,-0.905,-0.485,
2146,-0.895,-0.475,
2147,-0.885,-0.475,
2148,-0.89,-0.48,
2149,-0.9,-0.455,
2150,-0.9,-0.49,
2151,-0.905,-0.485,
2152,-0.905,-0.485,
2153,-0.915,-0.515,
2154,-0.93,-0.515,
2155,-0.925,-0.5,
2156,-0.93,-0.525,
2157,-0.915,-0.51,
2158,-0.92,-0.49,
2159,-0.915,-0.49,
2160,-0.92,-0.49,
2161,-0.915,-0.485,
2162,-0.92,-0.495,
2163,-0.925,-0.5,
2164,-0.93,-0.505,
2165,-0.925,-0.53,
2166,-0.945,-0.53,
2167,-0.955,-0.51,
2168,-0.955,-0.5,
2169,-0.955,-0.495,
2170,-0.94,-0.485,
2171,-0.92,-0.48,
2172,-0.92,-0.475,
2173,-0.945,-0.495,
2174,-0.945,-0.495,
2175,-0.935,-0.505,
2176,-0.945,-0.515,
2177,-0.95,-0.505,
2178,-0.965,-0.515,
2179,-0.96,-0.515,
2180,-0.965,-0.495,
2181,-0.945,-0.49,
2182,-0.95,-0.495,
2183,-0.94,-0.495,
2184,-0.925,-0.5,
2185,-0.945,-0.49,
2186,-0.95,-0.505,
2187,-0.97,-0.5,
2188,-0.965,-0.515,
2189,-0.97,-0.525,
2190,-0.97,-0.525,
2191,-0.99,-0.515,
2192,-0.99,-0.51,
2193,-0.96,-0.495,
2194,-0.975,-0.495,
2195,-0.945,-0.48,
2196,-0.95,-0.48,
2197,-0.95,-0.48,
2198,-0.96,-0.485,
2199,-0.955,-0.51,
2200,-0.965,-0.52,
2201,-0.99,-0.505,
2202,-0.975,-0.525,
2203,-0.975,-0.52,
2204,-0.975,-0.52,
2205,-0.96,-0.51,
2206,-0.96,-0.505,
2207,-0.945,-0.51,
2208,-0.94,-0.505,
2209,-0.935,-0.51,
2210,-0.93,-0.505,
2211,-0.945,-0.53,
2212,-0.945,-0.535,
2213,-0.965,-0.54,
2214,-0.95,-0.525,
2215,-0.96,-0.53,
2216,-0.955,-0.52,
2217,-0.92,-0.49,
2218,-0.905,-0.49,
2219,-0.88,-0.46,
2220,-0.86,-0.45,
2221,-0.845,-0.455,
2222,-0.85,-0.455,
2223,-0.835,-0.46,
2224,-0.83,-0.45,
2225,-0.815,-0.465,
2226,-0.82,-0.465,
2227,-0.815,-0.46,
2228,-0.78,-0.45,
2229,-0.745,-0.425,
2230,-0.725,-0.41,
2231,-0.685,-0.39,
2232,-0.63,-0.395,
2233,-0.605,-0.395,
2234,-0.59,-0.435,
2235,-0.59,-0.46,
2236,-0.6,-0.49,
2237,-0.62,-0.51,
2238,-0.635,-0.53,
2239,-0.665,-0.54,
2240,-0.645,-0.535,
2241,-0.64,-0.52,
2242,-0.645,-0.505,
2243,-0.65,-0.52,
2244,-0.71,-0.52,
2245,-0.755,-0.535,
2246,-0.82,-0.525,
2247,-0.875,-0.545,
2248,-0.925,-0.53,
2249,-0.96,-0.54,
2250,-0.995,-0.56,
2251,-1.02,-0.555,
2252,-1.01,-0.545,
2253,-0.99,-0.525,
2254,-0.97,-0.52,
2255,-0.96,-0.52,
2256,-0.97,-0.515,
2257,-0.975,-0.515,
2258,-0.975,-0.515,
2259,-0.99,-0.53,
2260,-1.01,-0.53,
2261,-1.01,-0.535,
2262,-1.015,-0.555,
2263,-1.025,-0.535,
2264,-1.01,-0.53,
2265,-1.005,-0.535,
2266,-1.015,-0.525,
2267,-0.995,-0.525,
2268,-0.99,-0.53,
2269,-0.98,-0.525,
2270,-0.985,-0.525,
2271,-0.99,-0.53,
2272,-0.99,-0.53,
2273,-0.99,-0.545,
2274,-0.99,-0.545,
2275,-0.99,-0.565,
2276,-0.985,-0.535,
2277,-0.995,-0.535,
2278,-0.985,-0.535,
2279,-0.985,-0.525,
2280,-0.99,-0.505,
2281,-1.01,-0.49,
2282,-1.035,-0.48,
2283,-1.05,-0.445,
2284,-1.035,-0.4,
2285,-0.985,-0.345,
2286,-0.88,-0.295,
2287,-0.71,-0.265,
2288,-0.45,-0.315,
2289,-0.145,-0.39,
2290,0.225,-0.505,
2291,0.6,-0.69,
2292,0.92,-0.91,
2293,1.13,-1.16,
2294,1.205,-1.385,N
2295,1.2,-1.565,
2296,1.085,-1.67,
2297,0.845,-1.675,
2298,0.45,-1.625,
2299,-0.045,-1.55,
2300,-0.57,-1.455,
2301,-0.935,-1.365,
2302,-1.12,-1.245,
2303,-1.095,-1.135,
2304,-0.995,-1.015,
2305,-0.845,-0.93,
2306,-0.755,-0.845,
2307,-0.745,-0.76,
2308,-0.775,-0.72,
2309,-0.825,-0.66,
2310,-0.91,-0.605,
2311,-0.96,-0.575,
2312,-0.99,-0.545,
2313,-0.99,-0.53,
2314,-0.97,-0.505,
2315,-0.975,-0.495,
2316,-0.95,-0.5,
2317,-0.96,-0.49,
2318,-0.965,-0.485,
2319,-0.955,-0.485,
2320,-0.97,-0.485,
2321,-1.005,-0.505,
2322,-1.005,-0.485,
2323,-1.02,-0.495,
2324,-1.005,-0.495,
2325,-1.0,-0.47,
2326,-0.995,-0.46,
2327,-1.0,-0.435,
2328,-0.99,-0.425,
2329,-0.99,-0.43,
2330,-1.01,-0.44,
2331,-0.995,-0.45,
2332,-1.01,-0.445,
2333,-1.015,-0.455,
2334,-1.015,-0.465,
2335,-1.025,-0.455,
2336,-1.015,-0.46,
2337,-1.0,-0.45,
2338,-0.99,-0.44,
2339,-0.995,-0.415,
2340,-0.99,-0.42,
2341,-0.99,-0.415,
2342,-1.0,-0.43,
2343,-0.995,-0.45,
2344,-1.01,-0.45,
2345,-1.03,-0.46,
2346,-1.03,-0.47,
2347,-1.005,-0.455,
2348,-1.015,-0.46,
2349,-0.995,-0.45,
2350,-0.99,-0.435,
2351,-0.97,-0.405,
2352,-0.955,-0.4,
2353,-0.955,-0.395,
2354,-0.955,-0.41,
2355,-0.955,-0.405,
2356,-0.975,-0.42,
2357,-0.965,-0.435,
2358,-0.97,-0.44,
2359,-0.97,-0.44,
2360,-0.97,-0.435,
2361,-0.935,-0.425,
2362,-0.925,-0.4,
2363,-0.92,-0.42,
2364,-0.925,-0.41,
2365,-0.935,-0.405,
2366,-0.925,-0.42,
2367,-0.915,-0.425,
2368,-0.91,-0.435,
2369,-0.91,-0.425,
2370,-0.905,-0.435,
2371,-0.895,-0.43,
2372,-0.9,-0.405,
2373,-0.875,-0.4,
2374,-0.855,-0.38,
2375,-0.825,-0.38,
2376,-0.81,-0.37,
2377,-0.8,-0.37,
2378,-0.785,-0.37,
2379,-0.775,-0.375,
2380,-0.765,-0.39,
2381,-0.765,-0.395,
2382,-0.765,-0.415,
2383,-0.745,-0.395,
2384,-0.72,-0.385,
2385,-0.695,-0.375,
2386,-0.67,-0.365,
2387,-0.635,-0.365,
2388,-0.6,-0.36,
2389,-0.59,-0.365,
2390,-0.575,-0.365,
2391,-0.56,-0.395,
2392,-0.54,-0.39,
2393,-0.535,-0.395,
2394,-0.515,-0.405,
2395,-0.505,-0.405,
2396,-0.48,-0.39,
2397,-0.46,-0.385,
2398,-0.435,-0.385,
2399,-0.42,-0.365,
2400,-0.4,-0.37,
2401,-0.38,-0.37,
2402,-0.355,-0.395,
2403,-0.37,-0.4,
2404,-0.365,-0.425,
2405,-0.37,-0.425,
2406,-0.375,-0.43,
2407,-0.385,-0.425,
2408,-0.4,-0.445,
2409,-0.42,-0.435,
2410,-0.44,-0.42,
2411,-0.46,-0.41,
2412,-0.47,-0.405,
2413,-0.505,-0.41,
2414,-0.535,-0.395,
2415,-0.575,-0.405,
2416,-0.63,-0.415,
2417,-0.64,-0.41,
2418,-0.69,-0.41,
2419,-0.715,-0.415,
2420,-0.75,-0.41,
2421,-0.755,-0.4,
2422,-0.775,-0.41,
2423,-0.78,-0.395,
2424,-0.79,-0.415,
2425,-0.815,-0.415,
2426,-0.84,-0.41,
2427,-0.85,-0.43,
2428,-0.895,-0.43,
2429,-0.91,-0.455,
2430,-0.925,-0.465,
2431,-0.93,-0.465,
2432,-0.93,-0.455,
2433,-0.94,-0.445,
2434,-0.935,-0.45,
2435,-0.92,-0.425,
2436,-0.915,-0.445,
2437,-0.925,-0.435,
2438,-0.93,-0.42,
2439,-0.935,-0.425,
2440,-0.935,-0.45,
2441,-0.935,-0.455,
2442,-0.95,-0.455,
2443,-0.965,-0.45,
2444,-0.97,-0.465,
2445,-0.965,-0.45,
2446,-0.96,-0.43,
2447,-0.96,-0.435,
2448,-0.93,-0.43,
2449,-0.94,-0.44,
2450,-0.935,-0.435,
2451,-0.935,-0.445,
2452,-0.935,-0.455,
2453,-0.95,-0.47,
2454,-0.945,-0.475,
2455,-0.945,-0.475,
2456,-0.935,-0.475,
2457,-0.94,-0.46,
2458,-0.925,-0.455,
2459,-0.925,-0.42,
2460,-0.915,-0.405,
2461,-0.915,-0.415,
2462,-0.915,-0.41,
2463,-0.91,-0.4,
2464,-0.925,-0.41,
2465,-0.92,-0.4,
2466,-0.945,-0.38,
2467,-0.95,-0.355,
2468,-0.91,-0.33,
2469,-0.865,-0.29,
2470,-0.795,-0.205,
2471,-0.69,-0.175,
2472,-0.555,-0.18,
2473,-0.405,-0.26,
2474,-0.28,-0.37,
2475,-0.135,-0.52,
2476,0.005,-0.69,
2477,0.175,-0.83,
2478,0.36,-0.97,
2479,0.555,-1.11,
2480,0.78,-1.28,
2481,1.0,-1.455,
2482,1.215,-1.625,
2483,1.395,-1.83,
2484,1.57,-2.015,
2485,1.715,-2.17,
2486,1.83,-2.29,
2487,1.9,-2.35,
2488,1.935,-2.38,V
2489,1.94,-2.405,
2490,1.945,-2.41,
2491,1.915,-2.395,
2492,1.88,-2.375,
2493,1.815,-2.335,
2494,1.735,-2.305,
2495,1.675,-2.215,
2496,1.63,-2.145,
2497,1.6,-2.025,
2498,1.605,-1.94,
2499,1.61,-1.87,
2500,1.57,-1.785,
2501,1.53,-1.695,
2502,1.44,-1.605,
2503,1.3,-1.515,
2504,1.15,-1.435,
2505,0.985,-1.32,
2506,0.78,-1.225,
2507,0.53,-1.14,
2508,0.18,-1.035,
2509,-0.21,-0.96,
2510,-0.6,-0.855,
2511,-0.88,-0.74,
2512,-1.07,-0.65,
2513,-1.13,-0.53,
2514,-1.145,-0.47,
2515,-1.13,-0.42,
2516,-1.1,-0.385,
2517,-1.12,-0.38,
2518,-1.145,-0.355,
2519,-1.19,-0.345,
2520,-1.225,-0.315,
2521,-1.255,-0.305,
2522,-1.3,-0.285,
2523,-1.325,-0.29,
2524,-1.355,-0.29,
2525,-1.375,-0.28,
2526,-1.395,-0.265,
2527,-1.4,-0.255,
2528,-1.415,-0.24,
2529,-1.425,-0.22,
2530,-1.43,-0.2,
2531,-1.455,-0.19,
2532,-1.455,-0.18,
2533,-1.46,-0.17,
2534,-1.465,-0.165,
2535,-1.475,-0.17,
2536,-1.495,-0.165,
2537,-1.52,-0.17,
2538,-1.535,-0.17,
2539,-1.545,-0.165,
2540,-1.56,-0.145,
2541,-1.56,-0.115,
2542,-1.56,-0.095,
2543,-1.57,-0.06,
2544,-1.565,-0.055,
2545,-1.575,-0.03,
2546,-1.565,-0.015,
2547,-1.575,-0.01,
2548,-1.575,-0.005,
2549,-1.59,0.005,
2550,-1.59,0.035,
2551,-1.59,0.05,
2552,-1.605,0.08,
2553,-1.62,0.115,
2554,-1.605,0.15,
2555,-1.605,0.165,
2556,-1.585,0.19,
2557,-1.575,0.21,
2558,-1.6,0.205,
2559,-1.57,0.21,
2560,-1.585,0.18,
2561,-1.605,0.175,
2562,-1.635,0.16,
2563,-1.675,0.155,
2564,-1.685,0.175,
2565,-1.71,0.18,
2566,-1.725,0.215,
2567,-1.72,0.245,
2568,-1.745,0.27,
2569,-1.8,0.285,
2570,-1.855,0.315,
2571,-1.91,0.32,
2572,-1.98,0.335,
2573,-2.035,0.34,
2574,-2.1,0.355,
2575,-2.17,0.39,
2576,-2.215,0.41,
2577,-2.245,0.445,
2578,-2.275,0.475,
2579,-2.28,0.475,
2580,-2.315,0.495,
2581,-2.33,0.51,
2582,-2.32,0.49,
2583,-2.335,0.48,
2584,-2.35,0.48,
2585,-2.36,0.455,
2586,-2.365,0.435,
2587,-2.375,0.43,
2588,-2.37,0.41,
2589,-2.35,0.415,
2590,-2.315,0.4,
2591,-2.29,0.39,
2592,-2.26,0.365,
2593,-2.225,0.34,
2594,-2.195,0.31,
2595,-2.165,0.265,
2596,-2.145,0.235,
2597,-2.11,0.195,
2598,-2.04,0.145,
2599,-1.985,0.11,
2600,-1.92,0.075,
2601,-1.86,0.035,
2602,-1.79,0.01,
2603,-1.76,-0.025,
2604,-1.67,-0.04,
2605,-1.625,-0.11,
2606,-1.58,-0.135,
2607,-1.54,-0.185,
2608,-1.495,-0.21,
2609,-1.455,-0.25,
2610,-1.415,-0.285,
2611,-1.38,-0.305,
2612,-1.35,-0.315,
2613,-1.33,-0.33,
2614,-1.3,-0.32,
2615,-1.27,-0.33,
2616,-1.27,-0.32,
2617,-1.255,-0.35,
2618,-1.235,-0.365,
2619,-1.23,-0.375,
2620,-1.225,-0.4,
2621,-1.225,-0.405,
2622,-1.22,-0.425,
2623,-1.26,-0.43,
2624,-1.24,-0.415,
2625,-1.215,-0.405,
2626,-1.205,-0.405,
2627,-1.22,-0.39,
2628,-1.205,-0.39,
2629,-1.205,-0.405,
2630,-1.2,-0.4,
2631,-1.21,-0.415,
2632,-1.215,-0.44,
2633,-1.21,-0.45,
2634,-1.215,-0.43,
2635,-1.225,-0.435,
2636,-1.2,-0.43,
2637,-1.205,-0.405,
2638,-1.195,-0.41,
2639,-1.19,-0.38,
2640,-1.17,-0.375,
2641,-1.17,-0.385,
2642,-1.175,-0.38,
2643,-1.17,-0.405,
2644,-1.18,-0.41,
2645,-1.19,-0.41,
2646,-1.185,-0.41,
2647,-1.18,-0.42,
2648,-1.175,-0.41,
2649,-1.175,-0.41,
2650,-1.155,-0.395,
2651,-1.145,-0.395,
2652,-1.13,-0.385,
2653,-1.115,-0.395,
2654,-1.12,-0.395,
2655,-1.135,-0.415,
2656,-1.135,-0.425,
2657,-1.145,-0.41,
2658,-1.14,-0.44,
2659,-1.135,-0.445,
2660,-1.145,-0.425,
2661,-1.13,-0.4,
2662,-1.13,-0.415,
2663,-1.125,-0.375,
2664,-1.115,-0.37,
2665,-1.105,-0.39,
2666,-1.115,-0.405,
2667,-1.095,-0.42,
2668,-1.095,-0.425,
2669,-1.11,-0.42,
2670,-1.115,-0.43,
2671,-1.11,-0.44,
2672,-1.115,-0.445,
2673,-1.1,-0.44,
2674,-1.12,-0.43,
2675,-1.095,-0.415,
2676,-1.08,-0.4,
2677,-1.085,-0.405,
2678,-1.08,-0.43,
2679,-1.08,-0.43,
2680,-1.075,-0.45,
2681,-1.085,-0.46,
2682,-1.1,-0.465,
2683,-1.105,-0.47,
2684,-1.09,-0.47,
2685,-1.1,-0.455,
2686,-1.08,-0.455,
2687,-1.075,-0.435,
2688,-1.06,-0.435,
2689,-1.05,-0.445,
2690,-1.035,-0.45,
2691,-1.045,-0.43,
2692,-1.055,-0.45,
2693,-1.06,-0.47,
2694,-1.07,-0.49,
2695,-1.065,-0.475,
2696,-1.08,-0.475,
2697,-1.08,-0.465,
2698,-1.06,-0.465,
2699,-1.045,-0.45,
2700,-1.035,-0.46,
2701,-1.04,-0.45,
2702,-1.04,-0.455,
2703,-1.04,-0.46,
2704,-1.045,-0.47,
2705,-1.06,-0.47,
2706,-1.05,-0.475,
2707,-1.045,-0.485,
2708,-1.045,-0.48,
2709,-1.05,-0.475,
2710,-1.03,-0.48,
2711,-1.035,-0.45,
2712,-1.015,-0.455,
2713,-1.015,-0.45,
2714,-1.02,-0.47,
2715,-1.025,-0.475,
2716,-1.02,-0.49,
2717,-1.03,-0.485,
2718,-1.03,-0.5,
2719,-1.02,-0.515,
2720,-1.025,-0.505,
2721,-1.035,-0.51,
2722,-1.015,-0.49,
2723,-1.01,-0.475,
2724,-1.005,-0.475,
2725,-0.995,-0.47,
2726,-1.0,-0.49,
2727,-1.01,-0.475,
2728,-1.01,-0.48,
2729,-1.015,-0.49,
2730,-1.025,-0.49,
2731,-1.03,-0.5,
2732,-1.025,-0.49,
2733,-1.015,-0.485,
2734,-1.01,-0.475,
2735,-0.98,-0.475,
2736,-0.975,-0.465,
2737,-0.96,-0.465,
2738,-0.985,-0.48,
2739,-0.985,-0.49,
2740,-1.005,-0.5,
2741,-0.995,-0.52,
2742,-1.01,-0.52,
2743,-1.03,-0.52,
2744,-1.005,-0.525,
2745,-1.01,-0.515,
2746,-0.995,-0.495,
2747,-0.975,-0.475,
2748,-0.965,-0.485,
2749,-0.96,-0.475,
2750,-0.955,-0.48,
2751,-0.97,-0.485,
2752,-0.99,-0.495,
2753,-0.985,-0.5,
2754,-1.005,-0.495,
2755,-0.985,-0.52,
2756,-0.985,-0.51,
2757,-0.97,-0.505,
2758,-0.98,-0.49,
2759,-0.955,-0.49,
2760,-0.95,-0.48,
2761,-0.95,-0.495,
2762,-0.96,-0.505,
2763,-0.955,-0.505,
2764,-0.98,-0.515,
2765,-0.98,-0.52,
2766,-0.985,-0.53,
2767,-0.985,-0.54,
2768,-0.99,-0.525,
2769,-0.97,-0.505,
2770,-0.96,-0.5,
2771,-0.96,-0.5,
2772,-0.945,-0.47,
2773,-0.95,-0.48,
2774,-0.95,-0.485,
2775,-0.95,-0.48,
2776,-0.96,-0.51,
2777,-0.965,-0.515,
2778,-0.99,-0.515,
2779,-0.975,-0.52,
2780,-0.97,-0.53,
2781,-0.96,-0.52,
2782,-0.96,-0.515,
2783,-0.965,-0.485,
2784,-0.93,-0.475,
2785,-0.945,-0.495,
2786,-0.95,-0.51,
2787,-0.955,-0.51,
2788,-0.965,-0.515,
2789,-0.965,-0.535,
2790,-0.975,-0.54,
2791,-0.975,-0.525,
2792,-0.955,-0.525,
2793,-0.955,-0.515,
2794,-0.94,-0.51,
2795,-0.955,-0.47,
2796,-0.95,-0.495,
2797,-0.95,-0.48,
2798,-0.945,-0.51,
2799,-0.95,-0.5,
2800,-0.955,-0.515,
2801,-0.96,-0.53,
2802,-0.965,-0.535,
2803,-0.97,-0.535,
2804,-0.96,-0.535,
2805,-0.96,-0.52,
2806,-0.955,-0.52,
2807,-0.935,-0.51,
2808,-0.945,-0.505,
2809,-0.935,-0.515,
2810,-0.925,-0.51,
2811,-0.93,-0.51,
2812,-0.935,-0.51,
2813,-0.945,-0.51,
2814,-0.95,-0.525,
2815,-0.965,-0.53,
2816,-0.975,-0.525,
2817,-0.95,-0.505,
2818,-0.935,-0.505,
2819,-0.95,-0.485,
2820,-0.925,-0.495,
2821,-0.915,-0.485,
2822,-0.925,-0.5,
2823,-0.925,-0.505,
2824,-0.93,-0.5,
2825,-0.93,-0.525,
2826,-0.935,-0.52,
2827,-0.945,-0.55,
2828,-0.935,-0.55,
2829,-0.935,-0.53,
2830,-0.94,-0.52,
2831,-0.92,-0.49,
2832,-0.905,-0.495,
2833,-0.895,-0.505,
2834,-0.905,-0.51,
2835,-0.905,-0.515,
2836,-0.91,-0.515,
2837,-0.92,-0.53,
2838,-0.935,-0.525,
2839,-0.96,-0.54,
2840,-0.955,-0.525,
2841,-0.925,-0.515,
2842,-0.92,-0.52,
2843,-0.92,-0.515,
2844,-0.915,-0.515,
2845,-0.905,-0.51,
2846,-0.885,-0.52,
2847,-0.9,-0.515,
2848,-0.895,-0.53,
2849,-0.905,-0.55,
2850,-0.92,-0.54,
2851,-0.915,-0.565,
2852,-0.93,-0.55,
2853,-0.92,-0.545,
2854,-0.92,-0.525,
2855,-0.92,-0.515,
2856,-0.915,-0.515,
2857,-0.885,-0.515,
2858,-0.885,-0.515,
2859,-0.885,-0.52,
2860,-0.91,-0.515,
2861,-0.925,-0.525,
2862,-0.935,-0.515,
2863,-0.915,-0.52,
2864,-0.905,-0.54,
2865,-0.905,-0.51,
2866,-0.895,-0.515,
2867,-0.9,-0.505,
2868,-0.88,-0.5,
2869,-0.885,-0.505,
2870,-0.89,-0.51,
2871,-0.87,-0.515,
2872,-0.89,-0.53,
2873,-0.905,-0.545,
2874,-0.91,-0.54,
2875,-0.93,-0.565,
2876,-0.93,-0.545,
2877,-0.925,-0.54,
2878,-0.895,-0.535,
2879,-0.89,-0.52,
2880,-0.87,-0.495,
2881,-0.865,-0.51,
2882,-0.87,-0.5,
2883,-0.875,-0.51,
2884,-0.875,-0.52,
2885,-0.885,-0.53,
2886,-0.89,-0.53,
2887,-0.895,-0.545,
2888,-0.885,-0.53,
2889,-0.875,-0.515,
2890,-0.85,-0.5,
2891,-0.825,-0.505,
2892,-0.81,-0.475,
2893,-0.775,-0.475,
2894,-0.775,-0.48,
2895,-0.765,-0.47,
2896,-0.78,-0.46,
2897,-0.775,-0.47,
2898,-0.745,-0.475,
2899,-0.72,-0.465,
2900,-0.69,-0.455,
2901,-0.655,-0.445,
2902,-0.605,-0.425,
2903,-0.555,-0.425,
2904,-0.52,-0.415,
2905,-0.52,-0.435,
2906,-0.52,-0.47,
2907,-0.545,-0.51,
2908,-0.545,-0.525,
2909,-0.58,-0.545,
2910,-0.575,-0.56,
2911,-0.575,-0.56,
2912,-0.575,-0.555,
2913,-0.585,-0.555,
2914,-0.605,-0.56,
2915,-0.645,-0.55,
2916,-0.685,-0.52,
2917,-0.745,-0.535,
2918,-0.815,-0.545,
2919,-0.84,-0.555,
2920,-0.88,-0.55,
2921,-0.89,-0.565,
2922,-0.91,-0.555,
2923,-0.905,-0.57,
2924,-0.9,-0.575,
2925,-0.895,-0.57,
2926,-0.895,-0.565,
2927,-0.89,-0.55,
2928,-0.88,-0.54,
2929,-0.885,-0.54,
2930,-0.885,-0.55,
2931,-0.89,-0.56,
2932,-0.895,-0.56,
2933,-0.915,-0.59,
2934,-0.91,-0.58,
2935,-0.92,-0.58,
2936,-0.91,-0.585,
2937,-0.905,-0.57,
2938,-0.885,-0.55,
2939,-0.9,-0.555,
2940,-0.905,-0.55,
2941,-0.885,-0.555,
2942,-0.895,-0.555,
2943,-0.935,-0.55,
2944,-0.965,-0.55,
2945,-0.98,-0.53,
2946,-0.95,-0.485,
2947,-0.875,-0.42,
2948,-0.735,-0.38,
2949,-0.525,-0.345,
2950,-0.26,-0.37,
2951,0.07,-0.425,
2952,0.435,-0.52,
2953,0.795,-0.68,
2954,1.075,-0.885,
2955,1.275,-1.105,
2956,1.345,-1.3,N
2957,1.32,-1.445,
2958,1.19,-1.525,
2959,0.935,-1.54,
2960,0.545,-1.51,
2961,0.045,-1.45,
2962,-0.46,-1.38,
2963,-0.84,-1.295,
2964,-1.0,-1.2,
2965,-0.98,-1.115,
2966,-0.86,-1.015,
2967,-0.745,-0.925,
2968,-0.67,-0.865,
2969,-0.665,-0.805,
2970,-0.695,-0.74,
2971,-0.78,-0.68,
2972,-0.83,-0.64,
2973,-0.885,-0.6,
2974,-0.91,-0.565,
2975,-0.93,-0.55,
2976,-0.905,-0.535,
2977,-0.895,-0.53,
2978,-0.89,-0.53,
2979,-0.9,-0.53,
2980,-0.895,-0.53,
2981,-0.91,-0.535,
2982,-0.925,-0.53,
2983,-0.935,-0.53,
2984,-0.95,-0.525,
2985,-0.945,-0.5,
2986,-0.93,-0.5,
2987,-0.935,-0.49,
2988,-0.925,-0.485,
2989,-0.91,-0.465,
2990,-0.915,-0.47,
2991,-0.935,-0.48,
2992,-0.935,-0.5,
2993,-0.935,-0.49,
2994,-0.96,-0.49,
2995,-0.985,-0.5,
2996,-0.96,-0.485,
2997,-0.955,-0.485,
2998,-0.955,-0.465,
2999,-0.935,-0.465,
3000,-0.935,-0.46,
3001,-0.925,-0.455,
3002,-0.925,-0.465,
3003,-0.93,-0.45,
3004,-0.945,-0.47,
3005,-0.955,-0.495,
3006,-0.98,-0.495,
3007,-0.97,-0.49,
3008,-0.955,-0.485,
3009,-0.95,-0.475,
3010,-0.94,-0.47,
3011,-0.935,-0.445,
3012,-0.925,-0.425,
3013,-0.92,-0.44,
3014,-0.93,-0.43,
3015,-0.92,-0.435,
3016,-0.925,-0.44,
3017,-0.945,-0.465,
3018,-0.935,-0.46,
3019,-0.94,-0.48,
3020,-0.935,-0.47,
3021,-0.915,-0.465,
3022,-0.915,-0.44,
3023,-0.895,-0.43,
3024,-0.885,-0.425,
3025,-0.875,-0.435,
3026,-0.87,-0.43,
3027,-0.875,-0.415,
3028,-0.86,-0.44,
3029,-0.865,-0.445,
3030,-0.88,-0.445,
3031,-0.87,-0.45,
3032,-0.85,-0.445,
3033,-0.85,-0.415,
3034,-0.81,-0.415,
3035,-0.81,-0.405,
3036,-0.78,-0.385,
3037,-0.77,-0.39,
3038,-0.77,-0.375,
3039,-0.76,-0.375,
3040,-0.765,-0.395,
3041,-0.75,-0.4,
3042,-0.765,-0.415,
3043,-0.74,-0.425,
3044,-0.73,-0.405,
3045,-0.695,-0.395,
3046,-0.67,-0.385,
3047,-0.65,-0.375,
3048,-0.62,-0.36,
3049,-0.605,-0.37,
3050,-0.595,-0.365,
3051,-0.575,-0.395,
3052,-0.57,-0.4,
3053,-0.565,-0.4,
3054,-0.555,-0.405,
3055,-0.545,-0.405,
3056,-0.535,-0.41,
3057,-0.515,-0.395,
3058,-0.48,-0.39,
3059,-0.475,-0.37,
3060,-0.465,-0.36,
3061,-0.435,-0.38,
3062,-0.425,-0.37,
3063,-0.41,-0.385,
3064,-0.41,-0.405,
3065,-0.42,-0.41,
3066,-0.4,-0.415,
3067,-0.405,-0.44,
3068,-0.38,-0.45,
3069,-0.36,-0.425,
3070,-0.345,-0.43,
3071,-0.34,-0.43,
3072,-0.335,-0.42,
3073,-0.32,-0.42,
3074,-0.33,-0.44,
3075,-0.33,-0.45,
3076,-0.35,-0.465,
3077,-0.37,-0.47,
3078,-0.39,-0.475,
3079,-0.415,-0.485,
3080,-0.445,-0.47,
3081,-0.45,-0.46,
3082,-0.475,-0.435,
3083,-0.485,-0.445,
3084,-0.51,-0.43,
3085,-0.52,-0.45,
3086,-0.545,-0.46,
3087,-0.58,-0.47,
3088,-0.605,-0.48,
3089,-0.63,-0.495,
3090,-0.65,-0.51,
3091,-0.685,-0.505,
3092,-0.71,-0.505,
3093,-0.725,-0.49,
3094,-0.725,-0.5,
3095,-0.73,-0.485,
3096,-0.73,-0.46,
3097,-0.735,-0.48,
3098,-0.755,-0.48,
3099,-0.775,-0.485,
3100,-0.78,-0.505,
3101,-0.795,-0.51,
3102,-0.81,-0.515,
3103,-0.805,-0.505,
3104,-0.8,-0.505,
3105,-0.795,-0.485,
3106,-0.805,-0.475,
3107,-0.8,-0.46,
3108,-0.79,-0.455,
3109,-0.78,-0.46,
3110,-0.795,-0.465,
3111,-0.79,-0.455,
3112,-0.79,-0.475,
3113,-0.8,-0.48,
3114,-0.8,-0.5,
3115,-0.82,-0.51,
3116,-0.815,-0.49,
3117,-0.795,-0.485,
3118,-0.79,-0.485,
3119,-0.78,-0.475,
3120,-0.77,-0.48,
3121,-0.775,-0.48,
3122,-0.775,-0.475,
3123,-0.77,-0.485,
3124,-0.78,-0.5,
3125,-0.79,-0.5,
3126,-0.785,-0.5,
3127,-0.785,-0.5,
3128,-0.79,-0.495,
3129,-0.78,-0.49,
3130,-0.765,-0.495,
3131,-0.77,-0.465,
3132,-0.755,-0.47,
3133,-0.76,-0.465,
3134,-0.775,-0.475,
3135,-0.77,-0.485,
3136,-0.775,-0.5,
3137,-0.785,-0.52,
3138,-0.79,-0.53,
3139,-0.795,-0.535,
3140,-0.805,-0.52,
3141,-0.8,-0.515,
3142,-0.79,-0.49,
3143,-0.78,-0.485,
3144,-0.775,-0.46,
3145,-0.78,-0.49,
3146,-0.785,-0.495,
3147,-0.785,-0.495,
3148,-0.8,-0.51,
3149,-0.81,-0.515,
3150,-0.825,-0.495,
3151,-0.825,-0.505,
3152,-0.84,-0.495,
3153,-0.825,-0.495,
3154,-0.81,-0.495,
3155,-0.8,-0.49,
3156,-0.79,-0.485,
3157,-0.795,-0.475,
3158,-0.8,-0.495,
3159,-0.83,-0.485,
3160,-0.84,-0.51,
3161,-0.85,-0.51,
3162,-0.845,-0.52,
3163,-0.85,-0.525,
3164,-0.845,-0.525,
3165,-0.84,-0.525,
3166,-0.84,-0.495,
3167,-0.825,-0.505,
3168,-0.82,-0.495,
3169,-0.825,-0.5,
3170,-0.83,-0.485,
3171,-0.845,-0.495,
3172,-0.88,-0.5,
3173,-0.88,-0.495,
3174,-0.88,-0.515,
3175,-0.89,-0.505,
3176,-0.89,-0.51,
3177,-0.895,-0.495,
3178,-0.9,-0.48,
3179,-0.89,-0.49,
3180,-0.87,-0.475,
3181,-0.885,-0.475,
3182,-0.87,-0.49,
3183,-0.87,-0.485,
3184,-0.89,-0.505,
3185,-0.895,-0.525,
3186,-0.905,-0.53,
3187,-0.9,-0.535,
3188,-0.91,-0.52,
3189,-0.9,-0.54,
3190,-0.91,-0.515,
3191,-0.89,-0.505,
3192,-0.88,-0.48,
3193,-0.87,-0.5,
3194,-0.88,-0.49,
3195,-0.875,-0.5,
3196,-0.89,-0.505,
3197,-0.885,-0.51,
3198,-0.915,-0.51,
3199,-0.905,-0.52,
3200,-0.925,-0.505,
3201,-0.905,-0.505,
3202,-0.88,-0.5,
3203,-0.88,-0.49,
3204,-0.885,-0.485,
3205,-0.875,-0.48,
3206,-0.88,-0.49,
3207,-0.88,-0.49,
3208,-0.89,-0.52,
3209,-0.9,-0.515,
3210,-0.91,-0.53,
3211,-0.92,-0.535,
3212,-0.92,-0.52,
3213,-0.895,-0.51,
3214,-0.89,-0.515,
3215,-0.885,-0.51,
3216,-0.875,-0.5,
3217,-0.89,-0.485,
3218,-0.89,-0.495,
3219,-0.885,-0.505,
3220,-0.88,-0.5,
3221,-0.895,-0.515,
3222,-0.885,-0.515,
3223,-0.885,-0.49,
3224,-0.895,-0.505,
3225,-0.85,-0.495,
3226,-0.83,-0.485,
3227,-0.805,-0.475,
3228,-0.78,-0.46,
3229,-0.76,-0.435,
3230,-0.75,-0.425,
3231,-0.745,-0.43,
3232,-0.725,-0.43,
3233,-0.72,-0.445,
3234,-0.72,-0.43,
3235,-0.7,-0.435,
3236,-0.69,-0.445,
3237,-0.655,-0.4,
3238,-0.59,-0.4,
3239,-0.56,-0.405,
3240,-0.52,-0.39,
3241,-0.495,-0.41,
3242,-0.515,-0.435,
3243,-0.535,-0.455,
3244,-0.565,-0.48,
3245,-0.57,-0.51,
3246,-0.565,-0.525,
3247,-0.585,-0.535,
3248,-0.575,-0.54,
3249,-0.59,-0.53,
3250,-0.595,-0.525,
3251,-0.605,-0.52,
3252,-0.65,-0.52,
3253,-0.705,-0.53,
3254,-0.755,-0.535,
3255,-0.805,-0.525,
3256,-0.86,-0.53,
3257,-0.895,-0.56,
3258,-0.89,-0.55,
3259,-0.915,-0.57,
3260,-0.9,-0.555,
3261,-0.915,-0.575,
3262,-0.89,-0.57,
3263,-0.905,-0.565,
3264,-0.89,-0.54,
3265,-0.89,-0.54,
3266,-0.91,-0.535,
3267,-0.93,-0.56,
3268,-0.945,-0.58,
3269,-0.94,-0.59,
3270,-0.945,-0.595,
3271,-0.94,-0.595,
3272,-0.945,-0.595,
3273,-0.925,-0.585,
3274,-0.925,-0.565,
3275,-0.915,-0.565,
3276,-0.91,-0.555,
3277,-0.905,-0.54,
3278,-0.91,-0.535,
3279,-0.91,-0.555,
3280,-0.9,-0.55,
3281,-0.93,-0.59,
3282,-0.93,-0.565,
3283,-0.94,-0.555,
3284,-0.97,-0.57,
3285,-0.975,-0.525,
3286,-0.975,-0.48,
3287,-0.93,-0.41,
3288,-0.85,-0.355,
3289,-0.7,-0.32,
3290,-0.5,-0.315,
3291,-0.185,-0.365,
3292,0.155,-0.495,
3293,0.535,-0.67,
3294,0.88,-0.885,
3295,1.13,-1.125,
3296,1.28,-1.35,N
3297,1.29,-1.53,
3298,1.23,-1.625,
3299,1.035,-1.64,
3300,0.71,-1.595,
3301,0.25,-1.545,
3302,-0.285,-1.485,
3303,-0.715,-1.41,
3304,-0.99,-1.335,
3305,-1.07,-1.24,
3306,-0.975,-1.145,
3307,-0.855,-1.05,
3308,-0.72,-0.965,
3309,-0.665,-0.86,
3310,-0.67,-0.78,
3311,-0.71,-0.7,
3312,-0.77,-0.645,
3313,-0.825,-0.605,
3314,-0.87,-0.58,
3315,-0.89,-0.55,
3316,-0.905,-0.555,
3317,-0.915,-0.57,
3318,-0.92,-0.555,
3319,-0.9,-0.555,
3320,-0.915,-0.535,
3321,-0.92,-0.535,
3322,-0.91,-0.525,
3323,-0.895,-0.505,
3324,-0.895,-0.49,
3325,-0.9,-0.505,
3326,-0.915,-0.51,
3327,-0.92,-0.48,
3328,-0.935,-0.505,
3329,-0.94,-0.51,
3330,-0.935,-0.505,
3331,-0.94,-0.51,
3332,-0.95,-0.505,
3333,-0.95,-0.485,
3334,-0.93,-0.49,
3335,-0.93,-0.48,
3336,-0.905,-0.475,
3337,-0.9,-0.46,
3338,-0.905,-0.475,
3339,-0.925,-0.48,
3340,-0.92,-0.49,
3341,-0.93,-0.5,
3342,-0.945,-0.49,
3343,-0.94,-0.505,
3344,-0.94,-0.51,
3345,-0.935,-0.505,
3346,-0.915,-0.48,
3347,-0.91,-0.475,
3348,-0.91,-0.475,
3349,-0.89,-0.475,
3350,-0.895,-0.475,
3351,-0.9,-0.485,
3352,-0.92,-0.475,
3353,-0.915,-0.49,
3354,-0.925,-0.495,
3355,-0.92,-0.495,
3356,-0.93,-0.485,
3357,-0.94,-0.495,
3358,-0.9,-0.465,
3359,-0.88,-0.465,
3360,-0.865,-0.455,
3361,-0.86,-0.465,
3362,-0.855,-0.45,
3363,-0.855,-0.465,
3364,-0.855,-0.485,
3365,-0.85,-0.48,
3366,-0.86,-0.51,
3367,-0.845,-0.495,
3368,-0.865,-0.5,
3369,-0.84,-0.49,
3370,-0.815,-0.49,
3371,-0.82,-0.46,
3372,-0.8,-0.48,
3373,-0.775,-0.455,
3374,-0.775,-0.47,
3375,-0.755,-0.455,
3376,-0.765,-0.47,
3377,-0.735,-0.475,
3378,-0.74,-0.47,
3379,-0.73,-0.475,
3380,-0.71,-0.475,
3381,-0.705,-0.465,
3382,-0.67,-0.45,
3383,-0.665,-0.445,
3384,-0.62,-0.43,
3385,-0.595,-0.435,
3386,-0.565,-0.44,
3387,-0.56,-0.46,
3388,-0.54,-0.455,
3389,-0.535,-0.465,
3390,-0.535,-0.485,
3391,-0.515,-0.49,
3392,-0.5,-0.465,
3393,-0.475,-0.455,
3394,-0.445,-0.445,
3395,-0.41,-0.43,
3396,-0.38,-0.415,
3397,-0.36,-0.425,
3398,-0.35,-0.41,
3399,-0.33,-0.415,
3400,-0.345,-0.43,
3401,-0.335,-0.45,
3402,-0.32,-0.46,
3403,-0.33,-0.47,
3404,-0.32,-0.475,
3405,-0.325,-0.47,
3406,-0.295,-0.48,
3407,-0.31,-0.46,
3408,-0.3,-0.45,
3409,-0.31,-0.47,
3410,-0.325,-0.465,
3411,-0.345,-0.48,
3412,-0.39,-0.495,
3413,-0.405,-0.505,
3414,-0.435,-0.495,
3415,-0.455,-0.505,
3416,-0.5,-0.49,
3417,-0.515,-0.5,
3418,-0.535,-0.475,
3419,-0.565,-0.465,
3420,-0.595,-0.465,
3421,-0.61,-0.45,
3422,-0.635,-0.46,
3423,-0.67,-0.46,
3424,-0.705,-0.49,
3425,-0.725,-0.49,
3426,-0.75,-0.5,
3427,-0.775,-0.51,
3428,-0.785,-0.515,
3429,-0.795,-0.515,
3430,-0.8,-0.485,
3431,-0.81,-0.485,
3432,-0.8,-0.475,
3433,-0.82,-0.495,
3434,-0.845,-0.505,
3435,-0.84,-0.515,
3436,-0.86,-0.515,
3437,-0.885,-0.535,
3438,-0.87,-0.53,
3439,-0.865,-0.535,
3440,-0.885,-0.525,
3441,-0.88,-0.515,
3442,-0.875,-0.505,
3443,-0.855,-0.495,
3444,-0.86,-0.48,
3445,-0.85,-0.49,
3446,-0.87,-0.495,
3447,-0.86,-0.495,
3448,-0.855,-0.515,
3449,-0.865,-0.535,
3450,-0.865,-0.515,
3451,-0.91,-0.52,
3452,-0.905,-0.53,
3453,-0.895,-0.51,
3454,-0.885,-0.51,
3455,-0.85,-0.5,
3456,-0.855,-0.505,
3457,-0.84,-0.515,
3458,-0.845,-0.495,
3459,-0.83,-0.525,
3460,-0.86,-0.51,
3461,-0.86,-0.52,
3462,-0.875,-0.535,
3463,-0.87,-0.52,
3464,-0.89,-0.555,
3465,-0.875,-0.53,
3466,-0.85,-0.51,
3467,-0.85,-0.49,
3468,-0.835,-0.49,
3469,-0.83,-0.51,
3470,-0.835,-0.5,
3471,-0.84,-0.5,
3472,-0.835,-0.525,
3473,-0.845,-0.535,
3474,-0.86,-0.545,
3475,-0.86,-0.55,
3476,-0.885,-0.55,
3477,-0.865,-0.535,
3478,-0.85,-0.53,
3479,-0.845,-0.52,
3480,-0.845,-0.53,
3481,-0.83,-0.53,
3482,-0.83,-0.515,
3483,-0.84,-0.515,
3484,-0.845,-0.545,
3485,-0.855,-0.535,
3486,-0.865,-0.55,
3487,-0.865,-0.55,
3488,-0.875,-0.54,
3489,-0.87,-0.53,
3490,-0.86,-0.54,
3491,-0.84,-0.53,
3492,-0.84,-0.515,
3493,-0.84,-0.515,
3494,-0.84,-0.525,
3495,-0.86,-0.54,
3496,-0.88,-0.535,
3497,-0.895,-0.55,
3498,-0.895,-0.565,
3499,-0.89,-0.57,
3500,-0.895,-0.575,
3501,-0.9,-0.57,
3502,-0.89,-0.555,
3503,-0.875,-0.54,
3504,-0.865,-0.55,
3505,-0.865,-0.53,
3506,-0.87,-0.54,
3507,-0.895,-0.535,
3508,-0.89,-0.555,
3509,-0.905,-0.57,
3510,-0.905,-0.57,
3511,-0.91,-0.55,
3512,-0.915,-0.55,
3513,-0.905,-0.555,
3514,-0.89,-0.545,
3515,-0.885,-0.54,
3516,-0.875,-0.515,
3517,-0.875,-0.51,
3518,-0.875,-0.53,
3519,-0.905,-0.55,
3520,-0.885,-0.555,
3521,-0.895,-0.565,
3522,-0.91,-0.565,
3523,-0.905,-0.57,
3524,-0.91,-0.58,
3525,-0.91,-0.58,
3526,-0.88,-0.555,
3527,-0.875,-0.545,
3528,-0.88,-0.545,
3529,-0.89,-0.52,
3530,-0.89,-0.535,
3531,-0.91,-0.535,
3532,-0.91,-0.545,
3533,-0.92,-0.55,
3534,-0.905,-0.565,
3535,-0.92,-0.56,
3536,-0.915,-0.58,
3537,-0.915,-0.555,
3538,-0.905,-0.55,
3539,-0.89,-0.54,
3540,-0.875,-0.535,
3541,-0.855,-0.525,
3542,-0.845,-0.525,
3543,-0.835,-0.525,
3544,-0.825,-0.52,
3545,-0.82,-0.515,
3546,-0.815,-0.51,
3547,-0.8,-0.52,
3548,-0.795,-0.505,
3549,-0.77,-0.475,
3550,-0.755,-0.465,
3551,-0.725,-0.44,
3552,-0.715,-0.43,
3553,-0.665,-0.41,
3554,-0.63,-0.41,
3555,-0.585,-0.425,
3556,-0.585,-0.445,
3557,-0.56,-0.47,
3558,-0.57,-0.495,
3559,-0.585,-0.53,
3560,-0.59,-0.545,
3561,-0.59,-0.56,
3562,-0.58,-0.55,
3563,-0.565,-0.565,
3564,-0.575,-0.565,
3565,-0.59,-0.55,
3566,-0.63,-0.585,
3567,-0.695,-0.6,
3568,-0.755,-0.59,
3569,-0.815,-0.6,
3570,-0.875,-0.585,
3571,-0.905,-0.585,
3572,-0.94,-0.59,
3573,-0.95,-0.595,
3574,-0.935,-0.575,
3575,-0.92,-0.555,
3576,-0.93,-0.56,
3577,-0.91,-0.565,
3578,-0.92,-0.58,
3579,-0.93,-0.585,
3580,-0.93,-0.595,
3581,-0.96,-0.605,
3582,-0.955,-0.62,
3583,-0.975,-0.63,
3584,-0.98,-0.615,
3585,-0.96,-0.605,
3586,-0.95,-0.595,
3587,-0.945,-0.58,
3588,-0.945,-0.59,
3589,-0.935,-0.585,
3590,-0.935,-0.6,
3591,-0.94,-0.605,
3592,-0.96,-0.585,
3593,-0.97,-0.62,
3594,-0.96,-0.615,
3595,-0.97,-0.6,
3596,-0.97,-0.625,
3597,-0.985,-0.61,
3598,-0.975,-0.58,
3599,-0.97,-0.595,
3600,-0.98,-0.575,
3601,-1.005,-0.57,
3602,-1.01,-0.53,
3603,-1.0,-0.49,
3604,-0.935,-0.465,
3605,-0.84,-0.395,
3606,-0.685,-0.385,
3607,-0.475,-0.4,
3608,-0.17,-0.455,
3609,0.195,-0.575,
3610,0.575,-0.73,
3611,0.895,-0.93,
3612,1.135,-1.145,
3613,1.265,-1.345,N
3614,1.285,-1.49,
3615,1.2,-1.565,
3616,0.985,-1.58,
3617,0.67,-1.53,
3618,0.235,-1.53,
3619,-0.31,-1.47,
3620,-0.76,-1.39,
3621,-1.06,-1.295,
3622,-1.14,-1.205,
3623,-1.055,-1.12,
3624,-0.915,-1.02,
3625,-0.775,-0.925,
3626,-0.7,-0.87,
3627,-0.705,-0.8,
3628,-0.77,-0.76,
3629,-0.835,-0.71,
3630,-0.905,-0.68,
3631,-0.94,-0.65,
3632,-0.985,-0.62,
3633,-0.985,-0.605,
3634,-0.965,-0.59,
3635,-0.95,-0.595,
3636,-0.95,-0.555,
3637,-0.94,-0.555,
3638,-0.955,-0.55,
3639,-0.965,-0.535,
3640,-0.97,-0.535,
3641,-0.975,-0.535,
3642,-0.99,-0.54,
3643,-1.01,-0.555,
3644,-1.005,-0.545,
3645,-1.015,-0.55,
3646,-0.99,-0.54,
3647,-0.98,-0.525,
3648,-0.975,-0.52,
3649,-0.96,-0.51,
3650,-0.975,-0.505,
3651,-0.98,-0.525,
3652,-0.98,-0.515,
3653,-0.995,-0.54,
3654,-1.005,-0.55,
3655,-1.01,-0.55,
3656,-1.015,-0.535,
3657,-1.03,-0.54,
3658,-1.005,-0.54,
3659,-0.995,-0.52,
3660,-0.98,-0.5,
3661,-0.975,-0.48,
3662,-0.99,-0.495,
3663,-0.99,-0.48,
3664,-0.99,-0.495,
3665,-0.99,-0.51,
3666,-1.0,-0.525,
3667,-0.995,-0.515,
3668,-1.0,-0.51,
3669,-1.01,-0.5,
3670,-0.995,-0.51,
3671,-0.985,-0.495,
3672,-0.965,-0.485,
3673,-0.97,-0.485,
3674,-0.985,-0.475,
3675,-0.975,-0.485,
3676,-0.97,-0.505,
3677,-0.975,-0.505,
3678,-0.975,-0.515,
3679,-0.97,-0.51,
3680,-0.97,-0.51,
3681,-0.97,-0.505,
3682,-0.96,-0.485,
3683,-0.92,-0.485,
3684,-0.895,-0.475,
3685,-0.88,-0.475,
3686,-0.87,-0.475,
3687,-0.865,-0.47,
3688,-0.865,-0.48,
3689,-0.88,-0.49,
3690,-0.88,-0.495,
3691,-0.865,-0.505,
3692,-0.865,-0.5,
3693,-0.86,-0.48,
3694,-0.83,-0.48,
3695,-0.81,-0.455,
3696,-0.795,-0.47,
3697,-0.755,-0.46,
3698,-0.76,-0.455,
3699,-0.75,-0.475,
3700,-0.74,-0.505,
3701,-0.715,-0.5,
3702,-0.705,-0.5,
3703,-0.68,-0.505,
3704,-0.66,-0.505,
3705,-0.635,-0.495,
3706,-0.61,-0.495,
3707,-0.565,-0.47,
3708,-0.55,-0.45,
3709,-0.53,-0.465,
3710,-0.525,-0.47,
3711,-0.51,-0.485,
3712,-0.485,-0.495,
3713,-0.475,-0.515,
3714,-0.475,-0.525,
3715,-0.46,-0.53,
3716,-0.455,-0.525,
3717,-0.43,-0.53,
3718,-0.41,-0.52,
3719,-0.395,-0.52,
3720,-0.39,-0.525,
3721,-0.36,-0.5,
3722,-0.37,-0.52,
3723,-0.375,-0.53,
3724,-0.38,-0.525,
3725,-0.41,-0.53,
3726,-0.425,-0.54,
3727,-0.46,-0.53,
3728,-0.47,-0.535,
3729,-0.49,-0.525,
3730,-0.495,-0.5,
3731,-0.535,-0.495,
3732,-0.555,-0.47,
3733,-0.57,-0.475,
3734,-0.6,-0.485,
3735,-0.635,-0.465,
3736,-0.68,-0.485,
3737,-0.71,-0.485,
3738,-0.745,-0.495,
3739,-0.78,-0.505,
3740,-0.795,-0.49,
3741,-0.82,-0.505,
3742,-0.835,-0.495,
3743,-0.84,-0.485,
3744,-0.845,-0.475,
3745,-0.87,-0.47,
3746,-0.87,-0.485,
3747,-0.905,-0.48,
3748,-0.92,-0.48,
3749,-0.945,-0.5,
3750,-0.95,-0.52,
3751,-0.955,-0.505,
3752,-0.96,-0.495,
3753,-0.975,-0.5,
3754,-0.97,-0.51,
3755,-0.96,-0.49,
3756,-0.95,-0.465,
3757,-0.955,-0.47,
3758,-0.955,-0.475,
3759,-0.955,-0.485,
3760,-0.965,-0.495,
3761,-0.97,-0.505,
3762,-0.995,-0.52,
3763,-1.005,-0.525,
3764,-1.0,-0.52,
3765,-0.985,-0.51,
3766,-1.0,-0.495,
3767,-0.98,-0.495,
3768,-0.965,-0.49,
3769,-0.955,-0.47,
3770,-0.97,-0.475,
3771,-0.97,-0.47,
3772,-0.96,-0.485,
3773,-0.98,-0.495,
3774,-0.975,-0.505,
3775,-0.98,-0.515,
3776,-0.98,-0.5,
3777,-0.985,-0.505,
3778,-0.965,-0.49,
3779,-0.94,-0.49,
3780,-0.93,-0.475,
3781,-0.915,-0.475,
3782,-0.93,-0.485,
3783,-0.915,-0.485,
3784,-0.93,-0.505,
3785,-0.94,-0.51,
3786,-0.95,-0.535,
3787,-0.945,-0.525,
3788,-0.94,-0.52,
3789,-0.945,-0.52,
3790,-0.94,-0.51,
3791,-0.935,-0.495,
3792,-0.935,-0.48,
3793,-0.91,-0.455,
3794,-0.925,-0.475,
3795,-0.92,-0.465,
3796,-0.935,-0.475,
3797,-0.93,-0.49,
3798,-0.945,-0.5,
3799,-0.94,-0.52,
3800,-0.96,-0.51,
3801,-0.95,-0.515,
3802,-0.95,-0.505,
3803,-0.93,-0.48,
3804,-0.94,-0.48,
3805,-0.935,-0.475,
3806,-0.92,-0.485,
3807,-0.935,-0.49,
3808,-0.945,-0.505,
3809,-0.955,-0.515,
3810,-0.95,-0.52,
3811,-0.965,-0.52,
3812,-0.965,-0.52,
3813,-0.97,-0.505,
3814,-0.96,-0.49,
3815,-0.975,-0.5,
3816,-0.965,-0.455,
3817,-0.96,-0.46,
3818,-0.95,-0.48,
3819,-0.96,-0.475,
3820,-0.97,-0.495,
3821,-0.975,-0.505,
3822,-0.99,-0.515,
3823,-0.995,-0.52,
3824,-0.99,-0.515,
3825,-0.99,-0.5,
3826,-0.98,-0.505,
3827,-0.975,-0.49,
3828,-0.975,-0.485,
3829,-0.955,-0.49,
3830,-0.975,-0.49,
3831,-0.98,-0.49,
3832,-0.985,-0.5,
3833,-0.995,-0.51,
3834,-0.99,-0.52,
3835,-0.985,-0.53,
3836,-1.0,-0.51,
3837,-0.995,-0.505,
3838,-0.99,-0.49,
3839,-0.99,-0.475,
3840,-0.99,-0.475,
3841,-0.99,-0.475,
3842,-0.985,-0.48,
3843,-0.985,-0.48,
3844,-0.995,-0.5,
3845,-1.01,-0.515,
3846,-1.01,-0.515,
3847,-1.005,-0.515,
3848,-0.99,-0.515,
3849,-0.99,-0.515,
3850,-0.97,-0.495,
3851,-0.935,-0.47,
3852,-0.91,-0.46,
3853,-0.885,-0.44,
3854,-0.86,-0.415,
3855,-0.85,-0.445,
3856,-0.85,-0.43,
3857,-0.84,-0.435,
3858,-0.83,-0.435,
3859,-0.81,-0.44,
3860,-0.8,-0.43,
3861,-0.75,-0.425,
3862,-0.71,-0.415,
3863,-0.67,-0.41,
3864,-0.65,-0.415,
3865,-0.64,-0.425,
3866,-0.64,-0.46,
3867,-0.665,-0.495,
3868,-0.68,-0.515,
3869,-0.69,-0.535,
3870,-0.685,-0.54,
3871,-0.71,-0.55,
3872,-0.73,-0.555,
3873,-0.775,-0.54,
3874,-0.815,-0.525,
3875,-0.865,-0.52,
3876,-0.905,-0.52,
3877,-0.935,-0.49,
3878,-0.965,-0.48,
3879,-0.995,-0.48,
3880,-1.005,-0.505,
3881,-1.025,-0.52,
3882,-1.035,-0.535,
3883,-1.045,-0.545,
3884,-1.04,-0.545,
3885,-1.025,-0.545,
3886,-1.035,-0.54,
3887,-1.035,-0.53,
3888,-1.035,-0.505,
3889,-1.02,-0.51,
3890,-1.02,-0.51,
3891,-1.035,-0.525,
3892,-1.05,-0.55,
3893,-1.05,-0.565,
3894,-1.055,-0.58,
3895,-1.075,-0.58,
3896,-1.065,-0.58,
3897,-1.06,-0.565,
3898,-1.06,-0.545,
3899,-1.065,-0.535,
3900,-1.035,-0.525,
3901,-1.045,-0.51,
3902,-1.025,-0.515,
3903,-1.04,-0.5,
3904,-1.045,-0.52,
3905,-1.055,-0.53,
3906,-1.055,-0.545,
3907,-1.055,-0.56,
3908,-1.055,-0.54,
3909,-1.06,-0.55,
3910,-1.07,-0.53,
3911,-1.075,-0.51,
3912,-1.085,-0.475,
3913,-1.06,-0.445,
3914,-1.025,-0.385,
3915,-0.94,-0.34,
3916,-0.78,-0.31,
3917,-0.575,-0.33,
3918,-0.29,-0.4,
3919,0.05,-0.53,
3920,0.41,-0.67,
3921,0.74,-0.855,
3922,0.995,-1.05,
3923,1.145,-1.255,N
3924,1.19,-1.395,
3925,1.13,-1.505,
3926,0.955,-1.535,
3927,0.63,-1.515,
3928,0.19,-1.485,
3929,-0.34,-1.42,
3930,-0.805,-1.37,
3931,-1.11,-1.3,
3932,-1.2,-1.2,
3933,-1.125,-1.105,
3934,-0.985,-1.0,
3935,-0.83,-0.925,
3936,-0.755,-0.845,
3937,-0.75,-0.775,
3938,-0.805,-0.73,
3939,-0.88,-0.685,
3940,-0.93,-0.635,
3941,-0.985,-0.605,
3942,-1.01,-0.595,
3943,-1.03,-0.575,
3944,-1.02,-0.575,
3945,-1.02,-0.555,
3946,-1.01,-0.52,
3947,-1.005,-0.5,
3948,-0.995,-0.475,
3949,-1.0,-0.475,
3950,-1.0,-0.465,
3951,-1.015,-0.47,
3952,-1.025,-0.485,
3953,-1.04,-0.485,
3954,-1.035,-0.5,
3955,-1.04,-0.485,
3956,-1.03,-0.49,
3957,-1.04,-0.48,
3958,-1.02,-0.47,
3959,-1.02,-0.46,
3960,-1.02,-0.45,
3961,-1.015,-0.445,
3962,-1.01,-0.455,
3963,-1.025,-0.46,
3964,-1.015,-0.46,
3965,-1.035,-0.49,
3966,-1.045,-0.49,
3967,-1.04,-0.485,
3968,-1.055,-0.48,
3969,-1.045,-0.48,
3970,-1.025,-0.46,
3971,-1.025,-0.46,
3972,-1.005,-0.445,
3973,-0.995,-0.425,
3974,-0.985,-0.44,
3975,-0.99,-0.44,
3976,-1.0,-0.45,
3977,-1.01,-0.45,
3978,-1.025,-0.47,
3979,-1.03,-0.49,
3980,-1.03,-0.49,
3981,-1.025,-0.47,
3982,-1.01,-0.46,
3983,-0.98,-0.455,
3984,-0.98,-0.44,
3985,-0.985,-0.43,
3986,-0.97,-0.435,
3987,-0.985,-0.445,
3988,-0.975,-0.455,
3989,-0.98,-0.47,
3990,-0.98,-0.475,
3991,-0.97,-0.465,
3992,-0.97,-0.47,
3993,-0.965,-0.45,
3994,-0.97,-0.435,
3995,-0.945,-0.435,
3996,-0.925,-0.425,
3997,-0.92,-0.42,
3998,-0.915,-0.43,
3999,-0.91,-0.42,
4000,-0.905,-0.44,
4001,-0.92,-0.435,
4002,-0.905,-0.44,
4003,-0.895,-0.455,
4004,-0.88,-0.45,
4005,-0.865,-0.445,
4006,-0.845,-0.435,
4007,-0.83,-0.435,
4008,-0.81,-0.42,
4009,-0.775,-0.42,
4010,-0.765,-0.415,
4011,-0.755,-0.41,
4012,-0.755,-0.425,
4013,-0.745,-0.42,
4014,-0.73,-0.455,
4015,-0.705,-0.445,
4016,-0.7,-0.435,
4017,-0.665,-0.41,
4018,-0.65,-0.415,
4019,-0.62,-0.41,
4020,-0.595,-0.405,
4021,-0.555,-0.38,
4022,-0.535,-0.395,
4023,-0.51,-0.41,
4024,-0.52,-0.43,
4025,-0.485,-0.425,
4026,-0.495,-0.44,
4027,-0.485,-0.45,
4028,-0.465,-0.455,
4029,-0.44,-0.435,
4030,-0.425,-0.445,
4031,-0.4,-0.44,
4032,-0.375,-0.43,
4033,-0.36,-0.435,
4034,-0.34,-0.445,
4035,-0.33,-0.445,
4036,-0.345,-0.45,
4037,-0.345,-0.48,
4038,-0.35,-0.485,
4039,-0.36,-0.47,
4040,-0.36,-0.48,
4041,-0.37,-0.47,
4042,-0.385,-0.455,
4043,-0.4,-0.45,
4044,-0.395,-0.445,
4045,-0.41,-0.425,
4046,-0.45,-0.44,
4047,-0.475,-0.44,
4048,-0.51,-0.44,
4049,-0.535,-0.475,
4050,-0.585,-0.46,
4051,-0.615,-0.47,
4052,-0.645,-0.465,
4053,-0.67,-0.455,
4054,-0.695,-0.44,
4055,-0.715,-0.465,
4056,-0.73,-0.45,
4057,-0.745,-0.445,
4058,-0.77,-0.45,
4059,-0.78,-0.46,
4060,-0.79,-0.455,
4061,-0.825,-0.47,
4062,-0.855,-0.49,
4063,-0.88,-0.495,
4064,-0.895,-0.5,
4065,-0.905,-0.47,
4066,-0.885,-0.475,
4067,-0.885,-0.465,
4068,-0.89,-0.47,
4069,-0.895,-0.47,
4070,-0.905,-0.485,
4071,-0.9,-0.47,
4072,-0.92,-0.49,
4073,-0.925,-0.49,
4074,-0.935,-0.51,
4075,-0.94,-0.5,
4076,-0.935,-0.51,
4077,-0.935,-0.51,
4078,-0.94,-0.485,
4079,-0.95,-0.505,
4080,-0.95,-0.5,
4081,-0.925,-0.48,
4082,-0.93,-0.49,
4083,-0.93,-0.5,
4084,-0.93,-0.5,
4085,-0.935,-0.495,
4086,-0.95,-0.5,
4087,-0.95,-0.5,
4088,-0.94,-0.495,
4089,-0.935,-0.5,
4090,-0.915,-0.49,
4091,-0.91,-0.495,
4092,-0.905,-0.47,
4093,-0.89,-0.475,
4094,-0.885,-0.475,
4095,-0.89,-0.485,
4096,-0.885,-0.49,
4097,-0.9,-0.505,
4098,-0.895,-0.51,
4099,-0.9,-0.495,
4100,-0.905,-0.51,
4101,-0.885,-0.505,
4102,-0.89,-0.5,
4103,-0.88,-0.495,
4104,-0.865,-0.49,
4105,-0.865,-0.48,
4106,-0.865,-0.495,
4107,-0.855,-0.495,
4108,-0.86,-0.505,
4109,-0.865,-0.495,
4110,-0.88,-0.5,
4111,-0.89,-0.5,
4112,-0.885,-0.505,
4113,-0.885,-0.505,
4114,-0.89,-0.48,
4115,-0.86,-0.49,
4116,-0.865,-0.48,
4117,-0.84,-0.485,
4118,-0.84,-0.485,
4119,-0.85,-0.495,
4120,-0.845,-0.51,
4121,-0.86,-0.51,
4122,-0.865,-0.53,
4123,-0.88,-0.53,
4124,-0.885,-0.535,
4125,-0.875,-0.52,
4126,-0.88,-0.53,
4127,-0.875,-0.515,
4128,-0.88,-0.51,
4129,-0.87,-0.49,
4130,-0.86,-0.52,
4131,-0.89,-0.51,
4132,-0.89,-0.505,
4133,-0.895,-0.53,
4134,-0.895,-0.52,
4135,-0.89,-0.525,
4136,-0.905,-0.51,
4137,-0.905,-0.525,
4138,-0.89,-0.515,
4139,-0.89,-0.5,
4140,-0.9,-0.5,
4141,-0.88,-0.495,
4142,-0.89,-0.5,
4143,-0.895,-0.5,
4144,-0.895,-0.51,
4145,-0.895,-0.525,
4146,-0.89,-0.52,
4147,-0.905,-0.54,
4148,-0.92,-0.54,
4149,-0.925,-0.54,
4150,-0.915,-0.535,
4151,-0.9,-0.52,
4152,-0.895,-0.505,
4153,-0.885,-0.495,
4154,-0.885,-0.505,
4155,-0.9,-0.505,
4156,-0.9,-0.5,
4157,-0.92,-0.51,
4158,-0.9,-0.525,
4159,-0.915,-0.535,
4160,-0.94,-0.53,
4161,-0.915,-0.535,
4162,-0.92,-0.525,
4163,-0.905,-0.53,
4164,-0.9,-0.505,
4165,-0.885,-0.515,
4166,-0.89,-0.495,
4167,-0.9,-0.525,
4168,-0.91,-0.53,
4169,-0.9,-0.54,
4170,-0.92,-0.54,
4171,-0.925,-0.545,
4172,-0.925,-0.565,
4173,-0.915,-0.55,
4174,-0.925,-0.545,
4175,-0.905,-0.525,
4176,-0.895,-0.495,
4177,-0.89,-0.51,
4178,-0.885,-0.505,
4179,-0.885,-0.505,
4180,-0.895,-0.5,
4181,-0.895,-0.52,
4182,-0.915,-0.505,
4183,-0.9,-0.52,
4184,-0.89,-0.535,
4185,-0.875,-0.51,
4186,-0.835,-0.485,
4187,-0.81,-0.475,
4188,-0.79,-0.46,
4189,-0.775,-0.435,
4190,-0.765,-0.445,
4191,-0.76,-0.435,
4192,-0.745,-0.455,
4193,-0.735,-0.45,
4194,-0.73,-0.465,
4195,-0.71,-0.455,
4196,-0.68,-0.45,
4197,-0.635,-0.43,
4198,-0.595,-0.41,
4199,-0.565,-0.425,
4200,-0.54,-0.445,
4201,-0.55,-0.45,
4202,-0.545,-0.475,
4203,-0.575,-0.51,
4204,-0.585,-0.535,
4205,-0.595,-0.54,
4206,-0.59,-0.555,
4207,-0.615,-0.555,
4208,-0.635,-0.58,
4209,-0.655,-0.56,
4210,-0.7,-0.565,
4211,-0.75,-0.555,
4212,-0.795,-0.555,
4213,-0.84,-0.535,
4214,-0.89,-0.53,
4215,-0.91,-0.56,
4216,-0.95,-0.57,
4217,-0.955,-0.565,
4218,-0.95,-0.595,
4219,-0.96,-0.58,
4220,-0.965,-0.595,
4221,-0.955,-0.57,
4222,-0.945,-0.585,
4223,-0.945,-0.565,
4224,-0.95,-0.54,
4225,-0.94,-0.55,
4226,-0.935,-0.555,
4227,-0.94,-0.57,
4228,-0.955,-0.56,
4229,-0.97,-0.585,
4230,-0.975,-0.585,
4231,-0.975,-0.58,
4232,-0.975,-0.6,
4233,-0.97,-0.605,
4234,-0.96,-0.575,
4235,-0.96,-0.58,
4236,-0.96,-0.56,
4237,-0.96,-0.56,
4238,-0.94,-0.565,
4239,-0.945,-0.58,
4240,-0.93,-0.575,
4241,-0.965,-0.575,
4242,-0.96,-0.585,
4243,-0.955,-0.585,
4244,-0.97,-0.57,
4245,-0.995,-0.55,
4246,-1.015,-0.525,
4247,-0.99,-0.495,
4248,-0.955,-0.43,
4249,-0.87,-0.345,
4250,-0.725,-0.325,
4251,-0.495,-0.35,
4252,-0.215,-0.4,
4253,0.145,-0.54,
4254,0.525,-0.7,
4255,0.84,-0.935,
4256,1.095,-1.185,
4257,1.205,-1.395,N
4258,1.235,-1.55,
4259,1.145,-1.65,
4260,0.945,-1.67,
4261,0.645,-1.615,
4262,0.15,-1.565,
4263,-0.365,-1.485,
4264,-0.795,-1.4,
4265,-1.04,-1.3,
4266,-1.07,-1.185,
4267,-0.98,-1.085,
4268,-0.85,-1.005,
4269,-0.76,-0.905,
4270,-0.695,-0.815,
4271,-0.715,-0.75,
4272,-0.77,-0.67,
4273,-0.83,-0.63,
4274,-0.875,-0.585,
4275,-0.925,-0.56,
4276,-0.94,-0.575,
4277,-0.94,-0.57,
4278,-0.95,-0.565,
4279,-0.955,-0.555,
4280,-0.955,-0.56,
4281,-0.955,-0.53,
4282,-0.965,-0.515,
4283,-0.955,-0.515,
4284,-0.955,-0.485,
4285,-0.965,-0.49,
4286,-0.97,-0.465,
4287,-0.985,-0.47,
4288,-0.98,-0.47,
4289,-0.99,-0.475,
4290,-0.975,-0.49,
4291,-0.98,-0.505,
4292,-0.98,-0.5,
4293,-0.985,-0.505,
4294,-0.975,-0.48,
4295,-0.985,-0.47,
4296,-0.96,-0.465,
4297,-0.945,-0.445,
4298,-0.95,-0.45,
4299,-0.975,-0.46,
4300,-0.98,-0.465,
4301,-0.975,-0.48,
4302,-0.98,-0.49,
4303,-0.985,-0.495,
4304,-0.995,-0.485,
4305,-0.975,-0.49,
4306,-0.99,-0.475,
4307,-0.965,-0.465,
4308,-0.96,-0.45,
4309,-0.945,-0.435,
4310,-0.945,-0.43,
4311,-0.96,-0.43,
4312,-0.95,-0.435,
4313,-0.955,-0.445,
4314,-0.96,-0.445,
4315,-0.965,-0.46,
4316,-0.97,-0.47,
4317,-0.95,-0.445,
4318,-0.955,-0.455,
4319,-0.935,-0.43,
4320,-0.93,-0.425,
4321,-0.91,-0.43,
4322,-0.895,-0.42,
4323,-0.905,-0.445,
4324,-0.925,-0.435,
4325,-0.91,-0.445,
4326,-0.92,-0.465,
4327,-0.91,-0.445,
4328,-0.9,-0.455,
4329,-0.91,-0.455,
4330,-0.875,-0.45,
4331,-0.855,-0.41,
4332,-0.83,-0.395,
4333,-0.81,-0.385,
4334,-0.79,-0.405,
4335,-0.78,-0.395,
4336,-0.775,-0.42,
4337,-0.795,-0.42,
4338,-0.79,-0.43,
4339,-0.76,-0.43,
4340,-0.74,-0.45,
4341,-0.735,-0.435,
4342,-0.72,-0.425,
4343,-0.69,-0.42,
4344,-0.665,-0.4,
4345,-0.615,-0.39,
4346,-0.605,-0.39,
4347,-0.605,-0.415,
4348,-0.58,-0.415,
4349,-0.57,-0.43,
4350,-0.545,-0.43,
4351,-0.54,-0.445,
4352,-0.51,-0.445,
4353,-0.505,-0.44,
4354,-0.47,-0.42,
4355,-0.425,-0.41,
4356,-0.405,-0.42,
4357,-0.365,-0.405,
4358,-0.365,-0.43,
4359,-0.355,-0.415,
4360,-0.345,-0.445,
4361,-0.35,-0.435,
4362,-0.34,-0.475,
4363,-0.325,-0.465,
4364,-0.34,-0.47,
4365,-0.335,-0.48,
4366,-0.315,-0.475,
4367,-0.295,-0.48,
4368,-0.305,-0.465,
4369,-0.31,-0.46,
4370,-0.33,-0.45,
4371,-0.355,-0.46,
4372,-0.39,-0.46,
4373,-0.425,-0.465,
4374,-0.465,-0.465,
4375,-0.48,-0.47,
4376,-0.515,-0.47,
4377,-0.56,-0.455,
4378,-0.59,-0.445,
4379,-0.62,-0.42,
4380,-0.635,-0.41,
4381,-0.645,-0.415,
4382,-0.68,-0.415,
4383,-0.705,-0.425,
4384,-0.725,-0.46,
4385,-0.75,-0.435,
4386,-0.79,-0.465,
4387,-0.81,-0.455,
4388,-0.825,-0.465,
4389,-0.84,-0.47,
4390,-0.845,-0.47,
4391,-0.845,-0.465,
4392,-0.84,-0.46,
4393,-0.855,-0.45,
4394,-0.86,-0.455,
4395,-0.88,-0.465,
4396,-0.9,-0.465,
4397,-0.9,-0.475,
4398,-0.91,-0.47,
4399,-0.925,-0.475,
4400,-0.93,-0.495,
4401,-0.94,-0.485,
4402,-0.925,-0.47,
4403,-0.925,-0.465,
4404,-0.905,-0.46,
4405,-0.895,-0.435,
4406,-0.895,-0.45,
4407,-0.905,-0.455,
4408,-0.9,-0.455,
4409,-0.91,-0.475,
4410,-0.925,-0.47,
4411,-0.93,-0.485,
4412,-0.93,-0.5,
4413,-0.93,-0.485,
4414,-0.915,-0.49,
4415,-0.9,-0.46,
4416,-0.89,-0.465,
4417,-0.915,-0.46,
4418,-0.905,-0.465,
4419,-0.875,-0.45,
4420,-0.87,-0.465,
4421,-0.875,-0.455,
4422,-0.885,-0.45,
4423,-0.89,-0.455,
4424,-0.915,-0.45,
4425,-0.905,-0.435,
4426,-0.905,-0.415,
4427,-0.89,-0.39,
4428,-0.88,-0.365,
4429,-0.84,-0.33,
4430,-0.785,-0.295,
4431,-0.7,-0.26,
4432,-0.6,-0.24,
4433,-0.46,-0.275,
4434,-0.31,-0.35,
4435,-0.155,-0.495,
4436,0.01,-0.655,
4437,0.205,-0.835,
4438,0.38,-0.975,
4439,0.59,-1.125,
4440,0.82,-1.275,
4441,1.04,-1.445,
4442,1.26,-1.65,
4443,1.475,-1.855,
4444,1.635,-2.03,
4445,1.76,-2.185,
4446,1.865,-2.28,
4447,1.91,-2.33,
4448,1.945,-2.33,V
4449,1.955,-2.325,
4450,1.945,-2.305,
4451,1.945,-2.29,
4452,1.905,-2.25,
4453,1.845,-2.21,
4454,1.76,-2.195,
4455,1.675,-2.12,
4456,1.625,-2.04,
4457,1.59,-1.95,
4458,1.6,-1.865,
4459,1.59,-1.78,
4460,1.55,-1.68,
4461,1.475,-1.59,
4462,1.38,-1.495,
4463,1.235,-1.39,
4464,1.075,-1.3,
4465,0.88,-1.215,
4466,0.66,-1.14,
4467,0.35,-1.065,
4468,-0.03,-0.985,
4469,-0.405,-0.905,
4470,-0.735,-0.805,
4471,-0.965,-0.695,
4472,-1.08,-0.585,
4473,-1.095,-0.485,
4474,-1.115,-0.435,
4475,-1.075,-0.39,
4476,-1.065,-0.37,
4477,-1.08,-0.355,
4478,-1.095,-0.35,
4479,-1.155,-0.36,
4480,-1.21,-0.335,
4481,-1.25,-0.325,
4482,-1.295,-0.335,
4483,-1.315,-0.31,
4484,-1.33,-0.305,
4485,-1.335,-0.29,
4486,-1.34,-0.27,
4487,-1.345,-0.25,
4488,-1.375,-0.23,
4489,-1.38,-0.215,
4490,-1.375,-0.2,
4491,-1.38,-0.195,
4492,-1.39,-0.205,
4493,-1.41,-0.2,
4494,-1.435,-0.2,
4495,-1.45,-0.22,
4496,-1.465,-0.19,
4497,-1.455,-0.18,
4498,-1.45,-0.165,
4499,-1.44,-0.13,
4500,-1.435,-0.115,
4501,-1.42,-0.08,
4502,-1.415,-0.07,
4503,-1.41,-0.07,
4504,-1.425,-0.055,
4505,-1.42,-0.05,
4506,-1.435,-0.055,
4507,-1.45,-0.045,
4508,-1.435,-0.035,
4509,-1.42,-0.015,
4510,-1.425,0.02,
4511,-1.405,0.035,
4512,-1.385,0.035,
4513,-1.38,0.02,
4514,-1.39,0.015,
4515,-1.415,-0.005,
4516,-1.445,-0.02,
4517,-1.475,0.005,
4518,-1.51,-0.005,
4519,-1.52,0.005,
4520,-1.54,0.035,
4521,-1.575,0.05,
4522,-1.625,0.07,
4523,-1.675,0.11,
4524,-1.73,0.13,
4525,-1.795,0.15,
4526,-1.865,0.18,
4527,-1.93,0.2,
4528,-1.995,0.195,
4529,-2.07,0.215,
4530,-2.12,0.25,
4531,-2.135,0.265,
4532,-2.155,0.27,
4533,-2.175,0.29,
4534,-2.18,0.335,
4535,-2.205,0.375,
4536,-2.23,0.39,
4537,-2.235,0.395,
4538,-2.24,0.42,
4539,-2.265,0.425,
4540,-2.295,0.43,
4541,-2.325,0.435,
4542,-2.345,0.41,
4543,-2.365,0.4,
4544,-2.355,0.395,
4545,-2.365,0.395,
4546,-2.35,0.395,
4547,-2.35,0.39,
4548,-2.345,0.395,
4549,-2.33,0.385,
4550,-2.31,0.37,
4551,-2.305,0.335,
4552,-2.285,0.325,
4553,-2.255,0.285,
4554,-2.225,0.265,
4555,-2.2,0.215,
4556,-2.175,0.18,
4557,-2.13,0.175,
4558,-2.08,0.16,
4559,-2.03,0.115,
4560,-1.985,0.105,
4561,-1.94,0.075,
4562,-1.88,0.045,
4563,-1.835,0.015,
4564,-1.775,-0.04,
4565,-1.725,-0.06,
4566,-1.67,-0.12,
4567,-1.63,-0.15,
4568,-1.6,-0.2,
4569,-1.52,-0.225,
4570,-1.465,-0.255,
4571,-1.425,-0.27,
4572,-1.375,-0.29,
4573,-1.35,-0.29,
4574,-1.31,-0.31,
4575,-1.29,-0.32,
4576,-1.25,-0.335,
4577,-1.25,-0.35,
4578,-1.245,-0.36,
4579,-1.24,-0.385,
4580,-1.225,-0.395,
4581,-1.225,-0.41,
4582,-1.21,-0.39,
4583,-1.195,-0.385,
4584,-1.19,-0.385,
4585,-1.185,-0.38,
4586,-1.18,-0.39,
4587,-1.195,-0.385,
4588,-1.19,-0.41,
4589,-1.205,-0.4,
4590,-1.2,-0.425,
4591,-1.21,-0.425,
4592,-1.22,-0.425,
4593,-1.205,-0.43,
4594,-1.205,-0.425,
4595,-1.21,-0.4,
4596,-1.21,-0.39,
4597,-1.175,-0.37,
4598,-1.175,-0.365,
4599,-1.175,-0.38,
4600,-1.19,-0.38,
4601,-1.2,-0.395,
4602,-1.205,-0.4,
4603,-1.215,-0.415,
4604,-1.21,-0.42,
4605,-1.18,-0.41,
4606,-1.185,-0.4,
4607,-1.17,-0.405,
4608,-1.16,-0.385,
4609,-1.14,-0.39,
4610,-1.135,-0.395,
4611,-1.14,-0.39,
4612,-1.16,-0.4,
4613,-1.16,-0.42,
4614,-1.16,-0.415,
4615,-1.16,-0.44,
4616,-1.165,-0.44,
4617,-1.14,-0.435,
4618,-1.135,-0.415,
4619,-1.135,-0.41,
4620,-1.115,-0.4,
4621,-1.12,-0.385,
4622,-1.1,-0.415,
4623,-1.09,-0.41,
4624,-1.105,-0.415,
4625,-1.105,-0.435,
4626,-1.11,-0.44,
4627,-1.115,-0.44,
4628,-1.12,-0.45,
4629,-1.12,-0.44,
4630,-1.115,-0.435,
4631,-1.085,-0.435,
4632,-1.09,-0.425,
4633,-1.075,-0.435,
4634,-1.085,-0.43,
4635,-1.08,-0.43,
4636,-1.09,-0.445,
4637,-1.085,-0.455,
4638,-1.1,-0.47,
4639,-1.1,-0.455,
4640,-1.11,-0.455,
4641,-1.1,-0.465,
4642,-1.08,-0.44,
4643,-1.07,-0.435,
4644,-1.06,-0.42,
4645,-1.06,-0.415,
4646,-1.065,-0.405,
4647,-1.065,-0.435,
4648,-1.07,-0.435,
4649,-1.085,-0.45,
4650,-1.095,-0.455,
4651,-1.09,-0.465,
4652,-1.085,-0.465,
4653,-1.08,-0.47,
4654,-1.075,-0.465,
4655,-1.055,-0.45,
4656,-1.06,-0.425,
4657,-1.05,-0.44,
4658,-1.045,-0.45,
4659,-1.045,-0.45,
4660,-1.06,-0.45,
4661,-1.055,-0.475,
4662,-1.065,-0.48,
4663,-1.075,-0.49,
4664,-1.075,-0.48,
4665,-1.055,-0.495,
4666,-1.045,-0.475,
4667,-1.045,-0.475,
4668,-1.05,-0.46,
4669,-1.04,-0.45,
4670,-1.035,-0.465,
4671,-1.02,-0.45,
4672,-1.03,-0.46,
4673,-1.03,-0.49,
4674,-1.04,-0.49,
4675,-1.05,-0.495,
4676,-1.045,-0.5,
4677,-1.045,-0.49,
4678,-1.03,-0.5,
4679,-1.025,-0.485,
4680,-1.03,-0.475,
4681,-1.02,-0.46,
4682,-1.0,-0.44,
4683,-1.02,-0.445,
4684,-1.025,-0.475,
4685,-1.035,-0.47,
4686,-1.035,-0.485,
4687,-1.05,-0.495,
4688,-1.04,-0.495,
4689,-1.04,-0.5,
4690,-1.04,-0.495,
4691,-1.015,-0.48,
4692,-1.01,-0.48,
4693,-0.995,-0.475,
4694,-0.98,-0.465,
4695,-0.995,-0.48,
4696,-1.005,-0.49,
4697,-1.01,-0.505,
4698,-1.03,-0.52,
4699,-1.035,-0.51,
4700,-1.03,-0.515,
4701,-1.03,-0.51,
4702,-1.02,-0.495,
4703,-1.025,-0.495,
4704,-0.995,-0.465,
4705,-0.995,-0.465,
4706,-0.99,-0.475,
4707,-0.98,-0.46,
4708,-0.98,-0.475,
4709,-1.0,-0.5,
4710,-1.015,-0.495,
4711,-1.025,-0.5,
4712,-1.04,-0.525,
4713,-1.025,-0.5,
4714,-1.01,-0.5,
4715,-1.005,-0.48,
4716,-1.0,-0.485,
4717,-0.965,-0.48,
4718,-0.97,-0.485,
4719,-0.965,-0.485,
4720,-0.985,-0.495,
4721,-1.0,-0.5,
4722,-1.0,-0.5,
4723,-0.985,-0.525,
4724,-0.99,-0.52,
4725,-0.99,-0.51,
4726,-0.98,-0.49,
4727,-0.965,-0.5,
4728,-0.96,-0.47,
4729,-0.96,-0.48,
4730,-0.95,-0.495,
4731,-0.965,-0.47,
4732,-0.96,-0.475,
4733,-0.96,-0.5,
4734,-0.97,-0.495,
4735,-0.98,-0.505,
4736,-0.98,-0.5,
4737,-0.975,-0.525,
4738,-0.98,-0.51,
4739,-0.975,-0.51,
4740,-0.95,-0.49,
4741,-0.95,-0.49,
4742,-0.94,-0.48,
4743,-0.945,-0.47,
4744,-0.955,-0.49,
4745,-0.955,-0.485,
4746,-0.965,-0.485,
4747,-0.97,-0.485,
4748,-0.965,-0.51,
4749,-0.97,-0.505,
4750,-0.95,-0.48,
4751,-0.925,-0.485,
4752,-0.94,-0.485,
4753,-0.935,-0.475,
4754,-0.93,-0.47,
4755,-0.935,-0.46,
4756,-0.945,-0.485,
4757,-0.96,-0.5,
4758,-0.945,-0.51,
4759,-0.96,-0.525,
4760,-0.97,-0.52,
4761,-0.965,-0.51,
4762,-0.95,-0.51,
4763,-0.94,-0.5,
4764,-0.935,-0.465,
4765,-0.915,-0.485,
4766,-0.91,-0.47,
4767,-0.925,-0.48,
4768,-0.925,-0.475,
4769,-0.92,-0.49,
4770,-0.92,-0.49,
4771,-0.94,-0.5,
4772,-0.935,-0.5,
4773,-0.94,-0.495,
4774,-0.925,-0.485,
4775,-0.92,-0.485,
4776,-0.935,-0.495,
4777,-0.92,-0.475,
4778,-0.9,-0.485,
4779,-0.905,-0.495,
4780,-0.91,-0.485,
4781,-0.915,-0.51,
4782,-0.92,-0.505,
4783,-0.925,-0.53,
4784,-0.92,-0.525,
4785,-0.92,-0.515,
4786,-0.93,-0.505,
4787,-0.915,-0.49,
4788,-0.905,-0.485,
4789,-0.9,-0.475,
4790,-0.89,-0.475,
4791,-0.905,-0.46,
4792,-0.88,-0.475,
4793,-0.88,-0.49,
4794,-0.9,-0.495,
4795,-0.905,-0.525,
4796,-0.91,-0.515,
4797,-0.92,-0.52,
4798,-0.91,-0.525,
4799,-0.9,-0.5,
4800,-0.89,-0.495,
4801,-0.89,-0.485,
4802,-0.89,-0.5,
4803,-0.87,-0.495,
4804,-0.895,-0.49,
4805,-0.9,-0.505,
4806,-0.895,-0.525,
4807,-0.905,-0.53,
4808,-0.91,-0.525,
4809,-0.905,-0.515,
4810,-0.91,-0.51,
4811,-0.9,-0.48,
4812,-0.895,-0.485,
4813,-0.89,-0.465,
4814,-0.86,-0.465,
4815,-0.875,-0.465,
4816,-0.875,-0.475,
4817,-0.89,-0.485,
4818,-0.905,-0.505,
4819,-0.89,-0.52,
4820,-0.9,-0.495,
4821,-0.9,-0.515,
4822,-0.895,-0.495,
4823,-0.88,-0.485,
4824,-0.89,-0.49,
4825,-0.87,-0.485,
4826,-0.87,-0.465,
4827,-0.875,-0.485,
4828,-0.875,-0.49,
4829,-0.885,-0.5,
4830,-0.895,-0.5,
4831,-0.895,-0.5,
4832,-0.875,-0.515,
4833,-0.885,-0.495,
4834,-0.885,-0.48,
4835,-0.855,-0.465,
4836,-0.84,-0.445,
4837,-0.84,-0.45,
4838,-0.82,-0.445,
4839,-0.81,-0.44,
4840,-0.805,-0.455,
4841,-0.785,-0.45,
4842,-0.77,-0.45,
4843,-0.755,-0.46,
4844,-0.735,-0.44,
4845,-0.735,-0.425,
4846,-0.73,-0.43,
4847,-0.705,-0.405,
4848,-0.68,-0.4,
4849,-0.64,-0.39,
4850,-0.58,-0.385,
4851,-0.545,-0.385,
4852,-0.51,-0.385,
4853,-0.505,-0.42,
4854,-0.535,-0.45,
4855,-0.555,-0.47,
4856,-0.575,-0.49,
4857,-0.565,-0.51,
4858,-0.555,-0.505,
4859,-0.545,-0.49,
4860,-0.535,-0.49,
4861,-0.53,-0.5,
4862,-0.545,-0.49,
4863,-0.595,-0.49,
4864,-0.66,-0.52,
4865,-0.72,-0.52,
4866,-0.78,-0.52,
4867,-0.82,-0.515,
4868,-0.865,-0.53,
4869,-0.895,-0.53,
4870,-0.885,-0.53,
4871,-0.88,-0.53,
4872,-0.875,-0.525,
4873,-0.855,-0.52,
4874,-0.86,-0.53,
4875,-0.85,-0.535,
4876,-0.865,-0.53,
4877,-0.88,-0.54,
4878,-0.9,-0.535,
4879,-0.895,-0.54,
4880,-0.91,-0.55,
4881,-0.92,-0.55,
4882,-0.89,-0.53,
4883,-0.89,-0.54,
4884,-0.885,-0.53,
4885,-0.87,-0.51,
4886,-0.865,-0.52,
4887,-0.88,-0.52,
4888,-0.89,-0.515,
4889,-0.9,-0.54,
4890,-0.905,-0.535,
4891,-0.9,-0.565,
4892,-0.92,-0.545,
4893,-0.935,-0.535,
4894,-0.96,-0.51,
4895,-0.935,-0.475,
4896,-0.875,-0.41,
4897,-0.785,-0.36,
4898,-0.625,-0.315,
4899,-0.41,-0.325,
4900,-0.125,-0.365,
4901,0.2,-0.46,
4902,0.56,-0.6,
4903,0.88,-0.77,
4904,1.165,-0.99,
4905,1.315,-1.195,
4906,1.37,-1.375,N
4907,1.33,-1.49,
4908,1.21,-1.525,
4909,0.96,-1.515,
4910,0.605,-1.465,
4911,0.125,-1.435,
4912,-0.385,-1.385,
4913,-0.785,-1.325,
4914,-0.98,-1.245,
4915,-1.015,-1.155,
4916,-0.89,-1.075,
4917,-0.765,-0.98,
4918,-0.65,-0.9,
4919,-0.605,-0.82,
4920,-0.645,-0.75,
4921,-0.695,-0.685,
4922,-0.74,-0.615,
4923,-0.825,-0.575,
4924,-0.855,-0.545,
4925,-0.895,-0.535,
4926,-0.905,-0.535,
4927,-0.895,-0.545,
4928,-0.89,-0.535,
4929,-0.895,-0.52,
4930,-0.92,-0.515,
4931,-0.905,-0.5,
4932,-0.895,-0.475,
4933,-0.89,-0.47,
4934,-0.9,-0.47,
4935,-0.9,-0.46,
4936,-0.91,-0.46,
4937,-0.915,-0.47,
4938,-0.92,-0.48,
4939,-0.925,-0.485,
4940,-0.945,-0.485,
4941,-0.94,-0.48,
4942,-0.96,-0.47,
4943,-0.955,-0.45,
4944,-0.935,-0.46,
4945,-0.935,-0.445,
4946,-0.925,-0.445,
4947,-0.925,-0.45,
4948,-0.915,-0.445,
4949,-0.925,-0.45,
4950,-0.945,-0.46,
4951,-0.945,-0.48,
4952,-0.945,-0.47,
4953,-0.94,-0.46,
4954,-0.935,-0.45,
4955,-0.925,-0.45,
4956,-0.92,-0.43,
4957,-0.91,-0.42,
4958,-0.92,-0.43,
4959,-0.905,-0.42,
4960,-0.905,-0.42,
4961,-0.915,-0.44,
4962,-0.935,-0.445,
4963,-0.945,-0.46,
4964,-0.93,-0.465,
4965,-0.94,-0.445,
4966,-0.93,-0.425,
4967,-0.91,-0.42,
4968,-0.9,-0.405,
4969,-0.895,-0.4,
4970,-0.865,-0.395,
4971,-0.87,-0.39,
4972,-0.88,-0.38,
4973,-0.875,-0.39,
4974,-0.89,-0.41,
4975,-0.885,-0.41,
4976,-0.89,-0.435,
4977,-0.88,-0.405,
4978,-0.885,-0.395,
4979,-0.87,-0.39,
4980,-0.845,-0.39,
4981,-0.83,-0.37,
4982,-0.83,-0.375,
4983,-0.835,-0.39,
4984,-0.845,-0.39,
4985,-0.845,-0.4,
4986,-0.82,-0.39,
4987,-0.81,-0.41,
4988,-0.82,-0.395,
4989,-0.825,-0.405,
4990,-0.8,-0.375,
4991,-0.755,-0.37,
4992,-0.74,-0.35,
4993,-0.71,-0.335,
4994,-0.69,-0.335,
4995,-0.68,-0.345,
4996,-0.665,-0.34,
4997,-0.64,-0.34,
4998,-0.65,-0.355,
4999,-0.635,-0.37,
5000,-0.615,-0.365,
5001,-0.615,-0.345,
5002,-0.59,-0.345,
5003,-0.56,-0.345,
5004,-0.535,-0.35,
5005,-0.52,-0.34,
5006,-0.495,-0.34,
5007,-0.485,-0.345,
5008,-0.455,-0.355,
5009,-0.445,-0.38,
5010,-0.445,-0.385,
5011,-0.435,-0.395,
5012,-0.415,-0.395,
5013,-0.41,-0.39,
5014,-0.39,-0.375,
5015,-0.36,-0.365,
5016,-0.345,-0.38,
5017,-0.335,-0.37,
5018,-0.3,-0.37,
5019,-0.295,-0.385,
5020,-0.28,-0.375,
5021,-0.295,-0.4,
5022,-0.3,-0.415,
5023,-0.3,-0.415,
5024,-0.305,-0.44,
5025,-0.325,-0.445,
5026,-0.325,-0.43,
5027,-0.35,-0.42,
5028,-0.35,-0.415,
5029,-0.38,-0.415,
5030,-0.39,-0.415,
5031,-0.41,-0.41,
5032,-0.455,-0.425,
5033,-0.485,-0.425,
5034,-0.51,-0.43,
5035,-0.54,-0.435,
5036,-0.57,-0.445,
5037,-0.605,-0.45,
5038,-0.615,-0.425,
5039,-0.64,-0.43,
5040,-0.64,-0.43,
5041,-0.675,-0.42,
5042,-0.66,-0.415,
5043,-0.68,-0.425,
5044,-0.715,-0.43,
5045,-0.72,-0.44,
5046,-0.745,-0.45,
5047,-0.755,-0.48,
5048,-0.765,-0.485,
5049,-0.785,-0.485,
5050,-0.775,-0.485,
5051,-0.785,-0.465,
5052,-0.795,-0.445,
5053,-0.785,-0.445,
5054,-0.78,-0.435,
5055,-0.785,-0.44,
5056,-0.79,-0.455,
5057,-0.79,-0.455,
5058,-0.79,-0.46,
5059,-0.78,-0.455,
5060,-0.795,-0.465,
5061,-0.805,-0.475,
5062,-0.795,-0.45,
5063,-0.79,-0.46,
5064,-0.785,-0.455,
5065,-0.77,-0.45,
5066,-0.765,-0.445,
5067,-0.775,-0.44,
5068,-0.77,-0.44,
5069,-0.78,-0.465,
5070,-0.785,-0.48,
5071,-0.78,-0.485,
5072,-0.785,-0.505,
5073,-0.78,-0.5,
5074,-0.785,-0.495,
5075,-0.775,-0.47,
5076,-0.755,-0.465,
5077,-0.74,-0.46,
5078,-0.745,-0.45,
5079,-0.74,-0.445,
5080,-0.75,-0.44,
5081,-0.75,-0.47,
5082,-0.76,-0.47,
5083,-0.77,-0.48,
5084,-0.785,-0.495,
5085,-0.775,-0.49,
5086,-0.775,-0.48,
5087,-0.745,-0.485,
5088,-0.74,-0.45,
5089,-0.73,-0.455,
5090,-0.725,-0.455,
5091,-0.72,-0.46,
5092,-0.72,-0.475,
5093,-0.74,-0.47,
5094,-0.775,-0.49,
5095,-0.77,-0.495,
5096,-0.765,-0.505,
5097,-0.78,-0.485,
5098,-0.79,-0.505,
5099,-0.775,-0.49,
5100,-0.765,-0.48,
5101,-0.76,-0.465,
5102,-0.755,-0.455,
5103,-0.76,-0.47,
5104,-0.775,-0.49,
5105,-0.775,-0.48,
5106,-0.8,-0.5,
5107,-0.8,-0.495,
5108,-0.785,-0.49,
5109,-0.81,-0.485,
5110,-0.805,-0.49,
5111,-0.8,-0.475,
5112,-0.8,-0.47,
5113,-0.79,-0.455,
5114,-0.785,-0.465,
5115,-0.785,-0.465,
5116,-0.795,-0.47,
5117,-0.81,-0.485,
5118,-0.82,-0.48,
5119,-0.825,-0.485,
5120,-0.835,-0.5,
5121,-0.85,-0.495,
5122,-0.86,-0.5,
5123,-0.835,-0.475,
5124,-0.825,-0.47,
5125,-0.81,-0.45,
5126,-0.81,-0.44,
5127,-0.805,-0.45,
5128,-0.83,-0.455,
5129,-0.84,-0.47,
5130,-0.845,-0.485,
5131,-0.845,-0.5,
5132,-0.855,-0.505,
5133,-0.865,-0.5,
5134,-0.855,-0.5,
5135,-0.845,-0.48,
5136,-0.84,-0.485,
5137,-0.835,-0.48,
5138,-0.825,-0.475,
5139,-0.83,-0.475,
5140,-0.83,-0.48,
5141,-0.835,-0.5,
5142,-0.84,-0.52,
5143,-0.84,-0.505,
5144,-0.85,-0.515,
5145,-0.85,-0.51,
5146,-0.86,-0.495,
5147,-0.84,-0.48,
5148,-0.85,-0.495,
5149,-0.83,-0.455,
5150,-0.825,-0.47,
5151,-0.84,-0.48,
5152,-0.835,-0.475,
5153,-0.85,-0.495,
5154,-0.855,-0.51,
5155,-0.865,-0.51,
5156,-0.865,-0.515,
5157,-0.86,-0.51,
5158,-0.86,-0.51,
5159,-0.845,-0.5,
5160,-0.835,-0.5,
5161,-0.84,-0.49,
5162,-0.84,-0.49,
5163,-0.835,-0.49,
5164,-0.835,-0.5,
5165,-0.84,-0.505,
5166,-0.85,-0.505,
5167,-0.845,-0.515,
5168,-0.84,-0.505,
5169,-0.83,-0.49,
5170,-0.79,-0.475,
5171,-0.775,-0.44,
5172,-0.745,-0.435,
5173,-0.725,-0.415,
5174,-0.71,-0.405,
5175,-0.69,-0.41,
5176,-0.68,-0.4,
5177,-0.675,-0.405,
5178,-0.67,-0.41,
5179,-0.635,-0.415,
5180,-0.585,-0.42,
5181,-0.555,-0.415,
5182,-0.52,-0.445,
5183,-0.5,-0.445,
5184,-0.49,-0.45,
5185,-0.51,-0.465,
5186,-0.51,-0.48,
5187,-0.515,-0.495,
5188,-0.52,-0.5,
5189,-0.53,-0.505,
5190,-0.56,-0.52,
5191,-0.59,-0.54,
5192,-0.635,-0.55,
5193,-0.685,-0.55,
5194,-0.735,-0.555,
5195,-0.78,-0.54,
5196,-0.825,-0.515,
5197,-0.85,-0.495,
5198,-0.845,-0.52,
5199,-0.86,-0.51,
5200,-0.885,-0.525,
5201,-0.9,-0.54,
5202,-0.915,-0.565,
5203,-0.905,-0.575,
5204,-0.89,-0.58,
5205,-0.905,-0.58,
5206,-0.895,-0.57,
5207,-0.9,-0.56,
5208,-0.9,-0.555,
5209,-0.895,-0.535,
5210,-0.9,-0.525,
5211,-0.905,-0.53,
5212,-0.905,-0.52,
5213,-0.915,-0.535,
5214,-0.92,-0.545,
5215,-0.92,-0.565,
5216,-0.935,-0.565,
5217,-0.935,-0.565,
5218,-0.925,-0.555,
5219,-0.92,-0.53,
5220,-0.9,-0.53,
5221,-0.89,-0.53,
5222,-0.885,-0.525,
5223,-0.875,-0.545,
5224,-0.875,-0.53,
5225,-0.88,-0.55,
5226,-0.91,-0.545,
5227,-0.93,-0.56,
5228,-0.97,-0.54,
5229,-0.99,-0.49,
5230,-0.95,-0.46,
5231,-0.86,-0.375,
5232,-0.695,-0.32,
5233,-0.465,-0.31,
5234,-0.16,-0.35,
5235,0.205,-0.455,
5236,0.59,-0.61,
5237,0.945,-0.83,
5238,1.175,-1.075,
5239,1.31,-1.305,N
5240,1.315,-1.47,
5241,1.195,-1.56,
5242,0.965,-1.59,
5243,0.585,-1.525,
5244,0.075,-1.45,
5245,-0.435,-1.375,
5246,-0.825,-1.3,
5247,-1.025,-1.21,
5248,-1.04,-1.115,
5249,-0.92,-1.03,
5250,-0.79,-0.95,
5251,-0.7,-0.9,
5252,-0.66,-0.84,
5253,-0.68,-0.785,
5254,-0.74,-0.71,
5255,-0.81,-0.63,
5256,-0.85,-0.585,
5257,-0.89,-0.535,
5258,-0.89,-0.51,
5259,-0.895,-0.51,
5260,-0.885,-0.505,
5261,-0.89,-0.515,
5262,-0.9,-0.505,
5263,-0.905,-0.52,
5264,-0.92,-0.51,
5265,-0.95,-0.5,
5266,-0.925,-0.49,
5267,-0.915,-0.47,
5268,-0.905,-0.47,
5269,-0.915,-0.45,
5270,-0.915,-0.46,
5271,-0.905,-0.46,
5272,-0.9,-0.46,
5273,-0.925,-0.465,
5274,-0.935,-0.45,
5275,-0.935,-0.48,
5276,-0.935,-0.465,
5277,-0.94,-0.47,
5278,-0.945,-0.445,
5279,-0.92,-0.445,
5280,-0.915,-0.435,
5281,-0.92,-0.425,
5282,-0.93,-0.415,
5283,-0.92,-0.425,
5284,-0.94,-0.42,
5285,-0.935,-0.435,
5286,-0.95,-0.445,
5287,-0.96,-0.46,
5288,-0.97,-0.465,
5289,-0.955,-0.45,
5290,-0.95,-0.455,
5291,-0.935,-0.445,
5292,-0.935,-0.44,
5293,-0.925,-0.42,
5294,-0.9,-0.42,
5295,-0.905,-0.42,
5296,-0.895,-0.415,
5297,-0.92,-0.44,
5298,-0.925,-0.43,
5299,-0.93,-0.435,
5300,-0.93,-0.425,
5301,-0.93,-0.43,
5302,-0.915,-0.425,
5303,-0.91,-0.415,
5304,-0.9,-0.41,
5305,-0.89,-0.405,
5306,-0.86,-0.405,
5307,-0.855,-0.405,
5308,-0.855,-0.4,
5309,-0.845,-0.42,
5310,-0.855,-0.425,
5311,-0.86,-0.425,
5312,-0.84,-0.44,
5313,-0.855,-0.43,
5314,-0.83,-0.43,
5315,-0.815,-0.42,
5316,-0.785,-0.415,
5317,-0.78,-0.405,
5318,-0.755,-0.395,
5319,-0.75,-0.395,
5320,-0.745,-0.395,
5321,-0.71,-0.4,
5322,-0.715,-0.405,
5323,-0.7,-0.42,
5324,-0.685,-0.435,
5325,-0.655,-0.425,
5326,-0.655,-0.425,
5327,-0.635,-0.42,
5328,-0.605,-0.4,
5329,-0.575,-0.41,
5330,-0.535,-0.39,
5331,-0.495,-0.4,
5332,-0.495,-0.415,
5333,-0.485,-0.43,
5334,-0.465,-0.44,
5335,-0.45,-0.455,
5336,-0.45,-0.455,
5337,-0.45,-0.455,
5338,-0.435,-0.465,
5339,-0.395,-0.45,
5340,-0.375,-0.44,
5341,-0.345,-0.425,
5342,-0.35,-0.425,
5343,-0.35,-0.435,
5344,-0.335,-0.435,
5345,-0.345,-0.45,
5346,-0.33,-0.455,
5347,-0.325,-0.485,
5348,-0.33,-0.495,
5349,-0.335,-0.49,
5350,-0.355,-0.485,
5351,-0.345,-0.48,
5352,-0.35,-0.46,
5353,-0.36,-0.455,
5354,-0.38,-0.455,
5355,-0.395,-0.44,
5356,-0.425,-0.445,
5357,-0.455,-0.46,
5358,-0.495,-0.47,
5359,-0.55,-0.48,
5360,-0.585,-0.455,
5361,-0.62,-0.455,
5362,-0.645,-0.445,
5363,-0.665,-0.425,
5364,-0.71,-0.425,
5365,-0.71,-0.415,
5366,-0.715,-0.415,
5367,-0.73,-0.405,
5368,-0.77,-0.41,
5369,-0.79,-0.44,
5370,-0.815,-0.44,
5371,-0.845,-0.455,
5372,-0.865,-0.44,
5373,-0.885,-0.455,
5374,-0.885,-0.455,
5375,-0.895,-0.46,
5376,-0.89,-0.44,
5377,-0.89,-0.445,
5378,-0.88,-0.435,
5379,-0.895,-0.43,
5380,-0.905,-0.445,
5381,-0.905,-0.445,
5382,-0.915,-0.47,
5383,-0.92,-0.47,
5384,-0.93,-0.47,
5385,-0.935,-0.465,
5386,-0.945,-0.465,
5387,-0.94,-0.45,
5388,-0.925,-0.44,
5389,-0.925,-0.445,
5390,-0.9,-0.435,
5391,-0.925,-0.43,
5392,-0.93,-0.435,
5393,-0.91,-0.44,
5394,-0.91,-0.455,
5395,-0.915,-0.46,
5396,-0.92,-0.475,
5397,-0.915,-0.465,
5398,-0.915,-0.47,
5399,-0.935,-0.47,
5400,-0.9,-0.465,
5401,-0.895,-0.445,
5402,-0.885,-0.44,
5403,-0.885,-0.445,
5404,-0.88,-0.445,
5405,-0.905,-0.44,
5406,-0.905,-0.45,
5407,-0.895,-0.455,
5408,-0.905,-0.455,
5409,-0.905,-0.45,
5410,-0.885,-0.455,
5411,-0.865,-0.45,
5412,-0.865,-0.44,
5413,-0.86,-0.43,
5414,-0.835,-0.43,
5415,-0.845,-0.425,
5416,-0.84,-0.445,
5417,-0.855,-0.445,
5418,-0.875,-0.455,
5419,-0.895,-0.46,
5420,-0.88,-0.475,
5421,-0.895,-0.475,
5422,-0.905,-0.465,
5423,-0.885,-0.455,
5424,-0.87,-0.455,
5425,-0.87,-0.445,
5426,-0.88,-0.43,
5427,-0.86,-0.44,
5428,-0.875,-0.44,
5429,-0.88,-0.46,
5430,-0.87,-0.455,
5431,-0.885,-0.455,
5432,-0.89,-0.465,
5433,-0.89,-0.47,
5434,-0.905,-0.455,
5435,-0.885,-0.45,
5436,-0.875,-0.45,
5437,-0.895,-0.455,
5438,-0.875,-0.435,
5439,-0.87,-0.445,
5440,-0.875,-0.445,
5441,-0.885,-0.45,
5442,-0.905,-0.46,
5443,-0.92,-0.475,
5444,-0.94,-0.475,
5445,-0.925,-0.48,
5446,-0.92,-0.47,
5447,-0.92,-0.46,
5448,-0.905,-0.46,
5449,-0.9,-0.44,
5450,-0.88,-0.43,
5451,-0.885,-0.435,
5452,-0.895,-0.44,
5453,-0.9,-0.45,
5454,-0.905,-0.445,
5455,-0.915,-0.46,
5456,-0.925,-0.485,
5457,-0.93,-0.495,
5458,-0.93,-0.475,
5459,-0.935,-0.48,
5460,-0.925,-0.455,
5461,-0.915,-0.47,
5462,-0.905,-0.45,
5463,-0.9,-0.445,
5464,-0.895,-0.465,
5465,-0.915,-0.475,
5466,-0.925,-0.475,
5467,-0.92,-0.505,
5468,-0.935,-0.495,
5469,-0.95,-0.495,
5470,-0.955,-0.485,
5471,-0.935,-0.465,
5472,-0.92,-0.455,
5473,-0.91,-0.445,
5474,-0.895,-0.44,
5475,-0.89,-0.435,
5476,-0.89,-0.43,
5477,-0.885,-0.445,
5478,-0.88,-0.455,
5479,-0.87,-0.46,
5480,-0.865,-0.475,
5481,-0.86,-0.46,
5482,-0.83,-0.43,
5483,-0.825,-0.415,
5484,-0.805,-0.42,
5485,-0.78,-0.385,
5486,-0.76,-0.385,
5487,-0.76,-0.385,
5488,-0.74,-0.41,
5489,-0.73,-0.395,
5490,-0.705,-0.405,
5491,-0.69,-0.395,
5492,-0.645,-0.405,
5493,-0.62,-0.395,
5494,-0.585,-0.395,
5495,-0.58,-0.4,
5496,-0.575,-0.395,
5497,-0.58,-0.42,
5498,-0.585,-0.425,
5499,-0.58,-0.445,
5500,-0.6,-0.465,
5501,-0.585,-0.495,
5502,-0.605,-0.5,
5503,-0.62,-0.51,
5504,-0.655,-0.525,
5505,-0.705,-0.535,
5506,-0.74,-0.52,
5507,-0.79,-0.515,
5508,-0.83,-0.515,
5509,-0.88,-0.49,
5510,-0.9,-0.475,
5511,-0.915,-0.48,
5512,-0.935,-0.495,
5513,-0.935,-0.495,
5514,-0.94,-0.515,
5515,-0.96,-0.525,
5516,-0.96,-0.515,
5517,-0.955,-0.53,
5518,-0.96,-0.525,
5519,-0.955,-0.515,
5520,-0.955,-0.505,
5521,-0.97,-0.495,
5522,-0.95,-0.495,
5523,-0.965,-0.495,
5524,-0.965,-0.5,
5525,-0.97,-0.515,
5526,-0.98,-0.505,
5527,-0.97,-0.52,
5528,-0.975,-0.535,
5529,-0.965,-0.55,
5530,-0.97,-0.535,
5531,-0.955,-0.53,
5532,-0.935,-0.52,
5533,-0.92,-0.505,
5534,-0.915,-0.505,
5535,-0.935,-0.515,
5536,-0.945,-0.51,
5537,-0.95,-0.505,
5538,-0.985,-0.5,
5539,-1.0,-0.515,
5540,-1.03,-0.505,
5541,-1.015,-0.47,
5542,-1.0,-0.435,
5543,-0.93,-0.385,
5544,-0.805,-0.325,
5545,-0.63,-0.29,
5546,-0.385,-0.315,
5547,-0.08,-0.375,
5548,0.27,-0.48,
5549,0.635,-0.63,
5550,0.935,-0.84,
5551,1.155,-1.06,
5552,1.235,-1.255,N
5553,1.23,-1.41,
5554,1.11,-1.48,
5555,0.85,-1.48,
5556,0.44,-1.455,
5557,-0.09,-1.395,
5558,-0.585,-1.3,
5559,-0.93,-1.225,
5560,-1.1,-1.135,
5561,-1.07,-1.055,
5562,-0.95,-0.99,
5563,-0.82,-0.92,
5564,-0.745,-0.865,
5565,-0.735,-0.785,
5566,-0.775,-0.72,
5567,-0.83,-0.67,
5568,-0.87,-0.61,
5569,-0.915,-0.555,
5570,-0.925,-0.515,
5571,-0.93,-0.51,
5572,-0.945,-0.52,
5573,-0.945,-0.52,
5574,-0.955,-0.525,
5575,-0.96,-0.525,
5576,-0.96,-0.53,
5577,-0.965,-0.525,
5578,-0.97,-0.515,
5579,-0.965,-0.495,
5580,-0.945,-0.48,
5581,-0.94,-0.455,
5582,-0.935,-0.455,
5583,-0.935,-0.445,
5584,-0.95,-0.455,
5585,-0.955,-0.455,
5586,-0.965,-0.47,
5587,-0.965,-0.465,
5588,-0.98,-0.48,
5589,-1.0,-0.47,
5590,-0.99,-0.485,
5591,-0.985,-0.48,
5592,-0.965,-0.455,
5593,-0.98,-0.455,
5594,-0.975,-0.435,
5595,-0.985,-0.435,
5596,-0.955,-0.435,
5597,-0.955,-0.455,
5598,-0.96,-0.46,
5599,-0.96,-0.465,
5600,-0.975,-0.47,
5601,-0.96,-0.475,
5602,-0.96,-0.465,
5603,-0.97,-0.445,
5604,-0.935,-0.42,
5605,-0.945,-0.41,
5606,-0.925,-0.395,
5607,-0.92,-0.41,
5608,-0.925,-0.415,
5609,-0.915,-0.43,
5610,-0.92,-0.445,
5611,-0.93,-0.43,
5612,-0.94,-0.45,
5613,-0.955,-0.445,
5614,-0.935,-0.44,
5615,-0.945,-0.43,
5616,-0.905,-0.41,
5617,-0.89,-0.41,
5618,-0.865,-0.405,
5619,-0.855,-0.415,
5620,-0.885,-0.415,
5621,-0.885,-0.415,
5622,-0.895,-0.425,
5623,-0.865,-0.43,
5624,-0.87,-0.44,
5625,-0.86,-0.445,
5626,-0.85,-0.43,
5627,-0.83,-0.415,
5628,-0.82,-0.4,
5629,-0.79,-0.38,
5630,-0.78,-0.38,
5631,-0.765,-0.39,
5632,-0.76,-0.395,
5633,-0.755,-0.415,
5634,-0.745,-0.4,
5635,-0.755,-0.41,
5636,-0.745,-0.41,
5637,-0.725,-0.42,
5638,-0.715,-0.405,
5639,-0.69,-0.41,
5640,-0.655,-0.4,
5641,-0.64,-0.395,
5642,-0.62,-0.395,
5643,-0.585,-0.405,
5644,-0.575,-0.415,
5645,-0.565,-0.395,
5646,-0.54,-0.425,
5647,-0.535,-0.435,
5648,-0.51,-0.43,
5649,-0.505,-0.43,
5650,-0.49,-0.43,
5651,-0.47,-0.425,
5652,-0.425,-0.405,
5653,-0.42,-0.395,
5654,-0.395,-0.39,
5655,-0.38,-0.405,
5656,-0.375,-0.42,
5657,-0.37,-0.42,
5658,-0.38,-0.435,
5659,-0.36,-0.425,
5660,-0.355,-0.45,
5661,-0.345,-0.455,
5662,-0.345,-0.46,
5663,-0.33,-0.455,
5664,-0.315,-0.45,
5665,-0.315,-0.44,
5666,-0.315,-0.435,
5667,-0.325,-0.435,
5668,-0.355,-0.445,
5669,-0.4,-0.44,
5670,-0.425,-0.465,
5671,-0.475,-0.445,
5672,-0.48,-0.44,
5673,-0.52,-0.45,
5674,-0.55,-0.435,
5675,-0.58,-0.42,
5676,-0.61,-0.4,
5677,-0.625,-0.405,
5678,-0.655,-0.375,
5679,-0.675,-0.39,
5680,-0.695,-0.41,
5681,-0.745,-0.405,
5682,-0.765,-0.43,
5683,-0.785,-0.45,
5684,-0.8,-0.445,
5685,-0.825,-0.445,
5686,-0.835,-0.445,
5687,-0.84,-0.45,
5688,-0.86,-0.44,
5689,-0.86,-0.43,
5690,-0.84,-0.42,
5691,-0.845,-0.42,
5692,-0.855,-0.45,
5693,-0.88,-0.435,
5694,-0.89,-0.46,
5695,-0.9,-0.465,
5696,-0.905,-0.455,
5697,-0.895,-0.485,
5698,-0.91,-0.445,
5699,-0.925,-0.47,
5700,-0.905,-0.45,
5701,-0.905,-0.445,
5702,-0.895,-0.435,
5703,-0.895,-0.43,
5704,-0.9,-0.44,
5705,-0.905,-0.445,
5706,-0.905,-0.45,
5707,-0.935,-0.47,
5708,-0.95,-0.465,
5709,-0.94,-0.47,
5710,-0.935,-0.475,
5711,-0.94,-0.465,
5712,-0.92,-0.465,
5713,-0.895,-0.45,
5714,-0.895,-0.44,
5715,-0.885,-0.425,
5716,-0.88,-0.435,
5717,-0.885,-0.44,
5718,-0.895,-0.45,
5719,-0.9,-0.465,
5720,-0.9,-0.47,
5721,-0.89,-0.465,
5722,-0.895,-0.475,
5723,-0.895,-0.47,
5724,-0.88,-0.445,
5725,-0.875,-0.445,
5726,-0.865,-0.435,
5727,-0.85,-0.45,
5728,-0.845,-0.455,
5729,-0.84,-0.46,
5730,-0.855,-0.485,
5731,-0.865,-0.485,
5732,-0.86,-0.495,
5733,-0.855,-0.495,
5734,-0.855,-0.49,
5735,-0.855,-0.48,
5736,-0.84,-0.475,
5737,-0.835,-0.455,
5738,-0.82,-0.455,
5739,-0.825,-0.455,
5740,-0.83,-0.45,
5741,-0.83,-0.47,
5742,-0.845,-0.485,
5743,-0.845,-0.485,
5744,-0.865,-0.49,
5745,-0.86,-0.49,
5746,-0.855,-0.475,
5747,-0.865,-0.48,
5748,-0.845,-0.475,
5749,-0.845,-0.475,
5750,-0.84,-0.455,
5751,-0.845,-0.46,
5752,-0.85,-0.475,
5753,-0.865,-0.48,
5754,-0.875,-0.505,
5755,-0.88,-0.51,
5756,-0.89,-0.53,
5757,-0.91,-0.525,
5758,-0.9,-0.535,
5759,-0.88,-0.515,
5760,-0.88,-0.5,
5761,-0.89,-0.485,
5762,-0.88,-0.47,
5763,-0.86,-0.48,
5764,-0.87,-0.47,
5765,-0.88,-0.475,
5766,-0.885,-0.485,
5767,-0.9,-0.485,
5768,-0.905,-0.505,
5769,-0.915,-0.5,
5770,-0.915,-0.49,
5771,-0.92,-0.485,
5772,-0.905,-0.485,
5773,-0.89,-0.475,
5774,-0.9,-0.465,
5775,-0.9,-0.485,
5776,-0.895,-0.475,
5777,-0.905,-0.505,
5778,-0.9,-0.495,
5779,-0.915,-0.51,
5780,-0.925,-0.515,
5781,-0.935,-0.53,
5782,-0.92,-0.52,
5783,-0.915,-0.51,
5784,-0.91,-0.49,
5785,-0.91,-0.48,
5786,-0.895,-0.47,
5787,-0.895,-0.485,
5788,-0.9,-0.47,
5789,-0.905,-0.485,
5790,-0.905,-0.495,
5791,-0.93,-0.51,
5792,-0.95,-0.515,
5793,-0.96,-0.515,
5794,-0.945,-0.51,
5795,-0.925,-0.51,
5796,-0.92,-0.495,
5797,-0.915,-0.495,
5798,-0.9,-0.49,
5799,-0.895,-0.48,
5800,-0.9,-0.49,
5801,-0.9,-0.49,
5802,-0.915,-0.515,
5803,-0.93,-0.515,
5804,-0.93,-0.515,
5805,-0.9,-0.52,
5806,-0.915,-0.5,
5807,-0.9,-0.475,
5808,-0.865,-0.46,
5809,-0.815,-0.435,
5810,-0.785,-0.425,
5811,-0.78,-0.425,
5812,-0.755,-0.425,
5813,-0.745,-0.425,
5814,-0.745,-0.41,
5815,-0.74,-0.43,
5816,-0.73,-0.425,
5817,-0.715,-0.415,
5818,-0.685,-0.41,
5819,-0.655,-0.405,
5820,-0.6,-0.4,
5821,-0.555,-0.395,
5822,-0.525,-0.415,
5823,-0.535,-0.45,
5824,-0.555,-0.48,
5825,-0.575,-0.505,
5826,-0.585,-0.525,
5827,-0.6,-0.535,
5828,-0.605,-0.54,
5829,-0.605,-0.52,
5830,-0.62,-0.535,
5831,-0.62,-0.53,
5832,-0.645,-0.53,
5833,-0.68,-0.52,
5834,-0.725,-0.515,
5835,-0.795,-0.53,
5836,-0.855,-0.52,
5837,-0.915,-0.53,
5838,-0.91,-0.525,
5839,-0.92,-0.54,
5840,-0.935,-0.535,
5841,-0.955,-0.555,
5842,-0.95,-0.555,
5843,-0.95,-0.545,
5844,-0.935,-0.535,
5845,-0.95,-0.54,
5846,-0.945,-0.52,
5847,-0.94,-0.535,
5848,-0.945,-0.54,
5849,-0.955,-0.555,
5850,-0.97,-0.555,
5851,-0.975,-0.565,
5852,-0.97,-0.555,
5853,-0.985,-0.55,
5854,-0.975,-0.56,
5855,-0.98,-0.54,
5856,-0.965,-0.54,
5857,-0.955,-0.535,
5858,-0.965,-0.535,
5859,-0.97,-0.525,
5860,-0.97,-0.525,
5861,-0.965,-0.55,
5862,-0.97,-0.55,
5863,-0.975,-0.555,
5864,-0.965,-0.545,
5865,-0.96,-0.56,
5866,-0.97,-0.55,
5867,-0.965,-0.56,
5868,-0.95,-0.55,
5869,-0.985,-0.53,
5870,-1.0,-0.505,
5871,-1.005,-0.47,
5872,-0.995,-0.44,
5873,-0.93,-0.38,
5874,-0.795,-0.335,
5875,-0.615,-0.325,
5876,-0.37,-0.345,
5877,-0.03,-0.445,
5878,0.34,-0.575,
5879,0.725,-0.755,
5880,1.05,-0.97,
5881,1.265,-1.21,
5882,1.35,-1.395,N
5883,1.34,-1.55,
5884,1.19,-1.62,
5885,0.92,-1.64,
5886,0.48,-1.615,
5887,-0.03,-1.56,
5888,-0.555,-1.485,
5889,-0.93,-1.39,
5890,-1.085,-1.285,
5891,-1.06,-1.16,
5892,-0.925,-1.04,
5893,-0.775,-0.935,
5894,-0.705,-0.86,
5895,-0.68,-0.775,
5896,-0.71,-0.71,
5897,-0.775,-0.665,
5898,-0.855,-0.615,
5899,-0.92,-0.58,
5900,-0.95,-0.565,
5901,-0.96,-0.55,
5902,-0.97,-0.55,
5903,-0.965,-0.535,
5904,-0.95,-0.51,
5905,-0.945,-0.505,
5906,-0.93,-0.485,
5907,-0.945,-0.485,
5908,-0.95,-0.495,
5909,-0.95,-0.5,
5910,-0.955,-0.485,
5911,-0.965,-0.5,
5912,-0.985,-0.5,
5913,-0.985,-0.51,
5914,-0.985,-0.51,
5915,-0.975,-0.485,
5916,-0.965,-0.49,
5917,-0.955,-0.475,
5918,-0.955,-0.465,
5919,-0.94,-0.465,
5920,-0.945,-0.465,
5921,-0.95,-0.47,
5922,-0.97,-0.48,
5923,-0.965,-0.49,
5924,-0.975,-0.495,
5925,-0.99,-0.485,
5926,-0.985,-0.475,
5927,-0.965,-0.47,
5928,-0.965,-0.46,
5929,-0.96,-0.455,
5930,-0.955,-0.435,
5931,-0.94,-0.45,
5932,-0.94,-0.46,
5933,-0.95,-0.445,
5934,-0.955,-0.46,
5935,-0.955,-0.46,
5936,-0.96,-0.485,
5937,-0.96,-0.48,
5938,-0.95,-0.495,
5939,-0.955,-0.46,
5940,-0.945,-0.475,
5941,-0.94,-0.445,
5942,-0.93,-0.42,
5943,-0.935,-0.435,
5944,-0.93,-0.44,
5945,-0.925,-0.43,
5946,-0.92,-0.435,
5947,-0.92,-0.44,
5948,-0.925,-0.465,
5949,-0.915,-0.46,
5950,-0.9,-0.455,
5951,-0.89,-0.455,
5952,-0.885,-0.44,
5953,-0.855,-0.43,
5954,-0.84,-0.425,
5955,-0.845,-0.42,
5956,-0.825,-0.415,
5957,-0.815,-0.435,
5958,-0.84,-0.435,
5959,-0.835,-0.45,
5960,-0.835,-0.445,
5961,-0.83,-0.455,
5962,-0.785,-0.435,
5963,-0.775,-0.425,
5964,-0.75,-0.42,
5965,-0.73,-0.395,
5966,-0.71,-0.37,
5967,-0.68,-0.38,
5968,-0.66,-0.375,
5969,-0.635,-0.4,
5970,-0.625,-0.4,
5971,-0.62,-0.41,
5972,-0.615,-0.425,
5973,-0.59,-0.415,
5974,-0.56,-0.415,
5975,-0.55,-0.4,
5976,-0.505,-0.38,
5977,-0.495,-0.395,
5978,-0.465,-0.38,
5979,-0.42,-0.395,
5980,-0.41,-0.405,
5981,-0.395,-0.415,
5982,-0.385,-0.43,
5983,-0.375,-0.425,
5984,-0.36,-0.435,
5985,-0.36,-0.44,
5986,-0.335,-0.44,
5987,-0.32,-0.405,
5988,-0.295,-0.41,
5989,-0.28,-0.41,
5990,-0.27,-0.4,
5991,-0.27,-0.4,
5992,-0.275,-0.43,
5993,-0.26,-0.445,
5994,-0.28,-0.45,
5995,-0.31,-0.475,
5996,-0.33,-0.485,
5997,-0.35,-0.495,
5998,-0.37,-0.475,
5999,-0.38,-0.46,
6000,-0.41,-0.445,
6001,-0.435,-0.44,
6002,-0.47,-0.42,
6003,-0.485,-0.415,
6004,-0.525,-0.42,
6005,-0.55,-0.44,
6006,-0.59,-0.445,
6007,-0.625,-0.44,
6008,-0.655,-0.45,
6009,-0.695,-0.465,
6010,-0.72,-0.45,
6011,-0.73,-0.45,
6012,-0.745,-0.43,
6013,-0.755,-0.435,
6014,-0.775,-0.415,
6015,-0.775,-0.45,
6016,-0.795,-0.46,
6017,-0.805,-0.46,
6018,-0.82,-0.48,
6019,-0.835,-0.485,
6020,-0.855,-0.49,
6021,-0.87,-0.495,
6022,-0.88,-0.485,
6023,-0.875,-0.49,
6024,-0.865,-0.485,
6025,-0.86,-0.47,
6026,-0.865,-0.465,
6027,-0.86,-0.485,
6028,-0.865,-0.475,
6029,-0.875,-0.48,
6030,-0.875,-0.49,
6031,-0.89,-0.505,
6032,-0.895,-0.485,
6033,-0.89,-0.48,
6034,-0.895,-0.49,
6035,-0.91,-0.485,
6036,-0.88,-0.465,
6037,-0.88,-0.475,
6038,-0.855,-0.475,
6039,-0.86,-0.46,
6040,-0.855,-0.465,
6041,-0.855,-0.475,
6042,-0.87,-0.495,
6043,-0.88,-0.5,
6044,-0.895,-0.51,
6045,-0.89,-0.515,
6046,-0.88,-0.525,
6047,-0.875,-0.5,
6048,-0.865,-0.485,
6049,-0.845,-0.5,
6050,-0.835,-0.48,
6051,-0.83,-0.465,
6052,-0.835,-0.475,
6053,-0.835,-0.47,
6054,-0.835,-0.47,
6055,-0.835,-0.49,
6056,-0.855,-0.5,
6057,-0.88,-0.505,
6058,-0.875,-0.5,
6059,-0.86,-0.5,
6060,-0.85,-0.495,
6061,-0.835,-0.495,
6062,-0.835,-0.49,
6063,-0.82,-0.485,
6064,-0.825,-0.49,
6065,-0.825,-0.495,
6066,-0.84,-0.505,
6067,-0.845,-0.515,
6068,-0.84,-0.53,
6069,-0.855,-0.535,
6070,-0.875,-0.525,
6071,-0.88,-0.52,
6072,-0.865,-0.505,
6073,-0.87,-0.505,
6074,-0.845,-0.5,
6075,-0.84,-0.485,
6076,-0.86,-0.48,
6077,-0.84,-0.485,
6078,-0.855,-0.51,
6079,-0.865,-0.52,
6080,-0.865,-0.535,
6081,-0.875,-0.53,
6082,-0.885,-0.52,
6083,-0.875,-0.515,
6084,-0.87,-0.51,
6085,-0.89,-0.5,
6086,-0.84,-0.49,
6087,-0.855,-0.49,
6088,-0.87,-0.5,
6089,-0.855,-0.505,
6090,-0.87,-0.51,
6091,-0.88,-0.525,
6092,-0.885,-0.55,
6093,-0.885,-0.545,
6094,-0.885,-0.54,
6095,-0.88,-0.535,
6096,-0.875,-0.52,
6097,-0.875,-0.5,
6098,-0.875,-0.5,
6099,-0.87,-0.505,
6100,-0.88,-0.495,
6101,-0.9,-0.51,
6102,-0.895,-0.515,
6103,-0.89,-0.53,
6104,-0.91,-0.535,
6105,-0.905,-0.555,
6106,-0.915,-0.525,
6107,-0.9,-0.52,
6108,-0.895,-0.51,
6109,-0.89,-0.525,
6110,-0.87,-0.515,
6111,-0.875,-0.515,
6112,-0.875,-0.52,
6113,-0.89,-0.525,
6114,-0.885,-0.55,
6115,-0.9,-0.555,
6116,-0.905,-0.565,
6117,-0.92,-0.56,
6118,-0.925,-0.545,
6119,-0.925,-0.55,
6120,-0.9,-0.555,
6121,-0.885,-0.52,
6122,-0.895,-0.51,
6123,-0.875,-0.51,
6124,-0.88,-0.525,
6125,-0.88,-0.52,
6126,-0.885,-0.535,
6127,-0.895,-0.545,
6128,-0.905,-0.55,
6129,-0.905,-0.55,
6130,-0.9,-0.55,
6131,-0.895,-0.53,
6132,-0.88,-0.525,
6133,-0.85,-0.525,
6134,-0.86,-0.525,
6135,-0.845,-0.515,
6136,-0.85,-0.52,
6137,-0.825,-0.505,
6138,-0.82,-0.505,
6139,-0.815,-0.495,
6140,-0.81,-0.505,
6141,-0.78,-0.495,
6142,-0.785,-0.465,
6143,-0.76,-0.455,
6144,-0.735,-0.435,
6145,-0.71,-0.41,
6146,-0.69,-0.395,
6147,-0.66,-0.405,
6148,-0.635,-0.405,
6149,-0.595,-0.415,
6150,-0.575,-0.44,
6151,-0.575,-0.465,
6152,-0.545,-0.495,
6153,-0.56,-0.52,
6154,-0.57,-0.535,
6155,-0.58,-0.535,
6156,-0.575,-0.56,
6157,-0.56,-0.57,
6158,-0.56,-0.545,
6159,-0.565,-0.545,
6160,-0.6,-0.56,
6161,-0.64,-0.555,
6162,-0.69,-0.57,
6163,-0.765,-0.585,
6164,-0.835,-0.575,
6165,-0.875,-0.585,
6166,-0.91,-0.56,
6167,-0.925,-0.555,
6168,-0.925,-0.54,
6169,-0.91,-0.555,
6170,-0.905,-0.535,
6171,-0.895,-0.555,
6172,-0.915,-0.575,
6173,-0.925,-0.57,
6174,-0.93,-0.595,
6175,-0.93,-0.595,
6176,-0.95,-0.615,
6177,-0.95,-0.615,
6178,-0.96,-0.61,
6179,-0.955,-0.595,
6180,-0.95,-0.59,
6181,-0.945,-0.58,
6182,-0.945,-0.565,
6183,-0.925,-0.555,
6184,-0.925,-0.55,
6185,-0.95,-0.555,
6186,-0.955,-0.565,
6187,-0.96,-0.59,
6188,-0.965,-0.59,
6189,-0.97,-0.585,
6190,-0.975,-0.57,
6191,-0.97,-0.575,
6192,-0.94,-0.575,
6193,-0.93,-0.565,
6194,-0.915,-0.545,
6195,-0.925,-0.555,
6196,-0.93,-0.545,
6197,-0.965,-0.55,
6198,-0.99,-0.535,
6199,-1.02,-0.515,
6200,-1.02,-0.485,
6201,-0.94,-0.43,
6202,-0.835,-0.385,
6203,-0.645,-0.355,
6204,-0.38,-0.385,
6205,-0.045,-0.44,
6206,0.33,-0.56,
6207,0.69,-0.755,
6208,0.985,-0.97,
6209,1.19,-1.21,
6210,1.27,-1.425,N
6211,1.225,-1.565,
6212,1.07,-1.635,
6213,0.79,-1.615,
6214,0.335,-1.555,
6215,-0.19,-1.475,
6216,-0.7,-1.395,
6217,-1.03,-1.3,
6218,-1.13,-1.2,
6219,-1.085,-1.095,
6220,-0.94,-1.03,
6221,-0.8,-0.955,
6222,-0.725,-0.915,
6223,-0.71,-0.86,
6224,-0.755,-0.785,
6225,-0.845,-0.73,
6226,-0.89,-0.675,
6227,-0.925,-0.635,
6228,-0.95,-0.59,
6229,-0.945,-0.555,
6230,-0.93,-0.54,
6231,-0.925,-0.525,
6232,-0.925,-0.52,
6233,-0.95,-0.535,
6234,-0.94,-0.515,
6235,-0.97,-0.525,
6236,-0.98,-0.53,
6237,-0.99,-0.525,
6238,-0.99,-0.51,
6239,-0.995,-0.52,
6240,-0.975,-0.505,
6241,-0.97,-0.49,
6242,-0.965,-0.48,
6243,-0.955,-0.48,
6244,-0.98,-0.48,
6245,-0.99,-0.495,
6246,-0.99,-0.51,
6247,-1.01,-0.51,
6248,-1.01,-0.52,
6249,-1.005,-0.52,
6250,-1.0,-0.51,
6251,-0.99,-0.485,
6252,-0.985,-0.485,
6253,-0.985,-0.455,
6254,-0.975,-0.455,
6255,-0.95,-0.46,
6256,-0.97,-0.46,
6257,-0.97,-0.47,
6258,-0.98,-0.485,
6259,-0.99,-0.49,
6260,-1.02,-0.525,
6261,-1.0,-0.505,
6262,-0.995,-0.515,
6263,-0.985,-0.51,
6264,-0.985,-0.5,
6265,-0.96,-0.505,
6266,-0.95,-0.49,
6267,-0.935,-0.465,
6268,-0.94,-0.475,
6269,-0.95,-0.48,
6270,-0.94,-0.49,
6271,-0.965,-0.48,
6272,-0.965,-0.485,
6273,-0.96,-0.49,
6274,-0.95,-0.47,
6275,-0.945,-0.485,
6276,-0.915,-0.47,
6277,-0.915,-0.45,
6278,-0.88,-0.445,
6279,-0.865,-0.44,
6280,-0.86,-0.45,
6281,-0.845,-0.46,
6282,-0.865,-0.47,
6283,-0.875,-0.47,
6284,-0.875,-0.475,
6285,-0.855,-0.495,
6286,-0.845,-0.49,
6287,-0.83,-0.48,
6288,-0.82,-0.46,
6289,-0.79,-0.46,
6290,-0.785,-0.45,
6291,-0.75,-0.455,
6292,-0.73,-0.435,
6293,-0.715,-0.455,
6294,-0.71,-0.46,
6295,-0.68,-0.455,
6296,-0.68,-0.475,
6297,-0.66,-0.485,
6298,-0.655,-0.475,
6299,-0.61,-0.475,
6300,-0.575,-0.45,
6301,-0.555,-0.47,
6302,-0.51,-0.465,
6303,-0.49,-0.465,
6304,-0.47,-0.485,
6305,-0.465,-0.48,
6306,-0.465,-0.495,
6307,-0.445,-0.495,
6308,-0.44,-0.51,
6309,-0.415,-0.535,
6310,-0.405,-0.525,
6311,-0.405,-0.525,
6312,-0.375,-0.53,
6313,-0.355,-0.515,
6314,-0.335,-0.5,
6315,-0.315,-0.49,
6316,-0.31,-0.495,
6317,-0.32,-0.495,
6318,-0.325,-0.51,
6319,-0.33,-0.52,
6320,-0.355,-0.52,
6321,-0.355,-0.535,
6322,-0.385,-0.515,
6323,-0.405,-0.53,
6324,-0.42,-0.505,
6325,-0.435,-0.48,
6326,-0.47,-0.495,
6327,-0.49,-0.475,
6328,-0.535,-0.465,
6329,-0.57,-0.475,
6330,-0.62,-0.485,
6331,-0.645,-0.47,
6332,-0.675,-0.49,
6333,-0.725,-0.49,
6334,-0.75,-0.485,
6335,-0.775,-0.48,
6336,-0.775,-0.46,
6337,-0.81,-0.455,
6338,-0.82,-0.435,
6339,-0.83,-0.425,
6340,-0.85,-0.435,
6341,-0.865,-0.43,
6342,-0.88,-0.45,
6343,-0.9,-0.47,
6344,-0.91,-0.485,
6345,-0.93,-0.5,
6346,-0.925,-0.49,
6347,-0.925,-0.48,
6348,-0.93,-0.48,
6349,-0.92,-0.47,
6350,-0.91,-0.46,
6351,-0.91,-0.465,
6352,-0.925,-0.48,
6353,-0.935,-0.47,
6354,-0.94,-0.48,
6355,-0.955,-0.505,
6356,-0.955,-0.515,
6357,-0.97,-0.52,
6358,-0.975,-0.515,
6359,-0.97,-0.49,
6360,-0.955,-0.47,
6361,-0.945,-0.45,
6362,-0.945,-0.455,
6363,-0.94,-0.455,
6364,-0.935,-0.47,
6365,-0.935,-0.47,
6366,-0.945,-0.47,
6367,-0.975,-0.495,
6368,-0.975,-0.51,
6369,-0.965,-0.505,
6370,-0.96,-0.505,
6371,-0.955,-0.495,
6372,-0.935,-0.5,
6373,-0.935,-0.48,
6374,-0.945,-0.495,
6375,-0.945,-0.48,
6376,-0.935,-0.485,
6377,-0.945,-0.48,
6378,-0.945,-0.505,
6379,-0.95,-0.515,
6380,-0.94,-0.52,
6381,-0.91,-0.51,
6382,-0.915,-0.515,
6383,-0.925,-0.5,
6384,-0.92,-0.51,
6385,-0.895,-0.49,
6386,-0.9,-0.49,
6387,-0.895,-0.49,
6388,-0.89,-0.49,
6389,-0.885,-0.5,
6390,-0.89,-0.49,
6391,-0.92,-0.505,
6392,-0.91,-0.52,
6393,-0.92,-0.52,
6394,-0.935,-0.52,
6395,-0.93,-0.51,
6396,-0.905,-0.5,
6397,-0.89,-0.48,
6398,-0.895,-0.47,
6399,-0.875,-0.475,
6400,-0.89,-0.465,
6401,-0.9,-0.48,
6402,-0.895,-0.49,
6403,-0.91,-0.505,
6404,-0.925,-0.5,
6405,-0.925,-0.505,
6406,-0.935,-0.52,
6407,-0.935,-0.485,
6408,-0.925,-0.465,
6409,-0.925,-0.48,
6410,-0.925,-0.47,
6411,-0.91,-0.465,
6412,-0.905,-0.475,
6413,-0.925,-0.48,
6414,-0.935,-0.48,
6415,-0.945,-0.5,
6416,-0.955,-0.49,
6417,-0.96,-0.515,
6418,-0.965,-0.515,
6419,-0.975,-0.505,
6420,-0.96,-0.495,
6421,-0.95,-0.47,
6422,-0.92,-0.48,
6423,-0.91,-0.47,
