,MLII,V1,symbol
0,-0.875,-0.65,
1,-0.875,-0.65,
2,-0.875,-0.65,
3,-0.875,-0.65,
4,-0.875,-0.65,
5,-0.875,-0.65,
6,-0.875,-0.65,
7,-0.86,-0.65,
8,-0.85,-0.65,
9,-0.84,-0.665,
10,-0.84,-0.665,
11,-0.825,-0.66,
12,-0.83,-0.675,
13,-0.835,-0.68,
14,-0.845,-0.685,
15,-0.855,-0.68,
16,-0.85,-0.68,
17,-0.855,-0.675,
18,-0.85,-0.67,
19,-0.835,-0.66,
20,-0.825,-0.65,
21,-0.825,-0.65,
22,-0.84,-0.65,
23,-0.84,-0.67,
24,-0.825,-0.675,
25,-0.825,-0.68,
26,-0.83,-0.705,
27,-0.825,-0.695,
28,-0.835,-0.695,
29,-0.83,-0.675,
30,-0.835,-0.665,
31,-0.83,-0.655,
32,-0.82,-0.65,
33,-0.805,-0.66,
34,-0.805,-0.67,
35,-0.805,-0.67,
36,-0.81,-0.685,+
37,-0.815,-0.685,
38,-0.82,-0.695,
39,-0.83,-0.7,
40,-0.83,-0.685,
41,-0.825,-0.685,
42,-0.84,-0.67,
43,-0.825,-0.665,
44,-0.8,-0.655,
45,-0.795,-0.66,
46,-0.795,-0.665,
47,-0.8,-0.675,
48,-0.805,-0.675,
49,-0.805,-0.68,
50,-0.805,-0.68,
51,-0.81,-0.69,
52,-0.81,-0.675,
53,-0.815,-0.675,
54,-0.815,-0.67,
55,-0.805,-0.665,
56,-0.8,-0.66,
57,-0.79,-0.66,
58,-0.8,-0.665,
59,-0.8,-0.68,
60,-0.805,-0.685,
61,-0.82,-0.68,
62,-0.825,-0.69,
63,-0.825,-0.695,
64,-0.82,-0.685,
65,-0.815,-0.68,
66,-0.805,-0.665,
67,-0.8,-0.66,
68,-0.795,-0.675,
69,-0.8,-0.665,
70,-0.785,-0.68,
71,-0.8,-0.67,
72,-0.795,-0.685,
73,-0.8,-0.69,
74,-0.81,-0.695,
75,-0.81,-0.695,
76,-0.81,-0.685,
77,-0.815,-0.685,
78,-0.815,-0.665,
79,-0.8,-0.67,
80,-0.785,-0.655,
81,-0.79,-0.665,
82,-0.78,-0.67,
83,-0.795,-0.67,
84,-0.795,-0.68,
85,-0.795,-0.69,
86,-0.8,-0.7,
87,-0.805,-0.695,
88,-0.815,-0.695,
89,-0.805,-0.69,
90,-0.8,-0.67,
91,-0.79,-0.675,
92,-0.795,-0.67,
93,-0.79,-0.66,
94,-0.785,-0.67,
95,-0.78,-0.665,
96,-0.77,-0.67,
97,-0.775,-0.675,
98,-0.785,-0.665,
99,-0.795,-0.67,
100,-0.795,-0.66,
101,-0.775,-0.665,
102,-0.775,-0.655,
103,-0.755,-0.665,
104,-0.75,-0.66,
105,-0.74,-0.68,
106,-0.74,-0.7,
107,-0.74,-0.715,
108,-0.745,-0.755,
109,-0.75,-0.775,
110,-0.74,-0.79,
111,-0.745,-0.795,
112,-0.75,-0.775,
113,-0.745,-0.76,
114,-0.745,-0.745,
115,-0.735,-0.73,
116,-0.73,-0.725,
117,-0.72,-0.725,
118,-0.73,-0.74,
119,-0.72,-0.74,
120,-0.73,-0.74,
121,-0.715,-0.745,
122,-0.72,-0.74,
123,-0.74,-0.725,
124,-0.755,-0.71,
125,-0.735,-0.69,
126,-0.735,-0.675,
127,-0.735,-0.67,
128,-0.735,-0.655,
129,-0.73,-0.66,
130,-0.735,-0.67,
131,-0.75,-0.67,
132,-0.755,-0.69,
133,-0.77,-0.68,
134,-0.78,-0.685,
135,-0.795,-0.7,
136,-0.8,-0.695,
137,-0.8,-0.685,
138,-0.79,-0.685,
139,-0.77,-0.67,
140,-0.775,-0.665,
141,-0.77,-0.67,
142,-0.765,-0.665,
143,-0.755,-0.66,
144,-0.765,-0.66,
145,-0.765,-0.65,
146,-0.775,-0.64,
147,-0.75,-0.655,
148,-0.745,-0.67,
149,-0.72,-0.725,
150,-0.705,-0.81,
151,-0.655,-0.935,
152,-0.59,-1.105,
153,-0.505,-1.285,
154,-0.4,-1.5,
155,-0.29,-1.68,
156,-0.165,-1.81,
157,-0.05,-1.875,
158,0.045,-1.855,
159,0.115,-1.745,
160,0.155,-1.595,
161,0.195,-1.425,
162,0.21,-1.255,
163,0.265,-1.15,N
164,0.285,-1.035,
165,0.295,-0.95,
166,0.245,-0.885,
167,0.18,-0.82,
168,0.105,-0.76,
169,0.015,-0.715,
170,-0.08,-0.695,
171,-0.18,-0.675,
172,-0.28,-0.67,
173,-0.37,-0.66,
174,-0.445,-0.64,
175,-0.515,-0.63,
176,-0.545,-0.625,
177,-0.59,-0.625,
178,-0.65,-0.62,
179,-0.665,-0.605,
180,-0.685,-0.62,
181,-0.715,-0.63,
182,-0.725,-0.63,
183,-0.715,-0.64,
184,-0.72,-0.625,
185,-0.72,-0.615,
186,-0.71,-0.61,
187,-0.715,-0.6,
188,-0.695,-0.59,
189,-0.69,-0.59,
190,-0.69,-0.605,
191,-0.69,-0.605,
192,-0.68,-0.605,
193,-0.685,-0.61,
194,-0.695,-0.62,
195,-0.705,-0.62,
196,-0.7,-0.615,
197,-0.7,-0.6,
198,-0.695,-0.61,
199,-0.685,-0.595,
200,-0.68,-0.59,
201,-0.665,-0.585,
202,-0.665,-0.585,
203,-0.66,-0.6,
204,-0.665,-0.605,
205,-0.665,-0.605,
206,-0.67,-0.625,
207,-0.67,-0.62,
208,-0.67,-0.615,
209,-0.68,-0.605,
210,-0.655,-0.595,
211,-0.655,-0.605,
212,-0.655,-0.58,
213,-0.64,-0.58,
214,-0.645,-0.595,
215,-0.64,-0.605,
216,-0.64,-0.61,
217,-0.655,-0.62,
218,-0.655,-0.615,
219,-0.67,-0.625,
220,-0.68,-0.62,
221,-0.67,-0.62,
222,-0.675,-0.605,
223,-0.655,-0.605,
224,-0.665,-0.595,
225,-0.65,-0.595,
226,-0.64,-0.6,
227,-0.635,-0.6,
228,-0.64,-0.605,
229,-0.65,-0.62,
230,-0.655,-0.615,
231,-0.64,-0.625,
232,-0.65,-0.625,
233,-0.655,-0.615,
234,-0.64,-0.61,
235,-0.635,-0.6,
236,-0.625,-0.6,
237,-0.615,-0.605,
238,-0.62,-0.61,
239,-0.62,-0.6,
240,-0.615,-0.615,
241,-0.625,-0.62,
242,-0.625,-0.63,
243,-0.625,-0.625,
244,-0.63,-0.62,
245,-0.63,-0.63,
246,-0.61,-0.61,
247,-0.595,-0.61,
248,-0.585,-0.595,
249,-0.575,-0.595,
250,-0.58,-0.595,
251,-0.57,-0.6,
252,-0.58,-0.62,
253,-0.57,-0.625,
254,-0.58,-0.64,
255,-0.58,-0.635,
256,-0.585,-0.64,
257,-0.59,-0.62,
258,-0.58,-0.62,
259,-0.58,-0.62,
260,-0.57,-0.625,
261,-0.565,-0.62,
262,-0.575,-0.62,
263,-0.575,-0.625,
264,-0.575,-0.635,
265,-0.59,-0.635,
266,-0.6,-0.65,
267,-0.615,-0.66,
268,-0.615,-0.65,
269,-0.605,-0.655,
270,-0.625,-0.645,
271,-0.605,-0.63,
272,-0.615,-0.63,
273,-0.615,-0.62,
274,-0.62,-0.635,
275,-0.63,-0.645,
276,-0.64,-0.645,
277,-0.645,-0.655,
278,-0.67,-0.66,
279,-0.685,-0.675,
280,-0.69,-0.66,
281,-0.695,-0.665,
282,-0.71,-0.65,
283,-0.715,-0.645,
284,-0.725,-0.64,
285,-0.735,-0.64,
286,-0.725,-0.64,
287,-0.745,-0.64,
288,-0.755,-0.66,
289,-0.755,-0.66,
290,-0.76,-0.675,
291,-0.775,-0.675,
292,-0.785,-0.675,
293,-0.78,-0.675,
294,-0.78,-0.665,
295,-0.765,-0.66,
296,-0.765,-0.65,
297,-0.755,-0.645,
298,-0.76,-0.645,
299,-0.755,-0.65,
300,-0.77,-0.66,
301,-0.775,-0.67,
302,-0.79,-0.675,
303,-0.79,-0.675,
304,-0.79,-0.67,
305,-0.79,-0.66,
306,-0.78,-0.65,
307,-0.775,-0.65,
308,-0.78,-0.645,
309,-0.765,-0.64,
310,-0.765,-0.645,
311,-0.765,-0.655,
312,-0.77,-0.67,
313,-0.795,-0.66,
314,-0.79,-0.665,
315,-0.795,-0.67,
316,-0.8,-0.67,
317,-0.8,-0.655,
318,-0.795,-0.645,
319,-0.79,-0.645,
320,-0.795,-0.64,
321,-0.79,-0.625,
322,-0.8,-0.64,
323,-0.8,-0.65,
324,-0.805,-0.66,
325,-0.805,-0.665,
326,-0.82,-0.66,
327,-0.825,-0.675,
328,-0.84,-0.67,
329,-0.835,-0.665,
330,-0.83,-0.66,
331,-0.825,-0.65,
332,-0.825,-0.635,
333,-0.82,-0.63,
334,-0.825,-0.645,
335,-0.83,-0.655,
336,-0.83,-0.665,
337,-0.835,-0.655,
338,-0.84,-0.67,
339,-0.85,-0.68,
340,-0.855,-0.67,
341,-0.855,-0.675,
342,-0.845,-0.66,
343,-0.845,-0.655,
344,-0.85,-0.66,
345,-0.83,-0.65,
346,-0.83,-0.655,
347,-0.84,-0.665,
348,-0.835,-0.67,
349,-0.85,-0.675,
350,-0.86,-0.695,
351,-0.855,-0.685,
352,-0.865,-0.69,
353,-0.87,-0.675,
354,-0.855,-0.68,
355,-0.855,-0.665,
356,-0.845,-0.66,
357,-0.85,-0.66,
358,-0.855,-0.67,
359,-0.85,-0.675,
360,-0.86,-0.675,
361,-0.84,-0.68,
362,-0.86,-0.69,
363,-0.865,-0.7,
364,-0.865,-0.695,
365,-0.87,-0.685,
366,-0.855,-0.675,
367,-0.84,-0.665,
368,-0.84,-0.67,
369,-0.835,-0.66,
370,-0.84,-0.665,
371,-0.84,-0.68,
372,-0.84,-0.69,
373,-0.835,-0.685,
374,-0.855,-0.69,
375,-0.86,-0.695,
376,-0.85,-0.7,
377,-0.855,-0.69,
378,-0.84,-0.685,
379,-0.835,-0.67,
380,-0.83,-0.67,
381,-0.82,-0.665,
382,-0.825,-0.67,
383,-0.83,-0.675,
384,-0.835,-0.685,
385,-0.835,-0.7,
386,-0.83,-0.7,
387,-0.85,-0.695,
388,-0.865,-0.705,
389,-0.85,-0.7,
390,-0.84,-0.685,
391,-0.835,-0.695,
392,-0.82,-0.675,
393,-0.815,-0.68,
394,-0.815,-0.69,
395,-0.805,-0.685,
396,-0.82,-0.695,
397,-0.825,-0.705,
398,-0.825,-0.71,
399,-0.83,-0.71,
400,-0.83,-0.705,
401,-0.825,-0.705,
402,-0.825,-0.685,
403,-0.82,-0.675,
404,-0.82,-0.68,
405,-0.815,-0.67,
406,-0.805,-0.675,
407,-0.805,-0.68,
408,-0.815,-0.695,
409,-0.825,-0.705,
410,-0.835,-0.705,
411,-0.84,-0.705,
412,-0.84,-0.715,
413,-0.835,-0.7,
414,-0.835,-0.685,
415,-0.83,-0.68,
416,-0.825,-0.68,
417,-0.815,-0.68,
418,-0.81,-0.675,
419,-0.805,-0.69,
420,-0.82,-0.69,
421,-0.825,-0.695,
422,-0.83,-0.715,
423,-0.825,-0.705,
424,-0.83,-0.715,
425,-0.825,-0.705,
426,-0.825,-0.69,
427,-0.815,-0.69,
428,-0.815,-0.68,
429,-0.79,-0.675,
430,-0.8,-0.68,
431,-0.81,-0.68,
432,-0.815,-0.685,
433,-0.805,-0.695,
434,-0.82,-0.705,
435,-0.815,-0.71,
436,-0.825,-0.705,
437,-0.825,-0.7,
438,-0.825,-0.7,
439,-0.815,-0.675,
440,-0.8,-0.675,
441,-0.8,-0.675,
442,-0.81,-0.685,
443,-0.805,-0.695,
444,-0.81,-0.69,
445,-0.82,-0.695,
446,-0.815,-0.695,
447,-0.81,-0.7,
448,-0.8,-0.685,
449,-0.795,-0.68,
450,-0.79,-0.67,
451,-0.77,-0.67,
452,-0.76,-0.685,
453,-0.745,-0.685,
454,-0.745,-0.7,
455,-0.75,-0.72,
456,-0.755,-0.75,
457,-0.77,-0.77,
458,-0.78,-0.775,
459,-0.785,-0.8,
460,-0.775,-0.8,
461,-0.76,-0.785,
462,-0.76,-0.77,
463,-0.755,-0.75,
464,-0.74,-0.74,
465,-0.735,-0.745,
466,-0.745,-0.745,
467,-0.75,-0.755,
468,-0.75,-0.76,
469,-0.755,-0.76,
470,-0.76,-0.76,
471,-0.755,-0.765,
472,-0.75,-0.745,
473,-0.765,-0.73,
474,-0.765,-0.705,
475,-0.76,-0.69,
476,-0.76,-0.675,
477,-0.76,-0.665,
478,-0.775,-0.68,
479,-0.78,-0.68,
480,-0.785,-0.705,
481,-0.8,-0.72,
482,-0.805,-0.715,
483,-0.815,-0.715,
484,-0.81,-0.725,
485,-0.82,-0.715,
486,-0.81,-0.695,
487,-0.8,-0.695,
488,-0.805,-0.69,
489,-0.785,-0.695,
490,-0.79,-0.7,
491,-0.785,-0.69,
492,-0.8,-0.685,
493,-0.8,-0.695,
494,-0.8,-0.685,
495,-0.8,-0.67,
496,-0.805,-0.675,
497,-0.79,-0.665,
498,-0.78,-0.68,
499,-0.76,-0.71,
500,-0.73,-0.77,
501,-0.7,-0.89,
502,-0.655,-1.055,
503,-0.605,-1.25,
504,-0.495,-1.47,
505,-0.38,-1.695,
506,-0.26,-1.855,
507,-0.155,-1.955,
508,-0.06,-1.93,
509,0.015,-1.815,
510,0.055,-1.645,
511,0.095,-1.45,
512,0.14,-1.27,
513,0.18,-1.125,N
514,0.2,-1.02,
515,0.18,-0.935,
516,0.135,-0.865,
517,0.07,-0.81,
518,-0.01,-0.75,
519,-0.105,-0.725,
520,-0.225,-0.705,
521,-0.315,-0.69,
522,-0.405,-0.665,
523,-0.5,-0.66,
524,-0.56,-0.655,
525,-0.615,-0.635,
526,-0.64,-0.625,
527,-0.685,-0.635,
528,-0.72,-0.625,
529,-0.745,-0.64,
530,-0.76,-0.64,
531,-0.77,-0.64,
532,-0.78,-0.645,
533,-0.78,-0.635,
534,-0.77,-0.61,
535,-0.76,-0.615,
536,-0.75,-0.6,
537,-0.735,-0.605,
538,-0.725,-0.605,
539,-0.735,-0.61,
540,-0.745,-0.62,
541,-0.75,-0.62,
542,-0.75,-0.625,
543,-0.755,-0.62,
544,-0.75,-0.625,
545,-0.75,-0.615,
546,-0.76,-0.61,
547,-0.74,-0.605,
548,-0.74,-0.59,
549,-0.72,-0.585,
550,-0.71,-0.6,
551,-0.71,-0.6,
552,-0.725,-0.605,
553,-0.725,-0.615,
554,-0.73,-0.62,
555,-0.725,-0.625,
556,-0.745,-0.625,
557,-0.725,-0.625,
558,-0.745,-0.605,
559,-0.72,-0.6,
560,-0.715,-0.59,
561,-0.7,-0.58,
562,-0.695,-0.58,
563,-0.695,-0.59,
564,-0.705,-0.605,
565,-0.715,-0.6,
566,-0.715,-0.62,
567,-0.71,-0.625,
568,-0.72,-0.62,
569,-0.72,-0.625,
570,-0.715,-0.61,
571,-0.715,-0.6,
572,-0.7,-0.595,
573,-0.68,-0.59,
574,-0.69,-0.6,
575,-0.695,-0.605,
576,-0.68,-0.6,
577,-0.685,-0.615,
578,-0.7,-0.61,
579,-0.705,-0.625,
580,-0.695,-0.62,
581,-0.69,-0.615,
582,-0.685,-0.6,
583,-0.68,-0.59,
584,-0.675,-0.58,
585,-0.65,-0.585,
586,-0.655,-0.595,
587,-0.655,-0.59,
588,-0.675,-0.595,
589,-0.66,-0.615,
590,-0.66,-0.62,
591,-0.66,-0.625,
592,-0.655,-0.63,
593,-0.665,-0.61,
594,-0.66,-0.6,
595,-0.645,-0.595,
596,-0.635,-0.59,
597,-0.635,-0.59,
598,-0.635,-0.585,
599,-0.62,-0.595,
600,-0.625,-0.615,
601,-0.625,-0.62,
602,-0.635,-0.615,
603,-0.635,-0.64,
604,-0.645,-0.63,
605,-0.65,-0.63,
606,-0.645,-0.615,
607,-0.63,-0.615,
608,-0.62,-0.61,
609,-0.615,-0.61,
610,-0.635,-0.61,
611,-0.64,-0.625,
612,-0.64,-0.63,
613,-0.645,-0.65,
614,-0.66,-0.65,
615,-0.68,-0.66,
616,-0.675,-0.65,
617,-0.675,-0.66,
618,-0.685,-0.645,
619,-0.69,-0.65,
620,-0.69,-0.64,
621,-0.685,-0.655,
622,-0.69,-0.65,
623,-0.68,-0.65,
624,-0.71,-0.67,
625,-0.72,-0.665,
626,-0.715,-0.67,
627,-0.75,-0.69,
628,-0.765,-0.69,
629,-0.76,-0.675,
630,-0.765,-0.68,
631,-0.775,-0.68,
632,-0.78,-0.66,
633,-0.785,-0.655,
634,-0.785,-0.66,
635,-0.78,-0.665,
636,-0.785,-0.68,
637,-0.795,-0.685,
638,-0.82,-0.685,
639,-0.825,-0.695,
640,-0.825,-0.69,
641,-0.835,-0.675,
642,-0.835,-0.675,
643,-0.825,-0.675,
644,-0.825,-0.665,
645,-0.815,-0.66,
646,-0.815,-0.67,
647,-0.815,-0.66,
648,-0.81,-0.675,
649,-0.84,-0.68,
650,-0.85,-0.685,
651,-0.845,-0.685,
652,-0.85,-0.68,
653,-0.855,-0.68,
654,-0.85,-0.665,
655,-0.845,-0.665,
656,-0.845,-0.65,
657,-0.825,-0.65,
658,-0.825,-0.65,
659,-0.82,-0.655,
660,-0.82,-0.66,
661,-0.845,-0.66,
662,-0.85,-0.66,
663,-0.85,-0.665,
664,-0.87,-0.655,
665,-0.87,-0.645,
666,-0.865,-0.625,
667,-0.86,-0.62,
668,-0.86,-0.61,
669,-0.84,-0.625,
670,-0.845,-0.635,
671,-0.845,-0.66,
672,-0.85,-0.66,
673,-0.855,-0.68,
674,-0.865,-0.655,
675,-0.87,-0.66,
676,-0.875,-0.655,
677,-0.875,-0.655,
678,-0.88,-0.66,
679,-0.875,-0.64,
680,-0.87,-0.64,
681,-0.86,-0.635,
682,-0.86,-0.635,
683,-0.87,-0.62,
684,-0.86,-0.64,
685,-0.875,-0.63,
686,-0.885,-0.63,
687,-0.89,-0.645,
688,-0.895,-0.65,
689,-0.9,-0.65,
690,-0.89,-0.645,
691,-0.895,-0.635,
692,-0.885,-0.62,
693,-0.875,-0.605,
694,-0.885,-0.605,
695,-0.875,-0.62,
696,-0.885,-0.645,
697,-0.895,-0.665,
698,-0.895,-0.685,
699,-0.9,-0.7,
700,-0.905,-0.7,
701,-0.9,-0.7,
702,-0.895,-0.67,
703,-0.895,-0.655,
704,-0.875,-0.645,
705,-0.875,-0.63,
706,-0.875,-0.625,
707,-0.865,-0.62,
708,-0.87,-0.615,
709,-0.87,-0.61,
710,-0.88,-0.625,
711,-0.89,-0.64,
712,-0.895,-0.675,
713,-0.89,-0.69,
714,-0.89,-0.72,
715,-0.89,-0.72,
716,-0.885,-0.71,
717,-0.87,-0.7,
718,-0.865,-0.685,
719,-0.865,-0.68,
720,-0.88,-0.68,
721,-0.88,-0.68,
722,-0.885,-0.705,
723,-0.895,-0.695,
724,-0.905,-0.69,
725,-0.91,-0.675,
726,-0.905,-0.665,
727,-0.885,-0.655,
728,-0.895,-0.655,
729,-0.865,-0.65,
730,-0.865,-0.66,
731,-0.86,-0.66,
732,-0.875,-0.66,
733,-0.885,-0.665,
734,-0.9,-0.68,
735,-0.905,-0.685,
736,-0.9,-0.69,
737,-0.89,-0.675,
738,-0.895,-0.685,
739,-0.9,-0.67,
740,-0.895,-0.66,
741,-0.895,-0.66,
742,-0.895,-0.66,
743,-0.895,-0.655,
744,-0.895,-0.64,
745,-0.89,-0.655,
746,-0.915,-0.67,
747,-0.905,-0.665,
748,-0.91,-0.67,
749,-0.915,-0.675,
750,-0.92,-0.66,
751,-0.92,-0.665,
752,-0.915,-0.65,
753,-0.92,-0.65,
754,-0.91,-0.65,
755,-0.91,-0.655,
756,-0.92,-0.66,
757,-0.92,-0.65,
758,-0.945,-0.635,
759,-0.955,-0.635,
760,-0.96,-0.625,
761,-0.97,-0.61,
762,-0.97,-0.61,
763,-0.98,-0.62,
764,-0.975,-0.625,
765,-0.98,-0.645,
766,-0.97,-0.655,
767,-0.955,-0.67,
768,-0.96,-0.68,
769,-0.975,-0.665,
770,-0.98,-0.625,
771,-0.99,-0.6,
772,-0.99,-0.6,
773,-1.0,-0.63,
774,-0.995,-0.675,
775,-0.995,-0.73,
776,-0.985,-0.74,
777,-0.99,-0.72,
778,-0.995,-0.69,
779,-1.005,-0.66,
780,-1.005,-0.625,
781,-1.005,-0.61,
782,-1.02,-0.645,
783,-1.02,-0.68,
784,-1.02,-0.73,
785,-1.025,-0.745,
786,-1.02,-0.74,
787,-1.025,-0.72,
788,-1.01,-0.69,
789,-1.01,-0.66,
790,-1.01,-0.65,
791,-0.995,-0.65,
792,-1.0,-0.655,
793,-1.0,-0.67,
794,-1.015,-0.68,
795,-1.02,-0.685,
796,-1.04,-0.69,
797,-1.035,-0.675,
798,-1.03,-0.675,
799,-1.03,-0.66,
800,-1.02,-0.645,
801,-1.005,-0.635,
802,-1.005,-0.625,
803,-1.01,-0.615,
804,-1.025,-0.605,
805,-1.03,-0.595,
806,-1.02,-0.605,
807,-1.025,-0.615,
808,-1.015,-0.66,
809,-1.01,-0.675,
810,-1.0,-0.68,
811,-0.995,-0.65,
812,-0.995,-0.615,
813,-0.98,-0.63,
814,-0.965,-0.69,
815,-0.965,-0.765,
816,-0.98,-0.83,
817,-0.99,-0.87,
818,-0.995,-0.85,
819,-1.005,-0.815,
820,-1.01,-0.775,
821,-0.995,-0.74,
822,-0.995,-0.71,
823,-0.995,-0.715,
824,-0.995,-0.71,
825,-0.99,-0.715,
826,-0.995,-0.72,
827,-0.99,-0.725,
828,-0.995,-0.725,
829,-1.0,-0.72,
830,-0.99,-0.71,
831,-1.0,-0.705,
832,-1.005,-0.7,
833,-1.005,-0.68,
834,-1.015,-0.67,
835,-1.025,-0.685,
836,-1.015,-0.68,
837,-1.035,-0.695,
838,-1.035,-0.68,
839,-1.035,-0.69,
840,-1.055,-0.69,
841,-1.07,-0.705,
842,-1.08,-0.69,
843,-1.08,-0.68,
844,-1.075,-0.695,
845,-1.065,-0.705,
846,-1.065,-0.695,
847,-1.06,-0.7,
848,-1.06,-0.7,
849,-1.06,-0.685,
850,-1.06,-0.685,
851,-1.05,-0.68,
852,-1.055,-0.67,
853,-1.055,-0.655,
854,-1.05,-0.66,
855,-1.06,-0.64,
856,-1.05,-0.635,
857,-1.05,-0.665,
858,-1.03,-0.71,
859,-1.01,-0.76,
860,-0.99,-0.855,
861,-0.935,-0.965,
862,-0.865,-1.115,
863,-0.8,-1.305,
864,-0.7,-1.495,
865,-0.625,-1.675,
866,-0.535,-1.84,
867,-0.445,-1.91,
868,-0.36,-1.915,
869,-0.285,-1.82,
870,-0.235,-1.66,
871,-0.19,-1.48,
872,-0.155,-1.315,
873,-0.105,-1.185,
874,-0.08,-1.085,N
875,-0.07,-1.0,
876,-0.12,-0.915,
877,-0.175,-0.84,
878,-0.25,-0.77,
879,-0.355,-0.72,
880,-0.485,-0.7,
881,-0.6,-0.67,
882,-0.705,-0.665,
883,-0.8,-0.645,
884,-0.87,-0.635,
885,-0.92,-0.63,
886,-0.97,-0.635,
887,-0.985,-0.63,
888,-1.01,-0.635,
889,-1.045,-0.625,
890,-1.055,-0.64,
891,-1.06,-0.63,
892,-1.075,-0.665,
893,-1.07,-0.645,
894,-1.04,-0.635,
895,-1.035,-0.615,
896,-1.02,-0.61,
897,-1.02,-0.6,
898,-1.005,-0.605,
899,-1.015,-0.605,
900,-1.015,-0.6,
901,-1.01,-0.59,
902,-1.015,-0.595,
903,-1.03,-0.615,
904,-1.02,-0.64,
905,-1.02,-0.665,
906,-1.015,-0.66,
907,-1.005,-0.645,
908,-0.99,-0.63,
909,-0.98,-0.61,
910,-0.985,-0.59,
911,-0.98,-0.59,
912,-0.975,-0.59,
913,-0.995,-0.625,
914,-0.995,-0.655,
915,-0.985,-0.67,
916,-0.99,-0.655,
917,-0.985,-0.645,
918,-0.98,-0.615,
919,-0.975,-0.62,
920,-0.97,-0.605,
921,-0.955,-0.6,
922,-0.945,-0.6,
923,-0.94,-0.615,
924,-0.945,-0.63,
925,-0.95,-0.63,
926,-0.95,-0.64,
927,-0.97,-0.635,
928,-0.985,-0.635,
929,-0.99,-0.625,
930,-0.965,-0.625,
931,-0.96,-0.605,
932,-0.945,-0.605,
933,-0.94,-0.615,
934,-0.935,-0.615,
935,-0.94,-0.62,
936,-0.94,-0.635,
937,-0.93,-0.645,
938,-0.93,-0.65,
939,-0.93,-0.645,
940,-0.945,-0.635,
941,-0.93,-0.605,
942,-0.93,-0.595,
943,-0.92,-0.605,
944,-0.915,-0.59,
945,-0.91,-0.575,
946,-0.905,-0.59,
947,-0.895,-0.6,
948,-0.9,-0.615,
949,-0.9,-0.635,
950,-0.905,-0.655,
951,-0.91,-0.655,
952,-0.91,-0.64,
953,-0.9,-0.63,
954,-0.895,-0.625,
955,-0.875,-0.635,
956,-0.875,-0.63,
957,-0.855,-0.63,
958,-0.85,-0.62,
959,-0.85,-0.625,
960,-0.855,-0.62,
961,-0.85,-0.625,
962,-0.855,-0.63,
963,-0.86,-0.64,
964,-0.86,-0.665,
965,-0.855,-0.66,
966,-0.855,-0.645,
967,-0.85,-0.645,
968,-0.85,-0.63,
969,-0.845,-0.63,
970,-0.83,-0.645,
971,-0.84,-0.645,
972,-0.84,-0.645,
973,-0.845,-0.66,
974,-0.855,-0.68,
975,-0.865,-0.665,
976,-0.875,-0.675,
977,-0.88,-0.65,
978,-0.87,-0.655,
979,-0.865,-0.65,
980,-0.86,-0.64,
981,-0.86,-0.64,
982,-0.865,-0.665,
983,-0.885,-0.665,
984,-0.885,-0.67,
985,-0.885,-0.66,
986,-0.905,-0.66,
987,-0.925,-0.665,
988,-0.915,-0.68,
989,-0.915,-0.68,
990,-0.93,-0.675,
991,-0.945,-0.665,
992,-0.95,-0.655,
993,-0.945,-0.64,
994,-0.95,-0.66,
995,-0.955,-0.675,
996,-0.955,-0.685,
997,-0.965,-0.71,
998,-0.985,-0.705,
999,-1.0,-0.7,
1000,-0.99,-0.69,
1001,-1.0,-0.655,
1002,-0.99,-0.655,
1003,-0.985,-0.655,
1004,-0.975,-0.65,
1005,-0.97,-0.665,
1006,-0.98,-0.69,
1007,-0.97,-0.705,
1008,-0.975,-0.69,
1009,-0.985,-0.68,
1010,-1.01,-0.675,
1011,-1.01,-0.685,
1012,-1.0,-0.685,
1013,-0.985,-0.685,
1014,-0.98,-0.69,
1015,-0.97,-0.68,
1016,-0.965,-0.66,
1017,-0.955,-0.66,
1018,-0.965,-0.665,
1019,-0.97,-0.68,
1020,-0.98,-0.685,
1021,-0.99,-0.665,
1022,-0.99,-0.68,
1023,-0.995,-0.69,
1024,-1.005,-0.68,
1025,-1.0,-0.675,
1026,-0.995,-0.655,
1027,-0.99,-0.64,
1028,-0.98,-0.63,
1029,-0.97,-0.635,
1030,-0.975,-0.655,
1031,-0.985,-0.65,
1032,-1.0,-0.66,
1033,-1.01,-0.68,
1034,-1.015,-0.67,
1035,-1.015,-0.675,
1036,-1.015,-0.675,
1037,-1.015,-0.66,
1038,-1.015,-0.655,
1039,-1.01,-0.655,
1040,-1.005,-0.64,
1041,-1.0,-0.635,
1042,-1.0,-0.64,
1043,-1.005,-0.65,
1044,-1.005,-0.655,
1045,-1.01,-0.66,
1046,-1.02,-0.67,
1047,-1.025,-0.67,
1048,-1.03,-0.665,
1049,-1.025,-0.67,
1050,-1.02,-0.665,
1051,-1.01,-0.675,
1052,-1.01,-0.665,
1053,-1.0,-0.67,
1054,-0.995,-0.67,
1055,-0.995,-0.675,
1056,-1.01,-0.67,
1057,-1.01,-0.675,
1058,-1.015,-0.68,
1059,-1.015,-0.675,
1060,-1.015,-0.69,
1061,-1.015,-0.67,
1062,-1.01,-0.655,
1063,-1.0,-0.655,
1064,-0.995,-0.65,
1065,-1.0,-0.66,
1066,-1.0,-0.66,
1067,-0.995,-0.665,
1068,-1.0,-0.67,
1069,-1.005,-0.685,
1070,-1.005,-0.685,
1071,-1.035,-0.695,
1072,-1.025,-0.695,
1073,-1.015,-0.68,
1074,-1.01,-0.675,
1075,-0.995,-0.67,
1076,-0.985,-0.665,
1077,-0.965,-0.67,
1078,-0.975,-0.695,
1079,-0.975,-0.69,
1080,-0.985,-0.71,
1081,-0.985,-0.715,
1082,-1.0,-0.705,
1083,-1.0,-0.695,
1084,-0.985,-0.69,
1085,-0.975,-0.685,
1086,-0.965,-0.675,
1087,-0.975,-0.665,
1088,-0.95,-0.665,
1089,-0.955,-0.68,
1090,-0.95,-0.68,
1091,-0.95,-0.68,
1092,-0.955,-0.685,
1093,-0.955,-0.69,
1094,-0.965,-0.705,
1095,-0.965,-0.7,
1096,-0.975,-0.71,
1097,-0.965,-0.685,
1098,-0.955,-0.675,
1099,-0.945,-0.67,
1100,-0.935,-0.675,
1101,-0.925,-0.685,
1102,-0.95,-0.695,
1103,-0.945,-0.68,
1104,-0.93,-0.68,
1105,-0.935,-0.695,
1106,-0.945,-0.695,
1107,-0.97,-0.71,
1108,-0.96,-0.705,
1109,-0.95,-0.705,
1110,-0.955,-0.69,
1111,-0.95,-0.685,
1112,-0.93,-0.69,
1113,-0.925,-0.7,
1114,-0.925,-0.695,
1115,-0.915,-0.695,
1116,-0.915,-0.705,
1117,-0.93,-0.7,
1118,-0.94,-0.69,
1119,-0.94,-0.685,
1120,-0.945,-0.68,
1121,-0.935,-0.69,
1122,-0.93,-0.695,
1123,-0.925,-0.695,
1124,-0.925,-0.69,
1125,-0.915,-0.69,
1126,-0.915,-0.69,
1127,-0.91,-0.69,
1128,-0.915,-0.69,
1129,-0.925,-0.7,
1130,-0.955,-0.705,
1131,-0.945,-0.71,
1132,-0.945,-0.705,
1133,-0.945,-0.7,
1134,-0.93,-0.695,
1135,-0.915,-0.7,
1136,-0.895,-0.7,
1137,-0.895,-0.695,
1138,-0.895,-0.7,
1139,-0.91,-0.695,
1140,-0.9,-0.69,
1141,-0.915,-0.71,
1142,-0.915,-0.71,
1143,-0.925,-0.71,
1144,-0.92,-0.715,
1145,-0.915,-0.7,
1146,-0.915,-0.695,
1147,-0.895,-0.68,
1148,-0.89,-0.675,
1149,-0.88,-0.675,
1150,-0.885,-0.67,
1151,-0.88,-0.66,
1152,-0.87,-0.68,
1153,-0.875,-0.69,
1154,-0.865,-0.7,
1155,-0.855,-0.705,
1156,-0.85,-0.715,
1157,-0.845,-0.72,
1158,-0.84,-0.715,
1159,-0.845,-0.71,
1160,-0.835,-0.715,
1161,-0.84,-0.73,
1162,-0.825,-0.765,
1163,-0.825,-0.78,
1164,-0.83,-0.795,
1165,-0.82,-0.795,
1166,-0.825,-0.79,
1167,-0.835,-0.78,
1168,-0.835,-0.77,
1169,-0.83,-0.75,
1170,-0.83,-0.74,
1171,-0.815,-0.73,
1172,-0.82,-0.72,
1173,-0.805,-0.715,
1174,-0.81,-0.73,
1175,-0.805,-0.73,
1176,-0.805,-0.73,
1177,-0.82,-0.72,
1178,-0.83,-0.725,
1179,-0.845,-0.72,
1180,-0.855,-0.715,
1181,-0.855,-0.715,
1182,-0.86,-0.7,
1183,-0.86,-0.695,
1184,-0.85,-0.685,
1185,-0.86,-0.685,
1186,-0.86,-0.69,
1187,-0.85,-0.685,
1188,-0.85,-0.7,
1189,-0.855,-0.725,
1190,-0.86,-0.725,
1191,-0.865,-0.72,
1192,-0.895,-0.7,
1193,-0.88,-0.69,
1194,-0.875,-0.68,
1195,-0.865,-0.67,
1196,-0.86,-0.665,
1197,-0.835,-0.655,
1198,-0.82,-0.655,
1199,-0.81,-0.655,
1200,-0.815,-0.675,
1201,-0.82,-0.715,
1202,-0.82,-0.77,
1203,-0.8,-0.88,
1204,-0.75,-0.99,
1205,-0.695,-1.145,
1206,-0.62,-1.31,
1207,-0.535,-1.46,
1208,-0.415,-1.615,
1209,-0.3,-1.735,
1210,-0.19,-1.815,
1211,-0.09,-1.84,
1212,-0.025,-1.78,
1213,0.04,-1.655,
1214,0.07,-1.525,
1215,0.095,-1.365,
1216,0.13,-1.23,
1217,0.16,-1.11,N
1218,0.175,-1.035,
1219,0.175,-0.94,
1220,0.14,-0.875,
1221,0.09,-0.815,
1222,0.02,-0.74,
1223,-0.055,-0.71,
1224,-0.14,-0.69,
1225,-0.24,-0.685,
1226,-0.33,-0.69,
1227,-0.43,-0.67,
1228,-0.52,-0.685,
1229,-0.59,-0.66,
1230,-0.65,-0.64,
1231,-0.7,-0.63,
1232,-0.73,-0.62,
1233,-0.76,-0.615,
1234,-0.78,-0.615,
1235,-0.8,-0.62,
1236,-0.8,-0.62,
1237,-0.8,-0.625,
1238,-0.805,-0.64,
1239,-0.805,-0.64,
1240,-0.8,-0.63,
1241,-0.79,-0.605,
1242,-0.79,-0.6,
1243,-0.79,-0.59,
1244,-0.79,-0.59,
1245,-0.775,-0.585,
1246,-0.77,-0.595,
1247,-0.77,-0.61,
1248,-0.775,-0.625,
1249,-0.78,-0.635,
1250,-0.79,-0.635,
1251,-0.78,-0.635,
1252,-0.775,-0.615,
1253,-0.765,-0.62,
1254,-0.77,-0.615,
1255,-0.765,-0.595,
1256,-0.765,-0.595,
1257,-0.76,-0.585,
1258,-0.755,-0.59,
1259,-0.765,-0.595,
1260,-0.765,-0.61,
1261,-0.755,-0.62,
1262,-0.765,-0.62,
1263,-0.755,-0.635,
1264,-0.755,-0.625,
1265,-0.75,-0.62,
1266,-0.75,-0.605,
1267,-0.745,-0.61,
1268,-0.74,-0.595,
1269,-0.73,-0.59,
1270,-0.725,-0.595,
1271,-0.725,-0.595,
1272,-0.73,-0.61,
1273,-0.735,-0.61,
1274,-0.745,-0.61,
1275,-0.74,-0.62,
1276,-0.74,-0.62,
1277,-0.73,-0.615,
1278,-0.725,-0.605,
1279,-0.73,-0.595,
1280,-0.715,-0.585,
1281,-0.71,-0.59,
1282,-0.715,-0.59,
1283,-0.71,-0.6,
1284,-0.725,-0.605,
1285,-0.715,-0.6,
1286,-0.715,-0.61,
1287,-0.72,-0.615,
1288,-0.725,-0.625,
1289,-0.715,-0.605,
1290,-0.715,-0.62,
1291,-0.705,-0.605,
1292,-0.7,-0.6,
1293,-0.685,-0.595,
1294,-0.68,-0.605,
1295,-0.68,-0.6,
1296,-0.68,-0.605,
1297,-0.69,-0.6,
1298,-0.685,-0.61,
1299,-0.69,-0.61,
1300,-0.695,-0.615,
1301,-0.695,-0.605,
1302,-0.68,-0.59,
1303,-0.675,-0.605,
1304,-0.665,-0.595,
1305,-0.65,-0.595,
1306,-0.66,-0.61,
1307,-0.65,-0.625,
1308,-0.66,-0.62,
1309,-0.665,-0.615,
1310,-0.66,-0.625,
1311,-0.67,-0.63,
1312,-0.67,-0.63,
1313,-0.67,-0.62,
1314,-0.675,-0.615,
1315,-0.665,-0.615,
1316,-0.665,-0.615,
1317,-0.665,-0.615,
1318,-0.665,-0.63,
1319,-0.665,-0.625,
1320,-0.68,-0.645,
1321,-0.685,-0.645,
1322,-0.7,-0.64,
1323,-0.71,-0.645,
1324,-0.715,-0.64,
1325,-0.72,-0.645,
1326,-0.72,-0.65,
1327,-0.715,-0.645,
1328,-0.72,-0.65,
1329,-0.72,-0.655,
1330,-0.745,-0.65,
1331,-0.75,-0.655,
1332,-0.77,-0.66,
1333,-0.775,-0.675,
1334,-0.8,-0.665,
1335,-0.82,-0.68,
1336,-0.82,-0.67,
1337,-0.81,-0.65,
1338,-0.82,-0.64,
1339,-0.82,-0.63,
1340,-0.82,-0.625,
1341,-0.82,-0.625,
1342,-0.83,-0.635,
1343,-0.825,-0.65,
1344,-0.835,-0.655,
1345,-0.85,-0.65,
1346,-0.85,-0.645,
1347,-0.86,-0.66,
1348,-0.845,-0.65,
1349,-0.835,-0.65,
1350,-0.835,-0.64,
1351,-0.835,-0.64,
1352,-0.83,-0.635,
1353,-0.835,-0.64,
1354,-0.84,-0.645,
1355,-0.835,-0.64,
1356,-0.835,-0.65,
1357,-0.845,-0.655,
1358,-0.835,-0.655,
1359,-0.855,-0.65,
1360,-0.84,-0.635,
1361,-0.835,-0.63,
1362,-0.845,-0.625,
1363,-0.83,-0.635,
1364,-0.855,-0.63,
1365,-0.855,-0.645,
1366,-0.835,-0.655,
1367,-0.845,-0.645,
1368,-0.84,-0.665,
1369,-0.845,-0.65,
1370,-0.85,-0.645,
1371,-0.86,-0.645,
1372,-0.86,-0.64,
1373,-0.87,-0.635,
1374,-0.865,-0.62,
1375,-0.855,-0.605,
1376,-0.845,-0.59,
1377,-0.845,-0.605,
1378,-0.85,-0.61,
1379,-0.85,-0.62,
1380,-0.855,-0.625,
1381,-0.87,-0.64,
1382,-0.89,-0.65,
1383,-0.885,-0.635,
1384,-0.885,-0.62,
1385,-0.89,-0.61,
1386,-0.88,-0.62,
1387,-0.88,-0.615,
1388,-0.855,-0.605,
1389,-0.855,-0.615,
1390,-0.855,-0.625,
1391,-0.87,-0.625,
1392,-0.865,-0.635,
1393,-0.875,-0.63,
1394,-0.875,-0.645,
1395,-0.87,-0.635,
1396,-0.885,-0.63,
1397,-0.885,-0.63,
1398,-0.885,-0.62,
1399,-0.88,-0.615,
1400,-0.87,-0.615,
1401,-0.86,-0.605,
1402,-0.855,-0.61,
1403,-0.85,-0.61,
1404,-0.865,-0.615,
1405,-0.875,-0.625,
1406,-0.885,-0.635,
1407,-0.89,-0.635,
1408,-0.885,-0.64,
1409,-0.87,-0.64,
1410,-0.87,-0.62,
1411,-0.855,-0.61,
1412,-0.865,-0.605,
1413,-0.85,-0.605,
1414,-0.85,-0.61,
1415,-0.845,-0.63,
1416,-0.845,-0.645,
1417,-0.855,-0.66,
1418,-0.855,-0.66,
1419,-0.87,-0.66,
1420,-0.865,-0.64,
1421,-0.865,-0.64,
1422,-0.845,-0.635,
1423,-0.845,-0.615,
1424,-0.835,-0.61,
1425,-0.82,-0.605,
1426,-0.815,-0.61,
1427,-0.82,-0.62,
1428,-0.84,-0.635,
1429,-0.835,-0.635,
1430,-0.84,-0.65,
1431,-0.835,-0.65,
1432,-0.835,-0.64,
1433,-0.83,-0.625,
1434,-0.825,-0.595,
1435,-0.82,-0.585,
1436,-0.8,-0.59,
1437,-0.8,-0.605,
1438,-0.81,-0.63,
1439,-0.81,-0.645,
1440,-0.81,-0.655,
1441,-0.815,-0.67,
1442,-0.815,-0.665,
1443,-0.83,-0.645,
1444,-0.82,-0.635,
1445,-0.83,-0.625,
1446,-0.815,-0.625,
1447,-0.81,-0.615,
1448,-0.79,-0.6,
1449,-0.78,-0.595,
1450,-0.78,-0.605,
1451,-0.79,-0.62,
1452,-0.79,-0.625,
1453,-0.805,-0.63,
1454,-0.805,-0.64,
1455,-0.81,-0.645,
1456,-0.805,-0.645,
1457,-0.815,-0.63,
1458,-0.795,-0.615,
1459,-0.785,-0.605,
1460,-0.775,-0.595,
1461,-0.77,-0.6,
1462,-0.78,-0.61,
1463,-0.775,-0.62,
1464,-0.79,-0.635,
1465,-0.79,-0.64,
1466,-0.785,-0.635,
1467,-0.8,-0.635,
1468,-0.805,-0.63,
1469,-0.81,-0.62,
1470,-0.795,-0.615,
1471,-0.785,-0.615,
1472,-0.765,-0.605,
1473,-0.77,-0.605,
1474,-0.765,-0.61,
1475,-0.78,-0.62,
1476,-0.775,-0.62,
1477,-0.785,-0.63,
1478,-0.8,-0.64,
1479,-0.8,-0.64,
1480,-0.805,-0.645,
1481,-0.785,-0.64,
1482,-0.775,-0.63,
1483,-0.765,-0.605,
1484,-0.75,-0.595,
1485,-0.745,-0.6,
1486,-0.75,-0.595,
1487,-0.75,-0.605,
1488,-0.75,-0.635,
1489,-0.755,-0.65,
1490,-0.765,-0.655,
1491,-0.775,-0.66,
1492,-0.78,-0.645,
1493,-0.77,-0.63,
1494,-0.765,-0.625,
1495,-0.76,-0.61,
1496,-0.755,-0.6,
1497,-0.735,-0.59,
1498,-0.74,-0.605,
1499,-0.74,-0.595,
1500,-0.745,-0.6,
1501,-0.745,-0.6,
1502,-0.745,-0.625,
1503,-0.76,-0.63,
1504,-0.75,-0.64,
1505,-0.755,-0.62,
1506,-0.735,-0.61,
1507,-0.72,-0.6,
1508,-0.71,-0.59,
1509,-0.695,-0.595,
1510,-0.695,-0.605,
1511,-0.705,-0.625,
1512,-0.705,-0.64,
1513,-0.72,-0.64,
1514,-0.705,-0.66,
1515,-0.705,-0.68,
1516,-0.7,-0.685,
1517,-0.695,-0.685,
1518,-0.685,-0.685,
1519,-0.675,-0.68,
1520,-0.675,-0.675,
1521,-0.67,-0.68,
1522,-0.665,-0.68,
1523,-0.685,-0.675,
1524,-0.695,-0.675,
1525,-0.695,-0.675,
1526,-0.695,-0.665,
1527,-0.685,-0.65,
1528,-0.69,-0.645,
1529,-0.68,-0.625,
1530,-0.67,-0.615,
1531,-0.675,-0.61,
1532,-0.685,-0.6,
1533,-0.68,-0.6,
1534,-0.695,-0.595,
1535,-0.715,-0.6,
1536,-0.715,-0.615,
1537,-0.73,-0.62,
1538,-0.735,-0.625,
1539,-0.74,-0.625,
1540,-0.75,-0.62,
1541,-0.745,-0.605,
1542,-0.735,-0.6,
1543,-0.73,-0.6,
1544,-0.72,-0.59,
1545,-0.715,-0.585,
1546,-0.7,-0.585,
1547,-0.715,-0.585,
1548,-0.725,-0.595,
1549,-0.715,-0.595,
1550,-0.725,-0.595,
1551,-0.73,-0.61,
1552,-0.725,-0.605,
1553,-0.72,-0.6,
1554,-0.695,-0.62,
1555,-0.68,-0.68,
1556,-0.65,-0.785,
1557,-0.585,-0.91,
1558,-0.515,-1.055,
1559,-0.415,-1.225,
1560,-0.3,-1.4,
1561,-0.17,-1.54,
1562,-0.035,-1.63,
1563,0.1,-1.645,
1564,0.205,-1.59,
1565,0.285,-1.49,
1566,0.34,-1.365,
1567,0.375,-1.225,
1568,0.4,-1.095,
1569,0.435,-0.975,N
1570,0.43,-0.875,
1571,0.405,-0.82,
1572,0.34,-0.75,
1573,0.27,-0.695,
1574,0.2,-0.66,
1575,0.13,-0.645,
1576,0.05,-0.625,
1577,-0.035,-0.62,
1578,-0.13,-0.61,
1579,-0.22,-0.57,
1580,-0.3,-0.545,
1581,-0.385,-0.52,
1582,-0.48,-0.515,
1583,-0.555,-0.535,
1584,-0.63,-0.585,
1585,-0.67,-0.605,
1586,-0.705,-0.62,
1587,-0.71,-0.61,
1588,-0.71,-0.58,
1589,-0.695,-0.56,
1590,-0.695,-0.54,
1591,-0.675,-0.53,
1592,-0.655,-0.53,
1593,-0.65,-0.535,
1594,-0.64,-0.54,
1595,-0.655,-0.555,
1596,-0.66,-0.555,
1597,-0.67,-0.56,
1598,-0.68,-0.57,
1599,-0.68,-0.565,
1600,-0.675,-0.54,
1601,-0.68,-0.535,
1602,-0.67,-0.53,
1603,-0.665,-0.515,
1604,-0.655,-0.525,
1605,-0.645,-0.53,
1606,-0.65,-0.55,
1607,-0.66,-0.555,
1608,-0.665,-0.57,
1609,-0.665,-0.56,
1610,-0.67,-0.575,
1611,-0.665,-0.555,
1612,-0.665,-0.545,
1613,-0.665,-0.54,
1614,-0.665,-0.54,
1615,-0.655,-0.54,
1616,-0.66,-0.55,
1617,-0.66,-0.535,
1618,-0.66,-0.56,
1619,-0.65,-0.56,
1620,-0.64,-0.56,
1621,-0.645,-0.545,
1622,-0.645,-0.535,
1623,-0.645,-0.53,
1624,-0.655,-0.54,
1625,-0.65,-0.56,
1626,-0.65,-0.585,
1627,-0.65,-0.61,
1628,-0.64,-0.59,
1629,-0.64,-0.58,
1630,-0.615,-0.57,
1631,-0.615,-0.545,
1632,-0.615,-0.555,
1633,-0.63,-0.56,
1634,-0.64,-0.57,
1635,-0.65,-0.565,
1636,-0.655,-0.565,
1637,-0.65,-0.56,
1638,-0.635,-0.545,
1639,-0.63,-0.535,
1640,-0.635,-0.52,
1641,-0.62,-0.52,
1642,-0.625,-0.545,
1643,-0.62,-0.57,
1644,-0.625,-0.58,
1645,-0.63,-0.59,
1646,-0.625,-0.59,
1647,-0.635,-0.575,
1648,-0.64,-0.565,
1649,-0.64,-0.55,
1650,-0.635,-0.545,
1651,-0.615,-0.545,
1652,-0.625,-0.54,
1653,-0.61,-0.56,
1654,-0.605,-0.56,
1655,-0.61,-0.56,
1656,-0.62,-0.59,
1657,-0.63,-0.59,
1658,-0.645,-0.595,
1659,-0.635,-0.59,
1660,-0.64,-0.585,
1661,-0.64,-0.565,
1662,-0.64,-0.545,
1663,-0.63,-0.55,
1664,-0.635,-0.545,
1665,-0.615,-0.55,
1666,-0.615,-0.55,
1667,-0.62,-0.55,
1668,-0.635,-0.565,
1669,-0.64,-0.56,
1670,-0.65,-0.565,
1671,-0.665,-0.565,
1672,-0.68,-0.555,
1673,-0.685,-0.595,
1674,-0.685,-0.625,
1675,-0.68,-0.645,
1676,-0.685,-0.63,
1677,-0.685,-0.615,
1678,-0.695,-0.605,
1679,-0.705,-0.575,
1680,-0.73,-0.575,
1681,-0.76,-0.565,
1682,-0.775,-0.58,
1683,-0.79,-0.61,
1684,-0.795,-0.615,
1685,-0.815,-0.63,
1686,-0.81,-0.63,
1687,-0.8,-0.61,
1688,-0.79,-0.6,
1689,-0.78,-0.58,
1690,-0.795,-0.565,
1691,-0.805,-0.57,
1692,-0.81,-0.595,
1693,-0.83,-0.605,
1694,-0.83,-0.61,
1695,-0.835,-0.62,
1696,-0.855,-0.6,
1697,-0.85,-0.585,
1698,-0.84,-0.58,
1699,-0.835,-0.575,
1700,-0.84,-0.58,
1701,-0.85,-0.585,
1702,-0.855,-0.6,
1703,-0.85,-0.6,
1704,-0.845,-0.625,
1705,-0.845,-0.63,
1706,-0.845,-0.63,
1707,-0.865,-0.63,
1708,-0.86,-0.615,
1709,-0.86,-0.595,
1710,-0.87,-0.585,
1711,-0.855,-0.585,
1712,-0.855,-0.57,
1713,-0.835,-0.575,
1714,-0.85,-0.555,
1715,-0.85,-0.545,
1716,-0.845,-0.54,
1717,-0.87,-0.555,
1718,-0.875,-0.56,
1719,-0.885,-0.605,
1720,-0.895,-0.63,
1721,-0.88,-0.645,
1722,-0.865,-0.64,
1723,-0.865,-0.605,
1724,-0.86,-0.58,
1725,-0.845,-0.575,
1726,-0.86,-0.59,
1727,-0.87,-0.59,
1728,-0.88,-0.6,
1729,-0.88,-0.615,
1730,-0.885,-0.615,
1731,-0.9,-0.605,
1732,-0.895,-0.615,
1733,-0.885,-0.565,
1734,-0.895,-0.545,
1735,-0.895,-0.545,
1736,-0.875,-0.555,
1737,-0.88,-0.575,
1738,-0.885,-0.58,
1739,-0.895,-0.585,
1740,-0.9,-0.58,
1741,-0.905,-0.58,
1742,-0.905,-0.595,
1743,-0.91,-0.635,
1744,-0.925,-0.64,
1745,-0.93,-0.64,
1746,-0.905,-0.63,
1747,-0.91,-0.615,
1748,-0.895,-0.58,
1749,-0.9,-0.55,
1750,-0.91,-0.555,
1751,-0.915,-0.56,
1752,-0.9,-0.575,
1753,-0.91,-0.595,
1754,-0.92,-0.625,
1755,-0.95,-0.64,
1756,-0.955,-0.63,
1757,-0.94,-0.63,
1758,-0.935,-0.61,
1759,-0.925,-0.605,
1760,-0.935,-0.59,
1761,-0.915,-0.57,
1762,-0.92,-0.58,
1763,-0.915,-0.6,
1764,-0.93,-0.605,
1765,-0.935,-0.61,
1766,-0.94,-0.605,
1767,-0.945,-0.615,
1768,-0.935,-0.615,
1769,-0.94,-0.615,
1770,-0.935,-0.615,
1771,-0.935,-0.61,
1772,-0.925,-0.6,
1773,-0.91,-0.575,
1774,-0.915,-0.58,
1775,-0.935,-0.595,
1776,-0.925,-0.605,
1777,-0.915,-0.615,
1778,-0.925,-0.62,
1779,-0.925,-0.625,
1780,-0.925,-0.615,
1781,-0.93,-0.61,
1782,-0.91,-0.605,
1783,-0.92,-0.6,
1784,-0.92,-0.6,
1785,-0.91,-0.605,
1786,-0.905,-0.615,
1787,-0.91,-0.615,
1788,-0.92,-0.625,
1789,-0.92,-0.64,
1790,-0.92,-0.625,
1791,-0.93,-0.63,
1792,-0.925,-0.63,
1793,-0.925,-0.605,
1794,-0.915,-0.605,
1795,-0.91,-0.61,
1796,-0.905,-0.61,
1797,-0.895,-0.6,
1798,-0.895,-0.59,
1799,-0.91,-0.595,
1800,-0.915,-0.595,
1801,-0.93,-0.605,
1802,-0.935,-0.625,
1803,-0.935,-0.64,
1804,-0.94,-0.645,
1805,-0.93,-0.63,
1806,-0.925,-0.615,
1807,-0.91,-0.615,
1808,-0.91,-0.58,
1809,-0.89,-0.585,
1810,-0.89,-0.59,
1811,-0.905,-0.595,
1812,-0.91,-0.62,
1813,-0.905,-0.64,
1814,-0.915,-0.645,
1815,-0.92,-0.65,
1816,-0.935,-0.64,
1817,-0.94,-0.625,
1818,-0.925,-0.605,
1819,-0.91,-0.595,
1820,-0.905,-0.595,
1821,-0.895,-0.605,
1822,-0.89,-0.63,
1823,-0.895,-0.625,
1824,-0.9,-0.63,
1825,-0.895,-0.625,
1826,-0.895,-0.62,
1827,-0.9,-0.64,
1828,-0.905,-0.645,
1829,-0.905,-0.65,
1830,-0.895,-0.625,
1831,-0.89,-0.615,
1832,-0.885,-0.6,
1833,-0.89,-0.6,
1834,-0.88,-0.61,
1835,-0.895,-0.595,
1836,-0.915,-0.615,
1837,-0.905,-0.62,
1838,-0.92,-0.625,
1839,-0.92,-0.615,
1840,-0.915,-0.63,
1841,-0.915,-0.625,
1842,-0.905,-0.61,
1843,-0.9,-0.61,
1844,-0.895,-0.6,
1845,-0.885,-0.59,
1846,-0.87,-0.6,
1847,-0.88,-0.585,
1848,-0.89,-0.59,
1849,-0.885,-0.595,
1850,-0.885,-0.61,
1851,-0.895,-0.64,
1852,-0.895,-0.645,
1853,-0.9,-0.64,
1854,-0.9,-0.63,
1855,-0.895,-0.625,
1856,-0.9,-0.6,
1857,-0.88,-0.595,
1858,-0.85,-0.58,
1859,-0.845,-0.59,
1860,-0.845,-0.595,
1861,-0.845,-0.615,
1862,-0.84,-0.61,
1863,-0.845,-0.615,
1864,-0.85,-0.63,
1865,-0.85,-0.65,
1866,-0.85,-0.675,
1867,-0.835,-0.7,
1868,-0.825,-0.685,
1869,-0.805,-0.69,
1870,-0.805,-0.665,
1871,-0.81,-0.655,
1872,-0.81,-0.665,
1873,-0.825,-0.68,
1874,-0.83,-0.68,
1875,-0.84,-0.695,
1876,-0.855,-0.68,
1877,-0.855,-0.66,
1878,-0.835,-0.645,
1879,-0.835,-0.65,
1880,-0.825,-0.645,
1881,-0.8,-0.635,
1882,-0.81,-0.635,
1883,-0.815,-0.615,
1884,-0.815,-0.62,
1885,-0.83,-0.61,
1886,-0.84,-0.605,
1887,-0.835,-0.605,
1888,-0.855,-0.625,
1889,-0.875,-0.61,
1890,-0.86,-0.63,
1891,-0.885,-0.64,
1892,-0.885,-0.625,
1893,-0.875,-0.61,
1894,-0.87,-0.6,
1895,-0.86,-0.6,
1896,-0.86,-0.595,
1897,-0.865,-0.595,
1898,-0.875,-0.59,
1899,-0.87,-0.6,
1900,-0.885,-0.595,
1901,-0.885,-0.6,
1902,-0.88,-0.605,
1903,-0.865,-0.605,
1904,-0.855,-0.59,
1905,-0.835,-0.575,
1906,-0.835,-0.575,
1907,-0.83,-0.575,
1908,-0.83,-0.595,
1909,-0.82,-0.655,
1910,-0.8,-0.76,
1911,-0.77,-0.885,
1912,-0.705,-1.05,
1913,-0.62,-1.215,
1914,-0.51,-1.37,
1915,-0.365,-1.51,
1916,-0.235,-1.585,
1917,-0.105,-1.605,
1918,0.015,-1.58,
1919,0.1,-1.49,
1920,0.155,-1.39,
1921,0.205,-1.28,
1922,0.215,-1.16,
1923,0.24,-1.075,
1924,0.245,-0.995,N
1925,0.245,-0.92,
1926,0.22,-0.845,
1927,0.175,-0.77,
1928,0.125,-0.71,
1929,0.075,-0.645,
1930,0.02,-0.615,
1931,-0.045,-0.595,
1932,-0.13,-0.595,
1933,-0.22,-0.59,
1934,-0.3,-0.6,
1935,-0.39,-0.59,
1936,-0.485,-0.59,
1937,-0.575,-0.59,
1938,-0.645,-0.58,
1939,-0.71,-0.58,
1940,-0.755,-0.55,
1941,-0.78,-0.55,
1942,-0.805,-0.535,
1943,-0.805,-0.535,
1944,-0.815,-0.535,
1945,-0.805,-0.545,
1946,-0.82,-0.565,
1947,-0.825,-0.565,
1948,-0.825,-0.57,
1949,-0.825,-0.565,
1950,-0.82,-0.55,
1951,-0.815,-0.54,
1952,-0.805,-0.525,
1953,-0.8,-0.515,
1954,-0.805,-0.51,
1955,-0.805,-0.51,
1956,-0.805,-0.52,
1957,-0.795,-0.52,
1958,-0.81,-0.545,
1959,-0.815,-0.56,
1960,-0.805,-0.565,
1961,-0.815,-0.575,
1962,-0.795,-0.565,
1963,-0.79,-0.55,
1964,-0.785,-0.555,
1965,-0.785,-0.545,
1966,-0.775,-0.54,
1967,-0.765,-0.545,
1968,-0.765,-0.54,
1969,-0.775,-0.545,
1970,-0.78,-0.55,
1971,-0.785,-0.555,
1972,-0.785,-0.565,
1973,-0.78,-0.55,
1974,-0.785,-0.54,
1975,-0.775,-0.53,
1976,-0.775,-0.505,
1977,-0.745,-0.5,
1978,-0.74,-0.53,
1979,-0.74,-0.555,
1980,-0.745,-0.57,
1981,-0.755,-0.575,
1982,-0.77,-0.585,
1983,-0.76,-0.56,
1984,-0.755,-0.54,
1985,-0.755,-0.53,
1986,-0.75,-0.525,
1987,-0.745,-0.54,
1988,-0.74,-0.55,
1989,-0.72,-0.555,
1990,-0.72,-0.55,
1991,-0.725,-0.55,
1992,-0.74,-0.545,
1993,-0.74,-0.545,
1994,-0.735,-0.555,
1995,-0.74,-0.57,
1996,-0.735,-0.575,
1997,-0.75,-0.58,
1998,-0.735,-0.57,
1999,-0.725,-0.545,
2000,-0.71,-0.53,
2001,-0.695,-0.52,
2002,-0.685,-0.525,
2003,-0.685,-0.53,
2004,-0.705,-0.535,
2005,-0.715,-0.54,
2006,-0.72,-0.565,
2007,-0.715,-0.57,
2008,-0.71,-0.565,
2009,-0.71,-0.55,
2010,-0.7,-0.54,
2011,-0.69,-0.525,
2012,-0.68,-0.515,
2013,-0.67,-0.51,
2014,-0.67,-0.525,
2015,-0.665,-0.53,
2016,-0.68,-0.56,
2017,-0.68,-0.57,
2018,-0.685,-0.575,
2019,-0.685,-0.585,
2020,-0.685,-0.575,
2021,-0.695,-0.57,
2022,-0.69,-0.585,
2023,-0.69,-0.585,
2024,-0.695,-0.585,
2025,-0.685,-0.565,
2026,-0.68,-0.585,
2027,-0.69,-0.575,
2028,-0.695,-0.565,
2029,-0.7,-0.56,
2030,-0.72,-0.57,
2031,-0.72,-0.58,
2032,-0.74,-0.595,
2033,-0.76,-0.59,
2034,-0.755,-0.58,
2035,-0.75,-0.575,
2036,-0.755,-0.57,
2037,-0.75,-0.565,
2038,-0.765,-0.575,
2039,-0.78,-0.59,
2040,-0.79,-0.61,
2041,-0.795,-0.61,
2042,-0.805,-0.615,
2043,-0.82,-0.61,
2044,-0.825,-0.61,
2045,-0.835,-0.59,
2046,-0.835,-0.585,
2047,-0.85,-0.58,
2048,-0.845,-0.57,
2049,-0.835,-0.57,
2050,-0.84,-0.565,
2051,-0.855,-0.575,
2052,-0.865,-0.58,
2053,-0.87,-0.59,
2054,-0.875,-0.59,
2055,-0.88,-0.59,
2056,-0.895,-0.595,
2057,-0.9,-0.58,
2058,-0.895,-0.565,
2059,-0.89,-0.565,
2060,-0.885,-0.565,
2061,-0.865,-0.57,
2062,-0.86,-0.585,
2063,-0.845,-0.59,
2064,-0.85,-0.605,
2065,-0.845,-0.6,
2066,-0.875,-0.605,
2067,-0.88,-0.595,
2068,-0.875,-0.585,
2069,-0.87,-0.58,
2070,-0.865,-0.58,
2071,-0.86,-0.575,
2072,-0.85,-0.56,
2073,-0.84,-0.58,
2074,-0.845,-0.575,
2075,-0.845,-0.59,
2076,-0.85,-0.59,
2077,-0.855,-0.605,
2078,-0.86,-0.585,
2079,-0.865,-0.595,
2080,-0.875,-0.585,
2081,-0.87,-0.575,
2082,-0.875,-0.58,
2083,-0.88,-0.57,
2084,-0.87,-0.56,
2085,-0.865,-0.56,
2086,-0.86,-0.56,
2087,-0.86,-0.55,
2088,-0.86,-0.555,
2089,-0.88,-0.57,
2090,-0.88,-0.58,
2091,-0.89,-0.6,
2092,-0.895,-0.605,
2093,-0.9,-0.605,
2094,-0.89,-0.585,
2095,-0.895,-0.565,
2096,-0.885,-0.55,
2097,-0.875,-0.55,
2098,-0.885,-0.55,
2099,-0.885,-0.56,
2100,-0.895,-0.58,
2101,-0.895,-0.6,
2102,-0.9,-0.605,
2103,-0.915,-0.6,
2104,-0.915,-0.585,
2105,-0.92,-0.57,
2106,-0.92,-0.575,
2107,-0.91,-0.57,
2108,-0.9,-0.57,
2109,-0.895,-0.555,
2110,-0.875,-0.57,
2111,-0.88,-0.575,
2112,-0.88,-0.58,
2113,-0.88,-0.575,
2114,-0.88,-0.59,
2115,-0.9,-0.6,
2116,-0.915,-0.59,
2117,-0.905,-0.59,
2118,-0.9,-0.58,
2119,-0.89,-0.58,
2120,-0.89,-0.57,
2121,-0.875,-0.57,
2122,-0.875,-0.57,
2123,-0.87,-0.57,
2124,-0.87,-0.585,
2125,-0.895,-0.59,
2126,-0.89,-0.6,
2127,-0.88,-0.61,
2128,-0.895,-0.595,
2129,-0.89,-0.585,
2130,-0.885,-0.585,
2131,-0.88,-0.57,
2132,-0.88,-0.57,
2133,-0.88,-0.565,
2134,-0.87,-0.575,
2135,-0.87,-0.58,
2136,-0.865,-0.585,
2137,-0.87,-0.59,
2138,-0.865,-0.6,
2139,-0.87,-0.6,
2140,-0.875,-0.595,
2141,-0.88,-0.6,
2142,-0.865,-0.585,
2143,-0.87,-0.575,
2144,-0.85,-0.575,
2145,-0.85,-0.56,
2146,-0.85,-0.575,
2147,-0.85,-0.58,
2148,-0.85,-0.585,
2149,-0.87,-0.6,
2150,-0.875,-0.595,
2151,-0.86,-0.6,
2152,-0.875,-0.59,
2153,-0.865,-0.59,
2154,-0.855,-0.59,
2155,-0.855,-0.575,
2156,-0.845,-0.57,
2157,-0.835,-0.585,
2158,-0.83,-0.59,
2159,-0.835,-0.58,
2160,-0.845,-0.585,
2161,-0.84,-0.585,
2162,-0.85,-0.595,
2163,-0.87,-0.595,
2164,-0.865,-0.595,
2165,-0.865,-0.595,
2166,-0.845,-0.59,
2167,-0.84,-0.57,
2168,-0.84,-0.565,
2169,-0.83,-0.57,
2170,-0.82,-0.58,
2171,-0.825,-0.575,
2172,-0.83,-0.585,
2173,-0.835,-0.6,
2174,-0.86,-0.6,
2175,-0.86,-0.605,
2176,-0.855,-0.605,
2177,-0.85,-0.59,
2178,-0.835,-0.58,
2179,-0.82,-0.58,
2180,-0.815,-0.575,
2181,-0.81,-0.58,
2182,-0.82,-0.58,
2183,-0.825,-0.575,
2184,-0.82,-0.585,
2185,-0.825,-0.59,
2186,-0.82,-0.59,
2187,-0.825,-0.605,
2188,-0.84,-0.59,
2189,-0.845,-0.585,
2190,-0.845,-0.585,
2191,-0.83,-0.57,
2192,-0.835,-0.56,
2193,-0.82,-0.555,
2194,-0.82,-0.55,
2195,-0.8,-0.555,
2196,-0.81,-0.58,
2197,-0.81,-0.585,
2198,-0.82,-0.585,
2199,-0.84,-0.6,
2200,-0.835,-0.58,
2201,-0.85,-0.57,
2202,-0.83,-0.57,
2203,-0.82,-0.565,
2204,-0.81,-0.555,
2205,-0.805,-0.545,
2206,-0.825,-0.56,
2207,-0.815,-0.57,
2208,-0.825,-0.595,
2209,-0.83,-0.58,
2210,-0.825,-0.58,
2211,-0.835,-0.57,
2212,-0.84,-0.57,
2213,-0.815,-0.565,
2214,-0.81,-0.56,
2215,-0.815,-0.565,
2216,-0.805,-0.555,
2217,-0.78,-0.545,
2218,-0.765,-0.55,
2219,-0.745,-0.545,
2220,-0.735,-0.56,
2221,-0.74,-0.575,
2222,-0.755,-0.595,
2223,-0.77,-0.615,
2224,-0.775,-0.635,
2225,-0.78,-0.65,
2226,-0.77,-0.65,
2227,-0.75,-0.65,
2228,-0.735,-0.63,
2229,-0.725,-0.62,
2230,-0.72,-0.625,
2231,-0.73,-0.62,
2232,-0.725,-0.625,
2233,-0.74,-0.625,
2234,-0.745,-0.64,
2235,-0.75,-0.64,
2236,-0.76,-0.625,
2237,-0.75,-0.6,
2238,-0.74,-0.59,
2239,-0.71,-0.58,
2240,-0.7,-0.575,
2241,-0.7,-0.58,
2242,-0.7,-0.595,
2243,-0.695,-0.595,
2244,-0.695,-0.59,
2245,-0.695,-0.59,
2246,-0.725,-0.58,
2247,-0.735,-0.585,
2248,-0.735,-0.585,
2249,-0.755,-0.58,
2250,-0.745,-0.565,
2251,-0.745,-0.575,
2252,-0.745,-0.55,
2253,-0.735,-0.555,
2254,-0.73,-0.55,
2255,-0.73,-0.565,
2256,-0.725,-0.57,
2257,-0.73,-0.575,
2258,-0.735,-0.57,
2259,-0.73,-0.575,
2260,-0.74,-0.57,
2261,-0.74,-0.58,
2262,-0.73,-0.565,
2263,-0.73,-0.545,
2264,-0.72,-0.525,
2265,-0.71,-0.52,
2266,-0.69,-0.52,
2267,-0.685,-0.535,
2268,-0.67,-0.565,
2269,-0.66,-0.65,
2270,-0.64,-0.78,
2271,-0.6,-0.945,
2272,-0.515,-1.15,
2273,-0.4,-1.34,
2274,-0.245,-1.515,
2275,-0.08,-1.615,
2276,0.065,-1.64,
2277,0.2,-1.58,
2278,0.3,-1.455,
2279,0.355,-1.3,
2280,0.39,-1.155,
2281,0.41,-1.03,
2282,0.41,-0.925,
2283,0.41,-0.86,N
2284,0.395,-0.78,
2285,0.375,-0.715,
2286,0.32,-0.64,
2287,0.26,-0.59,
2288,0.21,-0.55,
2289,0.145,-0.52,
2290,0.055,-0.515,
2291,-0.06,-0.515,
2292,-0.17,-0.515,
2293,-0.295,-0.525,
2294,-0.405,-0.54,
2295,-0.5,-0.53,
2296,-0.585,-0.52,
2297,-0.615,-0.5,
2298,-0.655,-0.475,
2299,-0.655,-0.475,
2300,-0.645,-0.475,
2301,-0.635,-0.475,
2302,-0.645,-0.49,
2303,-0.645,-0.505,
2304,-0.64,-0.515,
2305,-0.64,-0.515,
2306,-0.66,-0.505,
2307,-0.665,-0.505,
2308,-0.665,-0.51,
2309,-0.655,-0.5,
2310,-0.66,-0.485,
2311,-0.66,-0.475,
2312,-0.635,-0.46,
2313,-0.62,-0.455,
2314,-0.62,-0.455,
2315,-0.62,-0.465,
2316,-0.63,-0.475,
2317,-0.63,-0.485,
2318,-0.64,-0.485,
2319,-0.66,-0.49,
2320,-0.645,-0.495,
2321,-0.645,-0.485,
2322,-0.635,-0.48,
2323,-0.635,-0.475,
2324,-0.615,-0.46,
2325,-0.6,-0.455,
2326,-0.595,-0.46,
2327,-0.605,-0.465,
2328,-0.6,-0.47,
2329,-0.6,-0.47,
2330,-0.61,-0.475,
2331,-0.62,-0.48,
2332,-0.625,-0.47,
2333,-0.625,-0.475,
2334,-0.625,-0.465,
2335,-0.61,-0.47,
2336,-0.605,-0.465,
2337,-0.585,-0.47,
2338,-0.57,-0.475,
2339,-0.56,-0.47,
2340,-0.56,-0.485,
2341,-0.555,-0.48,
2342,-0.56,-0.475,
2343,-0.575,-0.49,
2344,-0.585,-0.48,
2345,-0.57,-0.48,
2346,-0.57,-0.475,
2347,-0.56,-0.475,
2348,-0.56,-0.475,
2349,-0.555,-0.45,
2350,-0.545,-0.455,
2351,-0.55,-0.46,
2352,-0.53,-0.465,
2353,-0.535,-0.475,
2354,-0.54,-0.475,
2355,-0.535,-0.46,
2356,-0.545,-0.465,
2357,-0.545,-0.48,
2358,-0.545,-0.475,
2359,-0.54,-0.475,
2360,-0.54,-0.47,
2361,-0.53,-0.47,
2362,-0.515,-0.465,
2363,-0.52,-0.47,
2364,-0.505,-0.465,
2365,-0.505,-0.465,
2366,-0.51,-0.47,
2367,-0.515,-0.49,
2368,-0.52,-0.485,
2369,-0.52,-0.49,
2370,-0.52,-0.485,
2371,-0.51,-0.465,
2372,-0.51,-0.475,
2373,-0.5,-0.46,
2374,-0.49,-0.465,
2375,-0.485,-0.465,
2376,-0.475,-0.46,
2377,-0.49,-0.475,
2378,-0.485,-0.485,
2379,-0.5,-0.5,
2380,-0.515,-0.52,
2381,-0.525,-0.53,
2382,-0.53,-0.54,
2383,-0.52,-0.535,
2384,-0.505,-0.515,
2385,-0.495,-0.5,
2386,-0.485,-0.505,
2387,-0.495,-0.49,
2388,-0.515,-0.49,
2389,-0.535,-0.505,
2390,-0.545,-0.515,
2391,-0.55,-0.51,
2392,-0.555,-0.505,
2393,-0.55,-0.515,
2394,-0.555,-0.535,
2395,-0.555,-0.555,
2396,-0.55,-0.565,
2397,-0.55,-0.56,
2398,-0.56,-0.55,
2399,-0.56,-0.535,
2400,-0.585,-0.51,
2401,-0.605,-0.5,
2402,-0.61,-0.51,
2403,-0.62,-0.53,
2404,-0.635,-0.52,
2405,-0.64,-0.53,
2406,-0.655,-0.515,
2407,-0.645,-0.53,
2408,-0.66,-0.55,
2409,-0.66,-0.55,
2410,-0.655,-0.58,
2411,-0.65,-0.58,
2412,-0.655,-0.57,
2413,-0.66,-0.57,
2414,-0.665,-0.56,
2415,-0.685,-0.535,
2416,-0.695,-0.53,
2417,-0.69,-0.53,
2418,-0.69,-0.5,
2419,-0.675,-0.49,
2420,-0.665,-0.5,
2421,-0.66,-0.505,
2422,-0.64,-0.545,
2423,-0.65,-0.55,
2424,-0.64,-0.55,
2425,-0.65,-0.55,
2426,-0.66,-0.52,
2427,-0.67,-0.505,
2428,-0.68,-0.49,
2429,-0.67,-0.47,
2430,-0.68,-0.485,
2431,-0.67,-0.495,
2432,-0.665,-0.52,
2433,-0.66,-0.51,
2434,-0.655,-0.53,
2435,-0.655,-0.53,
2436,-0.665,-0.565,
2437,-0.665,-0.565,
2438,-0.68,-0.585,
2439,-0.69,-0.575,
2440,-0.69,-0.575,
2441,-0.685,-0.55,
2442,-0.68,-0.525,
2443,-0.66,-0.505,
2444,-0.66,-0.5,
2445,-0.665,-0.49,
2446,-0.66,-0.525,
2447,-0.665,-0.54,
2448,-0.675,-0.545,
2449,-0.675,-0.55,
2450,-0.675,-0.545,
2451,-0.69,-0.535,
2452,-0.695,-0.54,
2453,-0.7,-0.53,
2454,-0.705,-0.52,
2455,-0.725,-0.51,
2456,-0.715,-0.5,
2457,-0.705,-0.495,
2458,-0.705,-0.51,
2459,-0.7,-0.52,
2460,-0.705,-0.52,
2461,-0.72,-0.535,
2462,-0.725,-0.54,
2463,-0.725,-0.54,
2464,-0.73,-0.54,
2465,-0.72,-0.545,
2466,-0.71,-0.53,
2467,-0.72,-0.525,
2468,-0.715,-0.515,
2469,-0.705,-0.51,
2470,-0.705,-0.51,
2471,-0.705,-0.51,
2472,-0.71,-0.52,
2473,-0.715,-0.535,
2474,-0.72,-0.53,
2475,-0.715,-0.54,
2476,-0.725,-0.545,
2477,-0.735,-0.545,
2478,-0.72,-0.525,
2479,-0.72,-0.535,
2480,-0.7,-0.52,
2481,-0.695,-0.515,
2482,-0.695,-0.525,
2483,-0.695,-0.53,
2484,-0.7,-0.525,
2485,-0.71,-0.54,
2486,-0.705,-0.55,
2487,-0.72,-0.56,
2488,-0.715,-0.555,
2489,-0.715,-0.56,
2490,-0.705,-0.55,
2491,-0.69,-0.54,
2492,-0.69,-0.53,
2493,-0.685,-0.515,
2494,-0.68,-0.54,
2495,-0.695,-0.545,
2496,-0.685,-0.55,
2497,-0.685,-0.56,
2498,-0.695,-0.56,
2499,-0.695,-0.555,
2500,-0.7,-0.555,
2501,-0.69,-0.55,
2502,-0.695,-0.54,
2503,-0.695,-0.545,
2504,-0.69,-0.54,
2505,-0.68,-0.535,
2506,-0.675,-0.545,
2507,-0.675,-0.555,
2508,-0.675,-0.56,
2509,-0.68,-0.575,
2510,-0.675,-0.57,
2511,-0.68,-0.575,
2512,-0.685,-0.57,
2513,-0.685,-0.57,
2514,-0.685,-0.55,
2515,-0.68,-0.555,
2516,-0.68,-0.555,
2517,-0.67,-0.54,
2518,-0.665,-0.545,
2519,-0.67,-0.545,
2520,-0.66,-0.55,
2521,-0.665,-0.555,
2522,-0.675,-0.56,
2523,-0.68,-0.565,
2524,-0.69,-0.57,
2525,-0.69,-0.565,
2526,-0.68,-0.55,
2527,-0.665,-0.555,
2528,-0.66,-0.55,
2529,-0.665,-0.545,
2530,-0.655,-0.545,
2531,-0.665,-0.555,
2532,-0.67,-0.555,
2533,-0.675,-0.57,
2534,-0.675,-0.575,
2535,-0.705,-0.57,
2536,-0.71,-0.565,
2537,-0.695,-0.575,
2538,-0.695,-0.57,
2539,-0.695,-0.565,
2540,-0.685,-0.55,
2541,-0.665,-0.54,
2542,-0.66,-0.54,
2543,-0.665,-0.55,
2544,-0.67,-0.55,
2545,-0.695,-0.555,
2546,-0.69,-0.57,
2547,-0.69,-0.575,
2548,-0.7,-0.575,
2549,-0.69,-0.58,
2550,-0.69,-0.565,
2551,-0.68,-0.555,
2552,-0.675,-0.555,
2553,-0.68,-0.545,
2554,-0.675,-0.55,
2555,-0.67,-0.565,
2556,-0.665,-0.565,
2557,-0.67,-0.565,
2558,-0.67,-0.57,
2559,-0.695,-0.575,
2560,-0.705,-0.58,
2561,-0.7,-0.58,
2562,-0.695,-0.57,
2563,-0.69,-0.565,
2564,-0.68,-0.56,
2565,-0.675,-0.55,
2566,-0.675,-0.545,
2567,-0.67,-0.555,
2568,-0.685,-0.565,
2569,-0.68,-0.585,
2570,-0.675,-0.575,
2571,-0.685,-0.575,
2572,-0.69,-0.57,
2573,-0.685,-0.565,
2574,-0.68,-0.55,
2575,-0.68,-0.55,
2576,-0.685,-0.54,
2577,-0.66,-0.53,
2578,-0.645,-0.54,
2579,-0.645,-0.55,
2580,-0.625,-0.545,
2581,-0.62,-0.56,
2582,-0.62,-0.565,
2583,-0.63,-0.59,
2584,-0.63,-0.595,
2585,-0.635,-0.605,
2586,-0.635,-0.625,
2587,-0.635,-0.645,
2588,-0.625,-0.635,
2589,-0.615,-0.64,
2590,-0.605,-0.64,
2591,-0.61,-0.63,
2592,-0.61,-0.63,
2593,-0.62,-0.625,
2594,-0.63,-0.63,
2595,-0.63,-0.63,
2596,-0.645,-0.635,
2597,-0.64,-0.63,
2598,-0.635,-0.615,
2599,-0.62,-0.605,
2600,-0.625,-0.59,
2601,-0.6,-0.585,
2602,-0.61,-0.575,
2603,-0.605,-0.575,
2604,-0.615,-0.57,
2605,-0.63,-0.57,
2606,-0.65,-0.575,
2607,-0.66,-0.575,
2608,-0.67,-0.575,
2609,-0.67,-0.585,
2610,-0.68,-0.575,
2611,-0.685,-0.57,
2612,-0.68,-0.56,
2613,-0.675,-0.545,
2614,-0.675,-0.555,
2615,-0.675,-0.555,
2616,-0.685,-0.56,
2617,-0.705,-0.57,
2618,-0.71,-0.57,
2619,-0.715,-0.585,
2620,-0.72,-0.585,
2621,-0.705,-0.575,
2622,-0.69,-0.56,
2623,-0.68,-0.54,
2624,-0.675,-0.525,
2625,-0.65,-0.51,
2626,-0.65,-0.5,
2627,-0.655,-0.525,
2628,-0.65,-0.57,
2629,-0.645,-0.66,
2630,-0.635,-0.785,
2631,-0.595,-0.955,
2632,-0.53,-1.145,
2633,-0.435,-1.375,
2634,-0.315,-1.575,
2635,-0.17,-1.745,
2636,-0.02,-1.82,
2637,0.115,-1.765,
2638,0.22,-1.61,
2639,0.275,-1.405,
2640,0.345,-1.2,
2641,0.395,-1.025,
2642,0.425,-0.9,N
2643,0.4,-0.79,
2644,0.36,-0.71,
2645,0.29,-0.64,
2646,0.21,-0.585,
2647,0.12,-0.55,
2648,0.04,-0.535,
2649,-0.055,-0.525,
2650,-0.155,-0.535,
2651,-0.26,-0.525,
2652,-0.35,-0.52,
2653,-0.45,-0.53,
2654,-0.52,-0.515,
2655,-0.57,-0.515,
2656,-0.63,-0.525,
2657,-0.665,-0.52,
2658,-0.675,-0.5,
2659,-0.67,-0.495,
2660,-0.665,-0.485,
2661,-0.67,-0.47,
2662,-0.655,-0.475,
2663,-0.65,-0.485,
2664,-0.65,-0.47,
2665,-0.64,-0.49,
2666,-0.65,-0.495,
2667,-0.66,-0.485,
2668,-0.665,-0.495,
2669,-0.655,-0.49,
2670,-0.66,-0.48,
2671,-0.645,-0.48,
2672,-0.64,-0.46,
2673,-0.63,-0.45,
2674,-0.625,-0.455,
2675,-0.62,-0.47,
2676,-0.63,-0.465,
2677,-0.645,-0.475,
2678,-0.65,-0.48,
2679,-0.655,-0.485,
2680,-0.655,-0.49,
2681,-0.65,-0.485,
2682,-0.645,-0.47,
2683,-0.64,-0.46,
2684,-0.625,-0.455,
2685,-0.625,-0.45,
2686,-0.615,-0.455,
2687,-0.615,-0.47,
2688,-0.615,-0.465,
2689,-0.62,-0.475,
2690,-0.63,-0.48,
2691,-0.625,-0.48,
2692,-0.625,-0.475,
2693,-0.635,-0.465,
2694,-0.63,-0.465,
2695,-0.625,-0.465,
2696,-0.62,-0.455,
2697,-0.62,-0.455,
2698,-0.605,-0.47,
2699,-0.61,-0.46,
2700,-0.6,-0.47,
2701,-0.62,-0.465,
2702,-0.61,-0.475,
2703,-0.61,-0.475,
2704,-0.63,-0.475,
2705,-0.625,-0.475,
2706,-0.625,-0.48,
2707,-0.615,-0.465,
2708,-0.61,-0.455,
2709,-0.595,-0.45,
2710,-0.59,-0.455,
2711,-0.58,-0.46,
2712,-0.585,-0.47,
2713,-0.59,-0.475,
2714,-0.6,-0.475,
2715,-0.6,-0.485,
2716,-0.605,-0.48,
2717,-0.59,-0.485,
2718,-0.595,-0.48,
2719,-0.585,-0.46,
2720,-0.565,-0.475,
2721,-0.565,-0.45,
2722,-0.565,-0.455,
2723,-0.56,-0.46,
2724,-0.585,-0.47,
2725,-0.585,-0.465,
2726,-0.565,-0.485,
2727,-0.57,-0.475,
2728,-0.59,-0.485,
2729,-0.58,-0.485,
2730,-0.58,-0.465,
2731,-0.575,-0.475,
2732,-0.575,-0.475,
2733,-0.57,-0.475,
2734,-0.57,-0.47,
2735,-0.555,-0.485,
2736,-0.555,-0.495,
2737,-0.55,-0.51,
2738,-0.565,-0.515,
2739,-0.575,-0.515,
2740,-0.585,-0.51,
2741,-0.595,-0.525,
2742,-0.595,-0.51,
2743,-0.59,-0.5,
2744,-0.59,-0.5,
2745,-0.585,-0.505,
2746,-0.59,-0.515,
2747,-0.6,-0.52,
2748,-0.6,-0.535,
2749,-0.615,-0.545,
2750,-0.625,-0.555,
2751,-0.64,-0.55,
2752,-0.65,-0.555,
2753,-0.67,-0.55,
2754,-0.675,-0.54,
2755,-0.67,-0.545,
2756,-0.67,-0.555,
2757,-0.665,-0.535,
2758,-0.675,-0.535,
2759,-0.675,-0.545,
2760,-0.685,-0.545,
2761,-0.705,-0.545,
2762,-0.72,-0.575,
2763,-0.735,-0.565,
2764,-0.745,-0.57,
2765,-0.745,-0.57,
2766,-0.745,-0.56,
2767,-0.745,-0.545,
2768,-0.745,-0.545,
2769,-0.735,-0.54,
2770,-0.74,-0.555,
2771,-0.75,-0.545,
2772,-0.755,-0.56,
2773,-0.76,-0.56,
2774,-0.76,-0.56,
2775,-0.775,-0.565,
2776,-0.79,-0.565,
2777,-0.775,-0.55,
2778,-0.785,-0.55,
2779,-0.78,-0.555,
2780,-0.765,-0.53,
2781,-0.77,-0.53,
2782,-0.77,-0.525,
2783,-0.765,-0.53,
2784,-0.77,-0.54,
2785,-0.775,-0.535,
2786,-0.785,-0.545,
2787,-0.79,-0.54,
2788,-0.795,-0.56,
2789,-0.805,-0.55,
2790,-0.805,-0.54,
2791,-0.795,-0.535,
2792,-0.79,-0.51,
2793,-0.785,-0.525,
2794,-0.795,-0.52,
2795,-0.795,-0.53,
2796,-0.795,-0.53,
2797,-0.795,-0.53,
2798,-0.81,-0.535,
2799,-0.825,-0.55,
2800,-0.82,-0.54,
2801,-0.835,-0.53,
2802,-0.835,-0.52,
2803,-0.83,-0.525,
2804,-0.825,-0.515,
2805,-0.815,-0.51,
2806,-0.82,-0.515,
2807,-0.825,-0.515,
2808,-0.83,-0.53,
2809,-0.83,-0.53,
2810,-0.845,-0.54,
2811,-0.845,-0.55,
2812,-0.855,-0.535,
2813,-0.855,-0.54,
2814,-0.86,-0.535,
2815,-0.85,-0.53,
2816,-0.855,-0.52,
2817,-0.85,-0.52,
2818,-0.84,-0.535,
2819,-0.85,-0.52,
2820,-0.85,-0.54,
2821,-0.85,-0.555,
2822,-0.87,-0.55,
2823,-0.88,-0.54,
2824,-0.88,-0.56,
2825,-0.89,-0.555,
2826,-0.88,-0.555,
2827,-0.87,-0.54,
2828,-0.87,-0.545,
2829,-0.86,-0.535,
2830,-0.86,-0.535,
2831,-0.865,-0.545,
2832,-0.87,-0.56,
2833,-0.865,-0.56,
2834,-0.87,-0.575,
2835,-0.875,-0.575,
2836,-0.88,-0.57,
2837,-0.875,-0.56,
2838,-0.875,-0.56,
2839,-0.89,-0.545,
2840,-0.87,-0.54,
2841,-0.865,-0.535,
2842,-0.865,-0.535,
2843,-0.855,-0.545,
2844,-0.85,-0.56,
2845,-0.87,-0.565,
2846,-0.875,-0.57,
2847,-0.875,-0.565,
2848,-0.88,-0.57,
2849,-0.88,-0.56,
2850,-0.88,-0.55,
2851,-0.875,-0.555,
2852,-0.865,-0.54,
2853,-0.86,-0.555,
2854,-0.855,-0.56,
2855,-0.855,-0.55,
2856,-0.855,-0.565,
2857,-0.845,-0.58,
2858,-0.86,-0.565,
2859,-0.87,-0.575,
2860,-0.86,-0.58,
2861,-0.87,-0.57,
2862,-0.885,-0.57,
2863,-0.865,-0.56,
2864,-0.865,-0.55,
2865,-0.85,-0.55,
2866,-0.84,-0.55,
2867,-0.835,-0.555,
2868,-0.835,-0.56,
2869,-0.85,-0.575,
2870,-0.845,-0.565,
2871,-0.86,-0.58,
2872,-0.865,-0.575,
2873,-0.865,-0.58,
2874,-0.87,-0.575,
2875,-0.865,-0.565,
2876,-0.865,-0.57,
2877,-0.845,-0.55,
2878,-0.84,-0.545,
2879,-0.835,-0.55,
2880,-0.825,-0.55,
2881,-0.84,-0.565,
2882,-0.86,-0.58,
2883,-0.87,-0.585,
2884,-0.87,-0.575,
2885,-0.87,-0.58,
2886,-0.86,-0.575,
2887,-0.855,-0.565,
2888,-0.835,-0.555,
2889,-0.825,-0.545,
2890,-0.82,-0.55,
2891,-0.825,-0.56,
2892,-0.83,-0.56,
2893,-0.83,-0.56,
2894,-0.85,-0.575,
2895,-0.86,-0.575,
2896,-0.86,-0.58,
2897,-0.86,-0.575,
2898,-0.855,-0.57,
2899,-0.845,-0.555,
2900,-0.84,-0.56,
2901,-0.84,-0.555,
2902,-0.84,-0.55,
2903,-0.835,-0.555,
2904,-0.845,-0.565,
2905,-0.84,-0.58,
2906,-0.83,-0.585,
2907,-0.855,-0.59,
2908,-0.845,-0.58,
2909,-0.83,-0.58,
2910,-0.85,-0.565,
2911,-0.835,-0.55,
2912,-0.835,-0.56,
2913,-0.83,-0.555,
2914,-0.83,-0.56,
2915,-0.835,-0.56,
2916,-0.835,-0.57,
2917,-0.84,-0.585,
2918,-0.85,-0.59,
2919,-0.85,-0.59,
2920,-0.84,-0.59,
2921,-0.85,-0.575,
2922,-0.84,-0.58,
2923,-0.835,-0.57,
2924,-0.825,-0.56,
2925,-0.825,-0.565,
2926,-0.82,-0.565,
2927,-0.82,-0.56,
2928,-0.81,-0.575,
2929,-0.82,-0.575,
2930,-0.815,-0.59,
2931,-0.825,-0.6,
2932,-0.83,-0.595,
2933,-0.83,-0.585,
2934,-0.83,-0.58,
2935,-0.825,-0.565,
2936,-0.825,-0.565,
2937,-0.815,-0.565,
2938,-0.8,-0.56,
2939,-0.8,-0.565,
2940,-0.805,-0.575,
2941,-0.81,-0.57,
2942,-0.82,-0.585,
2943,-0.82,-0.59,
2944,-0.81,-0.575,
2945,-0.82,-0.575,
2946,-0.805,-0.565,
2947,-0.8,-0.56,
2948,-0.785,-0.555,
2949,-0.765,-0.57,
2950,-0.74,-0.58,
2951,-0.75,-0.605,
2952,-0.755,-0.625,
2953,-0.765,-0.65,
2954,-0.77,-0.67,
2955,-0.775,-0.685,
2956,-0.78,-0.695,
2957,-0.785,-0.67,
2958,-0.785,-0.665,
2959,-0.78,-0.65,
2960,-0.79,-0.645,
2961,-0.775,-0.63,
2962,-0.78,-0.625,
2963,-0.765,-0.63,
2964,-0.77,-0.63,
2965,-0.76,-0.645,
2966,-0.765,-0.635,
2967,-0.775,-0.64,
2968,-0.775,-0.64,
2969,-0.775,-0.625,
2970,-0.77,-0.615,
2971,-0.77,-0.59,
2972,-0.77,-0.575,
2973,-0.77,-0.57,
2974,-0.775,-0.56,
2975,-0.79,-0.585,
2976,-0.785,-0.585,
2977,-0.81,-0.585,
2978,-0.825,-0.6,
2979,-0.83,-0.595,
2980,-0.845,-0.605,
2981,-0.84,-0.595,
2982,-0.84,-0.585,
2983,-0.83,-0.575,
2984,-0.825,-0.575,
2985,-0.815,-0.575,
2986,-0.81,-0.58,
2987,-0.815,-0.57,
2988,-0.81,-0.575,
2989,-0.835,-0.59,
2990,-0.84,-0.58,
2991,-0.845,-0.58,
2992,-0.835,-0.59,
2993,-0.835,-0.565,
2994,-0.83,-0.56,
2995,-0.825,-0.54,
2996,-0.815,-0.54,
2997,-0.8,-0.56,
2998,-0.775,-0.625,
2999,-0.765,-0.74,
3000,-0.73,-0.905,
3001,-0.68,-1.12,
3002,-0.59,-1.365,
3003,-0.485,-1.615,
3004,-0.355,-1.83,
3005,-0.235,-1.93,
3006,-0.105,-1.88,
3007,-0.005,-1.74,
3008,0.065,-1.535,
3009,0.115,-1.33,
3010,0.16,-1.145,
3011,0.19,-1.005,
3012,0.21,-0.915,N
3013,0.205,-0.84,
3014,0.15,-0.775,
3015,0.1,-0.71,
3016,0.015,-0.66,
3017,-0.05,-0.61,
3018,-0.13,-0.575,
3019,-0.225,-0.56,
3020,-0.32,-0.55,
3021,-0.415,-0.54,
3022,-0.5,-0.535,
3023,-0.57,-0.53,
3024,-0.635,-0.525,
3025,-0.695,-0.525,
3026,-0.74,-0.535,
3027,-0.78,-0.53,
3028,-0.81,-0.535,
3029,-0.815,-0.52,
3030,-0.82,-0.505,
3031,-0.82,-0.495,
3032,-0.81,-0.49,
3033,-0.805,-0.48,
3034,-0.79,-0.495,
3035,-0.795,-0.49,
3036,-0.795,-0.5,
3037,-0.795,-0.495,
3038,-0.81,-0.515,
3039,-0.825,-0.515,
3040,-0.815,-0.51,
3041,-0.815,-0.52,
3042,-0.805,-0.495,
3043,-0.805,-0.485,
3044,-0.81,-0.48,
3045,-0.805,-0.48,
3046,-0.79,-0.48,
3047,-0.785,-0.49,
3048,-0.795,-0.485,
3049,-0.79,-0.49,
3050,-0.8,-0.495,
3051,-0.795,-0.495,
3052,-0.8,-0.495,
3053,-0.8,-0.5,
3054,-0.79,-0.48,
3055,-0.785,-0.48,
3056,-0.775,-0.465,
3057,-0.77,-0.465,
3058,-0.76,-0.475,
3059,-0.76,-0.48,
3060,-0.755,-0.475,
3061,-0.77,-0.485,
3062,-0.77,-0.495,
3063,-0.785,-0.5,
3064,-0.78,-0.495,
3065,-0.775,-0.5,
3066,-0.78,-0.495,
3067,-0.77,-0.49,
3068,-0.765,-0.48,
3069,-0.76,-0.47,
3070,-0.745,-0.465,
3071,-0.75,-0.485,
3072,-0.755,-0.5,
3073,-0.755,-0.495,
3074,-0.76,-0.5,
3075,-0.77,-0.51,
3076,-0.77,-0.505,
3077,-0.76,-0.505,
3078,-0.775,-0.49,
3079,-0.76,-0.485,
3080,-0.765,-0.485,
3081,-0.75,-0.465,
3082,-0.75,-0.485,
3083,-0.74,-0.485,
3084,-0.745,-0.49,
3085,-0.745,-0.495,
3086,-0.755,-0.505,
3087,-0.75,-0.515,
3088,-0.75,-0.505,
3089,-0.75,-0.505,
3090,-0.745,-0.51,
3091,-0.745,-0.495,
3092,-0.735,-0.495,
3093,-0.72,-0.485,
3094,-0.72,-0.485,
3095,-0.715,-0.485,
3096,-0.705,-0.49,
3097,-0.71,-0.5,
3098,-0.705,-0.515,
3099,-0.73,-0.515,
3100,-0.735,-0.525,
3101,-0.74,-0.515,
3102,-0.73,-0.495,
3103,-0.73,-0.495,
3104,-0.735,-0.495,
3105,-0.71,-0.48,
3106,-0.695,-0.49,
3107,-0.69,-0.51,
3108,-0.695,-0.515,
3109,-0.7,-0.52,
3110,-0.71,-0.54,
3111,-0.73,-0.545,
3112,-0.74,-0.55,
3113,-0.745,-0.55,
3114,-0.735,-0.53,
3115,-0.715,-0.535,
3116,-0.725,-0.535,
3117,-0.72,-0.535,
3118,-0.72,-0.53,
3119,-0.735,-0.56,
3120,-0.745,-0.555,
3121,-0.755,-0.56,
3122,-0.76,-0.575,
3123,-0.785,-0.58,
3124,-0.775,-0.575,
3125,-0.795,-0.575,
3126,-0.8,-0.57,
3127,-0.805,-0.56,
3128,-0.815,-0.55,
3129,-0.82,-0.545,
3130,-0.805,-0.545,
3131,-0.81,-0.565,
3132,-0.82,-0.555,
3133,-0.83,-0.57,
3134,-0.84,-0.585,
3135,-0.87,-0.575,
3136,-0.875,-0.595,
3137,-0.885,-0.58,
3138,-0.88,-0.575,
3139,-0.865,-0.56,
3140,-0.875,-0.555,
3141,-0.88,-0.545,
3142,-0.87,-0.56,
3143,-0.88,-0.565,
3144,-0.89,-0.555,
3145,-0.885,-0.56,
3146,-0.9,-0.565,
3147,-0.91,-0.565,
3148,-0.93,-0.575,
3149,-0.93,-0.565,
3150,-0.925,-0.555,
3151,-0.925,-0.56,
3152,-0.915,-0.55,
3153,-0.92,-0.545,
3154,-0.915,-0.54,
3155,-0.91,-0.535,
3156,-0.93,-0.545,
3157,-0.945,-0.545,
3158,-0.94,-0.55,
3159,-0.955,-0.565,
3160,-0.96,-0.555,
3161,-0.965,-0.555,
3162,-0.96,-0.545,
3163,-0.945,-0.535,
3164,-0.945,-0.53,
3165,-0.94,-0.52,
3166,-0.935,-0.515,
3167,-0.92,-0.525,
3168,-0.93,-0.515,
3169,-0.945,-0.54,
3170,-0.95,-0.55,
3171,-0.965,-0.545,
3172,-0.96,-0.545,
3173,-0.965,-0.54,
3174,-0.965,-0.525,
3175,-0.97,-0.525,
3176,-0.96,-0.515,
3177,-0.96,-0.515,
3178,-0.955,-0.515,
3179,-0.96,-0.53,
3180,-0.97,-0.535,
3181,-0.97,-0.53,
3182,-0.985,-0.535,
3183,-0.985,-0.545,
3184,-0.995,-0.54,
3185,-1.0,-0.535,
3186,-1.005,-0.53,
3187,-1.0,-0.535,
3188,-0.99,-0.52,
3189,-0.99,-0.515,
3190,-0.98,-0.52,
3191,-0.995,-0.525,
3192,-1.0,-0.53,
3193,-1.005,-0.53,
3194,-1.005,-0.55,
3195,-1.0,-0.56,
3196,-1.005,-0.56,
3197,-1.005,-0.555,
3198,-1.005,-0.555,
3199,-1.01,-0.545,
3200,-1.01,-0.53,
3201,-1.005,-0.525,
3202,-0.99,-0.52,
3203,-0.995,-0.54,
3204,-0.99,-0.525,
3205,-1.0,-0.54,
3206,-1.0,-0.545,
3207,-1.005,-0.56,
3208,-1.015,-0.57,
3209,-1.02,-0.565,
3210,-1.025,-0.545,
3211,-1.01,-0.545,
3212,-1.02,-0.535,
3213,-0.995,-0.535,
3214,-0.995,-0.535,
3215,-0.99,-0.545,
3216,-1.0,-0.54,
3217,-1.005,-0.545,
3218,-1.005,-0.555,
3219,-1.015,-0.56,
3220,-1.01,-0.565,
3221,-1.01,-0.56,
3222,-1.01,-0.555,
3223,-1.005,-0.55,
3224,-1.0,-0.55,
3225,-0.985,-0.535,
3226,-0.975,-0.54,
3227,-0.99,-0.54,
3228,-0.985,-0.55,
3229,-0.975,-0.56,
3230,-0.995,-0.56,
3231,-1.0,-0.575,
3232,-1.005,-0.56,
3233,-1.01,-0.57,
3234,-1.01,-0.565,
3235,-1.0,-0.55,
3236,-1.005,-0.545,
3237,-0.99,-0.54,
3238,-0.985,-0.54,
3239,-0.985,-0.54,
3240,-0.98,-0.545,
3241,-0.98,-0.555,
3242,-0.995,-0.565,
3243,-1.005,-0.565,
3244,-1.01,-0.58,
3245,-1.01,-0.57,
3246,-1.02,-0.555,
3247,-1.0,-0.555,
3248,-0.995,-0.55,
3249,-0.985,-0.535,
3250,-0.975,-0.545,
3251,-0.975,-0.545,
3252,-0.985,-0.555,
3253,-0.98,-0.55,
3254,-0.995,-0.565,
3255,-1.005,-0.575,
3256,-1.02,-0.58,
3257,-1.015,-0.565,
3258,-1.01,-0.565,
3259,-1.0,-0.565,
3260,-0.985,-0.555,
3261,-0.98,-0.55,
3262,-0.97,-0.55,
3263,-0.98,-0.55,
3264,-0.965,-0.555,
3265,-0.98,-0.565,
3266,-0.98,-0.565,
3267,-0.99,-0.575,
3268,-0.99,-0.57,
3269,-0.995,-0.575,
3270,-0.995,-0.565,
3271,-0.98,-0.56,
3272,-0.985,-0.55,
3273,-0.97,-0.55,
3274,-0.965,-0.535,
3275,-0.97,-0.545,
3276,-0.975,-0.56,
3277,-0.975,-0.56,
3278,-1.0,-0.565,
3279,-0.995,-0.58,
3280,-1.0,-0.57,
3281,-0.99,-0.565,
3282,-0.99,-0.565,
3283,-0.98,-0.555,
3284,-0.985,-0.54,
3285,-0.97,-0.545,
3286,-0.97,-0.54,
3287,-0.965,-0.545,
3288,-0.965,-0.575,
3289,-0.97,-0.57,
3290,-0.985,-0.58,
3291,-0.975,-0.58,
3292,-0.985,-0.57,
3293,-0.985,-0.57,
3294,-0.985,-0.565,
3295,-0.985,-0.55,
3296,-0.97,-0.565,
3297,-0.965,-0.54,
3298,-0.955,-0.535,
3299,-0.95,-0.545,
3300,-0.955,-0.555,
3301,-0.96,-0.575,
3302,-0.98,-0.575,
3303,-0.975,-0.575,
3304,-0.97,-0.575,
3305,-0.97,-0.565,
3306,-0.975,-0.55,
3307,-0.965,-0.555,
3308,-0.965,-0.54,
3309,-0.955,-0.56,
3310,-0.955,-0.545,
3311,-0.95,-0.55,
3312,-0.945,-0.545,
3313,-0.97,-0.555,
3314,-0.955,-0.555,
3315,-0.945,-0.555,
3316,-0.945,-0.555,
3317,-0.925,-0.555,
3318,-0.925,-0.555,
3319,-0.9,-0.555,
3320,-0.905,-0.555,
3321,-0.89,-0.555,
3322,-0.89,-0.575,
3323,-0.905,-0.625,
3324,-0.91,-0.63,
3325,-0.9,-0.655,
3326,-0.895,-0.66,
3327,-0.89,-0.645,
3328,-0.9,-0.64,
3329,-0.895,-0.63,
3330,-0.905,-0.62,
3331,-0.9,-0.61,
3332,-0.895,-0.6,
3333,-0.89,-0.6,
3334,-0.89,-0.6,
3335,-0.895,-0.595,
3336,-0.895,-0.605,
3337,-0.89,-0.59,
3338,-0.905,-0.59,
3339,-0.905,-0.58,
3340,-0.92,-0.57,
3341,-0.925,-0.55,
3342,-0.93,-0.555,
3343,-0.93,-0.545,
3344,-0.93,-0.54,
3345,-0.92,-0.54,
3346,-0.915,-0.54,
3347,-0.925,-0.55,
3348,-0.925,-0.54,
3349,-0.93,-0.55,
3350,-0.945,-0.55,
3351,-0.96,-0.55,
3352,-0.96,-0.565,
3353,-0.955,-0.565,
3354,-0.96,-0.55,
3355,-0.96,-0.545,
3356,-0.965,-0.545,
3357,-0.94,-0.54,
3358,-0.925,-0.53,
3359,-0.925,-0.525,
3360,-0.92,-0.52,
3361,-0.915,-0.525,
3362,-0.92,-0.515,
3363,-0.92,-0.525,
3364,-0.92,-0.54,
3365,-0.9,-0.59,
3366,-0.89,-0.685,
3367,-0.84,-0.81,
3368,-0.78,-0.995,
3369,-0.7,-1.205,
3370,-0.59,-1.41,
3371,-0.485,-1.6,
3372,-0.36,-1.73,
3373,-0.23,-1.79,
3374,-0.15,-1.745,
3375,-0.08,-1.655,
3376,-0.04,-1.51,
3377,-0.005,-1.35,
3378,0.02,-1.2,
3379,0.055,-1.06,
3380,0.08,-0.965,N
3381,0.095,-0.88,
3382,0.07,-0.785,
3383,0.01,-0.725,
3384,-0.06,-0.655,
3385,-0.135,-0.61,
3386,-0.22,-0.58,
3387,-0.3,-0.565,
3388,-0.39,-0.55,
3389,-0.485,-0.55,
3390,-0.57,-0.525,
3391,-0.635,-0.495,
3392,-0.69,-0.49,
3393,-0.75,-0.47,
3394,-0.805,-0.47,
3395,-0.845,-0.47,
3396,-0.88,-0.475,
3397,-0.89,-0.485,
3398,-0.895,-0.475,
3399,-0.905,-0.505,
3400,-0.895,-0.48,
3401,-0.895,-0.48,
3402,-0.9,-0.47,
3403,-0.89,-0.465,
3404,-0.885,-0.45,
3405,-0.87,-0.455,
3406,-0.865,-0.45,
3407,-0.865,-0.465,
3408,-0.865,-0.46,
3409,-0.86,-0.465,
3410,-0.875,-0.465,
3411,-0.885,-0.475,
3412,-0.885,-0.485,
3413,-0.885,-0.48,
3414,-0.89,-0.465,
3415,-0.875,-0.46,
3416,-0.86,-0.46,
3417,-0.85,-0.45,
3418,-0.84,-0.465,
3419,-0.835,-0.445,
3420,-0.83,-0.45,
3421,-0.835,-0.455,
3422,-0.84,-0.465,
3423,-0.835,-0.475,
3424,-0.845,-0.48,
3425,-0.845,-0.485,
3426,-0.84,-0.48,
3427,-0.835,-0.47,
3428,-0.825,-0.465,
3429,-0.815,-0.455,
3430,-0.8,-0.445,
3431,-0.8,-0.465,
3432,-0.81,-0.46,
3433,-0.81,-0.48,
3434,-0.815,-0.485,
3435,-0.825,-0.49,
3436,-0.82,-0.5,
3437,-0.825,-0.495,
3438,-0.815,-0.48,
3439,-0.805,-0.465,
3440,-0.805,-0.47,
3441,-0.8,-0.45,
3442,-0.785,-0.46,
3443,-0.79,-0.455,
3444,-0.79,-0.475,
3445,-0.8,-0.485,
3446,-0.8,-0.49,
3447,-0.805,-0.48,
3448,-0.805,-0.49,
3449,-0.805,-0.475,
3450,-0.81,-0.475,
3451,-0.8,-0.465,
3452,-0.8,-0.465,
3453,-0.79,-0.465,
3454,-0.775,-0.45,
3455,-0.78,-0.47,
3456,-0.78,-0.46,
3457,-0.785,-0.485,
3458,-0.785,-0.48,
3459,-0.78,-0.49,
3460,-0.785,-0.485,
3461,-0.78,-0.485,
3462,-0.78,-0.475,
3463,-0.77,-0.47,
3464,-0.775,-0.47,
3465,-0.755,-0.465,
3466,-0.745,-0.455,
3467,-0.735,-0.455,
3468,-0.735,-0.475,
3469,-0.74,-0.49,
3470,-0.745,-0.49,
3471,-0.755,-0.495,
3472,-0.75,-0.505,
3473,-0.755,-0.505,
3474,-0.76,-0.49,
3475,-0.755,-0.49,
3476,-0.75,-0.495,
3477,-0.735,-0.485,
3478,-0.73,-0.49,
3479,-0.73,-0.495,
3480,-0.735,-0.495,
3481,-0.735,-0.505,
3482,-0.755,-0.515,
3483,-0.765,-0.53,
3484,-0.78,-0.52,
3485,-0.78,-0.52,
3486,-0.78,-0.52,
3487,-0.785,-0.505,
3488,-0.78,-0.51,
3489,-0.78,-0.495,
3490,-0.775,-0.505,
3491,-0.79,-0.505,
3492,-0.8,-0.515,
3493,-0.805,-0.515,
3494,-0.825,-0.515,
3495,-0.835,-0.525,
3496,-0.855,-0.53,
3497,-0.86,-0.52,
3498,-0.865,-0.51,
3499,-0.855,-0.51,
3500,-0.87,-0.515,
3501,-0.865,-0.5,
3502,-0.87,-0.505,
3503,-0.88,-0.51,
3504,-0.9,-0.5,
3505,-0.915,-0.53,
3506,-0.915,-0.53,
3507,-0.925,-0.53,
3508,-0.935,-0.53,
3509,-0.945,-0.535,
3510,-0.95,-0.535,
3511,-0.945,-0.525,
3512,-0.94,-0.505,
3513,-0.935,-0.51,
3514,-0.935,-0.5,
3515,-0.94,-0.51,
3516,-0.94,-0.515,
3517,-0.955,-0.52,
3518,-0.96,-0.525,
3519,-0.965,-0.54,
3520,-0.985,-0.54,
3521,-0.985,-0.52,
3522,-0.985,-0.53,
3523,-0.96,-0.52,
3524,-0.955,-0.515,
3525,-0.955,-0.495,
3526,-0.955,-0.495,
3527,-0.96,-0.495,
3528,-0.965,-0.5,
3529,-0.975,-0.515,
3530,-0.98,-0.51,
3531,-0.975,-0.525,
3532,-0.99,-0.525,
3533,-1.01,-0.505,
3534,-1.01,-0.505,
3535,-1.01,-0.49,
3536,-1.005,-0.5,
3537,-0.99,-0.49,
3538,-0.985,-0.49,
3539,-0.995,-0.495,
3540,-0.985,-0.51,
3541,-0.99,-0.51,
3542,-1.005,-0.515,
3543,-1.01,-0.515,
3544,-1.015,-0.53,
3545,-1.035,-0.52,
3546,-1.025,-0.515,
3547,-1.02,-0.5,
3548,-1.03,-0.495,
3549,-1.02,-0.485,
3550,-1.01,-0.49,
3551,-1.015,-0.495,
3552,-1.01,-0.495,
3553,-1.02,-0.5,
3554,-1.035,-0.51,
3555,-1.04,-0.52,
3556,-1.045,-0.52,
3557,-1.045,-0.52,
3558,-1.065,-0.515,
3559,-1.055,-0.5,
3560,-1.045,-0.5,
3561,-1.03,-0.495,
3562,-1.025,-0.49,
3563,-1.025,-0.51,
3564,-1.02,-0.505,
3565,-1.025,-0.515,
3566,-1.03,-0.53,
3567,-1.05,-0.535,
3568,-1.05,-0.53,
3569,-1.045,-0.53,
3570,-1.045,-0.525,
3571,-1.04,-0.515,
3572,-1.04,-0.51,
3573,-1.03,-0.495,
3574,-1.02,-0.5,
3575,-1.015,-0.51,
3576,-1.02,-0.52,
3577,-1.025,-0.525,
3578,-1.03,-0.535,
3579,-1.04,-0.55,
3580,-1.05,-0.54,
3581,-1.045,-0.55,
3582,-1.05,-0.535,
3583,-1.035,-0.525,
3584,-1.02,-0.525,
3585,-1.025,-0.51,
3586,-1.01,-0.51,
3587,-1.005,-0.525,
3588,-1.005,-0.52,
3589,-1.01,-0.535,
3590,-1.015,-0.54,
3591,-1.01,-0.545,
3592,-1.025,-0.555,
3593,-1.025,-0.545,
3594,-1.025,-0.535,
3595,-1.015,-0.535,
3596,-1.02,-0.515,
3597,-1.005,-0.525,
3598,-1.0,-0.52,
3599,-1.0,-0.525,
3600,-0.99,-0.52,
3601,-0.995,-0.54,
3602,-1.0,-0.54,
3603,-1.0,-0.55,
3604,-1.01,-0.55,
3605,-1.025,-0.56,
3606,-1.015,-0.545,
3607,-1.015,-0.535,
3608,-1.015,-0.525,
3609,-1.005,-0.52,
3610,-1.0,-0.515,
3611,-1.0,-0.52,
3612,-0.99,-0.535,
3613,-0.995,-0.53,
3614,-1.0,-0.54,
3615,-1.005,-0.54,
3616,-1.01,-0.545,
3617,-1.02,-0.55,
3618,-1.01,-0.545,
3619,-1.015,-0.535,
3620,-1.0,-0.525,
3621,-0.99,-0.525,
3622,-0.98,-0.52,
3623,-0.98,-0.525,
3624,-0.975,-0.53,
3625,-0.985,-0.545,
3626,-1.005,-0.55,
3627,-0.995,-0.545,
3628,-1.005,-0.545,
3629,-1.02,-0.55,
3630,-1.025,-0.56,
3631,-1.0,-0.525,
3632,-0.995,-0.53,
3633,-0.985,-0.525,
3634,-0.975,-0.525,
3635,-0.975,-0.53,
3636,-0.98,-0.53,
3637,-0.975,-0.535,
3638,-1.005,-0.54,
3639,-1.0,-0.565,
3640,-0.995,-0.555,
3641,-1.0,-0.555,
3642,-0.995,-0.545,
3643,-0.995,-0.545,
3644,-0.985,-0.54,
3645,-0.99,-0.52,
3646,-0.98,-0.525,
3647,-0.98,-0.53,
3648,-0.985,-0.545,
3649,-0.98,-0.55,
3650,-0.985,-0.55,
3651,-0.995,-0.57,
3652,-0.985,-0.565,
3653,-1.015,-0.555,
3654,-0.99,-0.55,
3655,-0.99,-0.535,
3656,-0.985,-0.53,
3657,-0.975,-0.53,
3658,-0.975,-0.53,
3659,-0.965,-0.535,
3660,-0.975,-0.535,
3661,-0.97,-0.56,
3662,-0.97,-0.55,
3663,-0.985,-0.56,
3664,-0.98,-0.56,
3665,-0.985,-0.56,
3666,-0.985,-0.545,
3667,-0.985,-0.555,
3668,-0.98,-0.55,
3669,-0.97,-0.535,
3670,-0.96,-0.53,
3671,-0.97,-0.51,
3672,-0.96,-0.53,
3673,-0.955,-0.54,
3674,-0.95,-0.545,
3675,-0.96,-0.54,
3676,-0.955,-0.545,
3677,-0.945,-0.555,
3678,-0.955,-0.55,
3679,-0.935,-0.535,
3680,-0.925,-0.55,
3681,-0.905,-0.555,
3682,-0.915,-0.58,
3683,-0.925,-0.595,
3684,-0.905,-0.625,
3685,-0.91,-0.635,
3686,-0.91,-0.645,
3687,-0.915,-0.635,
3688,-0.92,-0.645,
3689,-0.93,-0.625,
3690,-0.93,-0.615,
3691,-0.93,-0.59,
3692,-0.94,-0.605,
3693,-0.93,-0.59,
3694,-0.91,-0.595,
3695,-0.9,-0.59,
3696,-0.905,-0.605,
3697,-0.905,-0.595,
3698,-0.915,-0.595,
3699,-0.915,-0.58,
3700,-0.925,-0.57,
3701,-0.94,-0.555,
3702,-0.94,-0.55,
3703,-0.94,-0.545,
3704,-0.935,-0.55,
3705,-0.925,-0.53,
3706,-0.945,-0.54,
3707,-0.94,-0.535,
3708,-0.95,-0.545,
3709,-0.955,-0.55,
3710,-0.96,-0.565,
3711,-0.975,-0.555,
3712,-0.975,-0.56,
3713,-0.98,-0.56,
3714,-0.975,-0.555,
3715,-0.965,-0.545,
3716,-0.965,-0.545,
3717,-0.955,-0.535,
3718,-0.945,-0.54,
3719,-0.94,-0.54,
3720,-0.94,-0.535,
3721,-0.935,-0.515,
3722,-0.94,-0.515,
3723,-0.94,-0.53,
3724,-0.945,-0.54,
3725,-0.94,-0.575,
3726,-0.94,-0.645,
3727,-0.9,-0.78,
3728,-0.83,-0.945,
3729,-0.775,-1.155,
3730,-0.67,-1.365,
3731,-0.535,-1.57,
3732,-0.4,-1.725,
3733,-0.265,-1.785,
3734,-0.17,-1.775,
3735,-0.085,-1.655,
3736,-0.025,-1.51,
3737,0.0,-1.32,
3738,0.02,-1.155,
3739,0.06,-1.005,
3740,0.08,-0.89,N
3741,0.08,-0.825,
3742,0.06,-0.74,
3743,-0.015,-0.68,
3744,-0.07,-0.625,
3745,-0.15,-0.59,
3746,-0.23,-0.565,
3747,-0.31,-0.56,
3748,-0.405,-0.565,
3749,-0.495,-0.535,
3750,-0.58,-0.535,
3751,-0.66,-0.515,
3752,-0.725,-0.5,
3753,-0.775,-0.485,
3754,-0.81,-0.48,
3755,-0.84,-0.485,
3756,-0.885,-0.495,
3757,-0.92,-0.495,
3758,-0.925,-0.49,
3759,-0.935,-0.495,
3760,-0.935,-0.49,
3761,-0.935,-0.495,
3762,-0.935,-0.485,
3763,-0.915,-0.48,
3764,-0.92,-0.475,
3765,-0.915,-0.465,
3766,-0.905,-0.475,
3767,-0.91,-0.47,
3768,-0.91,-0.48,
3769,-0.92,-0.475,
3770,-0.9,-0.48,
3771,-0.91,-0.48,
3772,-0.905,-0.5,
3773,-0.92,-0.485,
3774,-0.905,-0.47,
3775,-0.92,-0.46,
3776,-0.91,-0.47,
3777,-0.905,-0.455,
3778,-0.885,-0.455,
3779,-0.885,-0.455,
3780,-0.895,-0.46,
3781,-0.885,-0.47,
3782,-0.89,-0.48,
3783,-0.895,-0.49,
3784,-0.895,-0.48,
3785,-0.905,-0.475,
3786,-0.895,-0.475,
3787,-0.885,-0.48,
3788,-0.875,-0.465,
3789,-0.885,-0.47,
3790,-0.865,-0.465,
3791,-0.86,-0.47,
3792,-0.855,-0.48,
3793,-0.86,-0.485,
3794,-0.87,-0.485,
3795,-0.88,-0.49,
3796,-0.885,-0.5,
3797,-0.9,-0.495,
3798,-0.9,-0.49,
3799,-0.9,-0.485,
3800,-0.885,-0.475,
3801,-0.885,-0.475,
3802,-0.87,-0.46,
3803,-0.86,-0.47,
3804,-0.845,-0.47,
3805,-0.86,-0.49,
3806,-0.865,-0.495,
3807,-0.855,-0.495,
3808,-0.865,-0.505,
3809,-0.87,-0.5,
3810,-0.87,-0.49,
3811,-0.86,-0.5,
3812,-0.855,-0.495,
3813,-0.855,-0.48,
3814,-0.835,-0.47,
3815,-0.83,-0.48,
3816,-0.84,-0.475,
3817,-0.835,-0.485,
3818,-0.83,-0.495,
3819,-0.845,-0.505,
3820,-0.835,-0.515,
3821,-0.84,-0.51,
3822,-0.84,-0.51,
3823,-0.835,-0.49,
3824,-0.82,-0.5,
3825,-0.805,-0.485,
3826,-0.805,-0.49,
3827,-0.81,-0.49,
3828,-0.79,-0.495,
3829,-0.81,-0.51,
3830,-0.805,-0.505,
3831,-0.815,-0.525,
3832,-0.82,-0.515,
3833,-0.82,-0.53,
3834,-0.81,-0.52,
3835,-0.825,-0.515,
3836,-0.815,-0.52,
3837,-0.8,-0.5,
3838,-0.79,-0.515,
3839,-0.795,-0.52,
3840,-0.8,-0.53,
3841,-0.805,-0.535,
3842,-0.82,-0.545,
3843,-0.82,-0.545,
3844,-0.84,-0.54,
3845,-0.84,-0.56,
3846,-0.845,-0.555,
3847,-0.85,-0.545,
3848,-0.86,-0.55,
3849,-0.855,-0.53,
3850,-0.855,-0.525,
3851,-0.86,-0.545,
3852,-0.88,-0.535,
3853,-0.885,-0.55,
3854,-0.905,-0.555,
3855,-0.9,-0.565,
3856,-0.91,-0.56,
3857,-0.92,-0.58,
3858,-0.925,-0.575,
3859,-0.93,-0.555,
3860,-0.935,-0.56,
3861,-0.935,-0.545,
3862,-0.93,-0.54,
3863,-0.94,-0.54,
3864,-0.955,-0.55,
3865,-0.96,-0.56,
3866,-0.98,-0.56,
3867,-0.99,-0.56,
3868,-1.0,-0.575,
3869,-1.005,-0.565,
3870,-1.005,-0.565,
3871,-1.015,-0.55,
3872,-1.015,-0.54,
3873,-1.005,-0.53,
3874,-1.0,-0.535,
3875,-0.995,-0.545,
3876,-1.0,-0.55,
3877,-1.015,-0.555,
3878,-1.02,-0.565,
3879,-1.04,-0.58,
3880,-1.05,-0.57,
3881,-1.05,-0.555,
3882,-1.045,-0.55,
3883,-1.05,-0.555,
3884,-1.04,-0.555,
3885,-1.035,-0.525,
3886,-1.03,-0.535,
3887,-1.035,-0.545,
3888,-1.045,-0.54,
3889,-1.05,-0.54,
3890,-1.06,-0.545,
3891,-1.045,-0.55,
3892,-1.065,-0.55,
3893,-1.075,-0.555,
3894,-1.07,-0.535,
3895,-1.075,-0.54,
3896,-1.075,-0.53,
3897,-1.075,-0.525,
3898,-1.065,-0.53,
3899,-1.055,-0.535,
3900,-1.065,-0.53,
3901,-1.06,-0.54,
3902,-1.07,-0.54,
3903,-1.085,-0.56,
3904,-1.1,-0.56,
3905,-1.095,-0.555,
3906,-1.1,-0.565,
3907,-1.095,-0.545,
3908,-1.08,-0.535,
3909,-1.075,-0.52,
3910,-1.075,-0.52,
3911,-1.085,-0.53,
3912,-1.09,-0.54,
3913,-1.095,-0.545,
3914,-1.1,-0.55,
3915,-1.115,-0.56,
3916,-1.13,-0.57,
3917,-1.12,-0.56,
3918,-1.12,-0.55,
3919,-1.11,-0.54,
3920,-1.11,-0.535,
3921,-1.11,-0.54,
3922,-1.105,-0.54,
3923,-1.1,-0.55,
3924,-1.105,-0.55,
3925,-1.105,-0.57,
3926,-1.11,-0.57,
3927,-1.115,-0.58,
3928,-1.125,-0.595,
3929,-1.125,-0.58,
3930,-1.115,-0.575,
3931,-1.12,-0.565,
3932,-1.115,-0.555,
3933,-1.105,-0.555,
3934,-1.105,-0.555,
3935,-1.09,-0.555,
3936,-1.095,-0.56,
3937,-1.11,-0.565,
3938,-1.105,-0.57,
3939,-1.115,-0.59,
3940,-1.115,-0.58,
3941,-1.105,-0.58,
3942,-1.105,-0.585,
3943,-1.105,-0.575,
3944,-1.09,-0.575,
3945,-1.105,-0.555,
3946,-1.09,-0.56,
3947,-1.075,-0.565,
3948,-1.08,-0.57,
3949,-1.095,-0.575,
3950,-1.095,-0.575,
3951,-1.105,-0.595,
3952,-1.11,-0.59,
3953,-1.11,-0.59,
3954,-1.105,-0.59,
3955,-1.11,-0.57,
3956,-1.115,-0.56,
3957,-1.115,-0.565,
3958,-1.095,-0.565,
3959,-1.095,-0.56,
3960,-1.08,-0.56,
3961,-1.09,-0.56,
3962,-1.1,-0.565,
3963,-1.095,-0.57,
3964,-1.105,-0.585,
3965,-1.11,-0.6,
3966,-1.1,-0.6,
3967,-1.095,-0.585,
3968,-1.08,-0.58,
3969,-1.085,-0.575,
3970,-1.06,-0.56,
3971,-1.055,-0.555,
3972,-1.06,-0.565,
3973,-1.06,-0.565,
3974,-1.075,-0.57,
3975,-1.08,-0.58,
3976,-1.08,-0.57,
3977,-1.085,-0.56,
3978,-1.08,-0.57,
3979,-1.08,-0.575,
3980,-1.085,-0.575,
3981,-1.075,-0.575,
3982,-1.07,-0.58,
3983,-1.07,-0.595,
3984,-1.055,-0.63,
3985,-1.06,-0.66,
3986,-1.065,-0.67,
3987,-1.055,-0.675,
3988,-1.065,-0.665,
3989,-1.075,-0.635,
3990,-1.075,-0.62,
3991,-1.075,-0.61,
3992,-1.06,-0.6,
3993,-1.05,-0.595,
3994,-1.06,-0.595,
3995,-1.045,-0.59,
3996,-1.045,-0.615,
3997,-1.06,-0.61,
3998,-1.065,-0.63,
3999,-1.07,-0.62,
4000,-1.085,-0.615,
4001,-1.085,-0.61,
4002,-1.085,-0.615,
4003,-1.085,-0.615,
4004,-1.075,-0.61,
4005,-1.065,-0.605,
4006,-1.055,-0.61,
4007,-1.05,-0.605,
4008,-1.045,-0.6,
4009,-1.05,-0.61,
4010,-1.06,-0.605,
4011,-1.065,-0.595,
4012,-1.065,-0.605,
4013,-1.08,-0.595,
4014,-1.075,-0.58,
4015,-1.08,-0.575,
4016,-1.06,-0.56,
4017,-1.06,-0.56,
4018,-1.05,-0.585,
4019,-1.055,-0.6,
4020,-1.055,-0.615,
4021,-1.04,-0.62,
4022,-1.045,-0.625,
4023,-1.05,-0.605,
4024,-1.05,-0.63,
4025,-1.06,-0.62,
4026,-1.045,-0.64,
4027,-1.045,-0.645,
4028,-1.045,-0.645,
4029,-1.03,-0.625,
4030,-1.02,-0.6,
4031,-1.015,-0.585,
4032,-1.01,-0.57,
4033,-1.015,-0.575,
4034,-1.03,-0.58,
4035,-1.035,-0.62,
4036,-1.045,-0.64,
4037,-1.05,-0.665,
4038,-1.04,-0.675,
4039,-1.045,-0.65,
4040,-1.03,-0.65,
4041,-1.02,-0.645,
4042,-1.005,-0.625,
4043,-1.015,-0.62,
4044,-1.01,-0.62,
4045,-1.01,-0.61,
4046,-1.005,-0.615,
4047,-0.985,-0.61,
4048,-1.0,-0.63,
4049,-0.99,-0.635,
4050,-0.97,-0.64,
4051,-0.965,-0.635,
4052,-0.965,-0.64,
4053,-0.975,-0.65,
4054,-0.97,-0.65,
4055,-0.95,-0.675,
4056,-0.95,-0.69,
4057,-0.97,-0.69,
4058,-0.96,-0.685,
4059,-0.965,-0.68,
4060,-0.97,-0.675,
4061,-0.975,-0.68,
4062,-0.975,-0.685,
4063,-0.975,-0.705,
4064,-0.97,-0.7,
4065,-0.965,-0.7,
4066,-0.965,-0.685,
4067,-0.955,-0.65,
4068,-0.965,-0.625,
4069,-0.97,-0.625,
4070,-0.985,-0.65,
4071,-0.975,-0.65,
4072,-0.99,-0.67,
4073,-1.0,-0.625,
4074,-1.02,-0.595,
4075,-1.025,-0.575,
4076,-1.02,-0.595,
4077,-1.035,-0.64,
4078,-1.035,-0.655,
4079,-1.03,-0.67,
4080,-1.04,-0.665,
4081,-1.055,-0.65,
4082,-1.06,-0.645,
4083,-1.065,-0.665,
4084,-1.075,-0.675,
4085,-1.06,-0.68,
4086,-1.055,-0.68,
4087,-1.05,-0.665,
4088,-1.04,-0.65,
4089,-1.055,-0.64,
4090,-1.045,-0.625,
4091,-1.05,-0.605,
4092,-1.05,-0.59,
4093,-1.045,-0.595,
4094,-1.06,-0.585,
4095,-1.04,-0.605,
4096,-1.045,-0.64,
4097,-1.045,-0.675,
4098,-1.045,-0.715,
4099,-1.015,-0.795,
4100,-0.965,-0.925,
4101,-0.89,-1.115,
4102,-0.8,-1.36,
4103,-0.69,-1.635,
4104,-0.55,-1.84,
4105,-0.42,-1.91,
4106,-0.32,-1.87,
4107,-0.24,-1.71,
4108,-0.185,-1.535,
4109,-0.15,-1.33,
4110,-0.105,-1.165,
4111,-0.075,-1.04,
4112,-0.045,-0.95,N
4113,-0.045,-0.89,
4114,-0.09,-0.815,
4115,-0.14,-0.75,
4116,-0.225,-0.695,
4117,-0.315,-0.665,
4118,-0.43,-0.655,
4119,-0.55,-0.645,
4120,-0.675,-0.625,
4121,-0.765,-0.61,
4122,-0.835,-0.595,
4123,-0.895,-0.565,
4124,-0.945,-0.575,
4125,-0.99,-0.56,
4126,-1.04,-0.57,
4127,-1.08,-0.59,
4128,-1.115,-0.59,
4129,-1.135,-0.595,
4130,-1.16,-0.59,
4131,-1.155,-0.59,
4132,-1.155,-0.58,
4133,-1.15,-0.575,
4134,-1.165,-0.58,
4135,-1.17,-0.57,
4136,-1.175,-0.57,
4137,-1.18,-0.56,
4138,-1.165,-0.545,
4139,-1.155,-0.55,
4140,-1.155,-0.555,
4141,-1.16,-0.55,
4142,-1.16,-0.56,
4143,-1.17,-0.56,
4144,-1.175,-0.56,
4145,-1.165,-0.57,
4146,-1.17,-0.565,
4147,-1.195,-0.56,
4148,-1.19,-0.555,
4149,-1.185,-0.55,
4150,-1.18,-0.53,
4151,-1.155,-0.535,
4152,-1.16,-0.54,
4153,-1.165,-0.55,
4154,-1.17,-0.555,
4155,-1.175,-0.575,
4156,-1.2,-0.58,
4157,-1.205,-0.585,
4158,-1.195,-0.58,
4159,-1.165,-0.56,
4160,-1.16,-0.55,
4161,-1.145,-0.55,
4162,-1.135,-0.545,
4163,-1.135,-0.545,
4164,-1.145,-0.535,
4165,-1.145,-0.555,
4166,-1.145,-0.575,
4167,-1.155,-0.58,
4168,-1.175,-0.575,
4169,-1.165,-0.58,
4170,-1.17,-0.57,
4171,-1.16,-0.555,
4172,-1.17,-0.555,
4173,-1.155,-0.55,
4174,-1.155,-0.55,
4175,-1.15,-0.56,
4176,-1.14,-0.575,
4177,-1.125,-0.57,
4178,-1.14,-0.575,
4179,-1.145,-0.585,
4180,-1.15,-0.58,
4181,-1.155,-0.57,
4182,-1.165,-0.575,
4183,-1.15,-0.565,
4184,-1.14,-0.56,
4185,-1.13,-0.54,
4186,-1.125,-0.545,
4187,-1.115,-0.54,
4188,-1.11,-0.55,
4189,-1.11,-0.575,
4190,-1.11,-0.595,
4191,-1.12,-0.59,
4192,-1.125,-0.595,
4193,-1.135,-0.575,
4194,-1.14,-0.565,
4195,-1.14,-0.55,
4196,-1.145,-0.55,
4197,-1.13,-0.55,
4198,-1.125,-0.53,
4199,-1.125,-0.55,
4200,-1.135,-0.57,
4201,-1.13,-0.575,
4202,-1.14,-0.59,
4203,-1.15,-0.585,
4204,-1.155,-0.59,
4205,-1.165,-0.6,
4206,-1.17,-0.605,
4207,-1.175,-0.605,
4208,-1.17,-0.575,
4209,-1.175,-0.555,
4210,-1.16,-0.54,
4211,-1.165,-0.55,
4212,-1.17,-0.55,
4213,-1.195,-0.565,
4214,-1.21,-0.59,
4215,-1.22,-0.62,
4216,-1.225,-0.615,
4217,-1.225,-0.61,
4218,-1.245,-0.61,
4219,-1.25,-0.615,
4220,-1.25,-0.62,
4221,-1.265,-0.615,
4222,-1.275,-0.595,
4223,-1.27,-0.605,
4224,-1.28,-0.59,
4225,-1.29,-0.6,
4226,-1.305,-0.59,
4227,-1.325,-0.605,
4228,-1.345,-0.605,
4229,-1.36,-0.61,
4230,-1.36,-0.625,
4231,-1.38,-0.625,
4232,-1.375,-0.625,
4233,-1.38,-0.64,
4234,-1.37,-0.63,
4235,-1.385,-0.625,
4236,-1.395,-0.635,
4237,-1.395,-0.625,
4238,-1.42,-0.62,
4239,-1.425,-0.62,
4240,-1.43,-0.63,
4241,-1.46,-0.65,
4242,-1.465,-0.67,
4243,-1.475,-0.67,
4244,-1.475,-0.67,
4245,-1.48,-0.645,
4246,-1.475,-0.63,
4247,-1.47,-0.62,
4248,-1.475,-0.625,
4249,-1.485,-0.625,
4250,-1.5,-0.65,
4251,-1.52,-0.655,
4252,-1.52,-0.655,
4253,-1.555,-0.655,
4254,-1.56,-0.635,
4255,-1.55,-0.615,
4256,-1.54,-0.63,
4257,-1.535,-0.64,
4258,-1.525,-0.655,
4259,-1.52,-0.665,
4260,-1.525,-0.665,
4261,-1.545,-0.66,
4262,-1.545,-0.65,
4263,-1.555,-0.645,
4264,-1.565,-0.64,
4265,-1.58,-0.635,
4266,-1.585,-0.66,
4267,-1.585,-0.655,
4268,-1.57,-0.675,
4269,-1.565,-0.68,
4270,-1.555,-0.66,
4271,-1.56,-0.67,
4272,-1.575,-0.655,
4273,-1.59,-0.65,
4274,-1.605,-0.665,
4275,-1.62,-0.665,
4276,-1.62,-0.665,
4277,-1.625,-0.65,
4278,-1.615,-0.645,
4279,-1.625,-0.63,
4280,-1.625,-0.615,
4281,-1.625,-0.615,
4282,-1.62,-0.615,
4283,-1.625,-0.65,
4284,-1.63,-0.665,
4285,-1.63,-0.685,
4286,-1.645,-0.695,
4287,-1.655,-0.705,
4288,-1.655,-0.705,
4289,-1.665,-0.72,
4290,-1.675,-0.725,
4291,-1.665,-0.695,
4292,-1.65,-0.685,
4293,-1.635,-0.665,
4294,-1.635,-0.67,
4295,-1.62,-0.68,
4296,-1.615,-0.68,
4297,-1.62,-0.67,
4298,-1.64,-0.68,
4299,-1.64,-0.7,
4300,-1.67,-0.72,
4301,-1.685,-0.72,
4302,-1.685,-0.69,
4303,-1.69,-0.68,
4304,-1.69,-0.66,
4305,-1.685,-0.66,
4306,-1.665,-0.685,
4307,-1.67,-0.715,
4308,-1.66,-0.73,
4309,-1.665,-0.74,
4310,-1.67,-0.735,
4311,-1.66,-0.735,
4312,-1.665,-0.74,
4313,-1.68,-0.74,
4314,-1.685,-0.735,
4315,-1.7,-0.74,
4316,-1.685,-0.74,
4317,-1.685,-0.72,
4318,-1.66,-0.705,
4319,-1.665,-0.725,
4320,-1.65,-0.73,
4321,-1.67,-0.75,
4322,-1.685,-0.745,
4323,-1.69,-0.745,
4324,-1.7,-0.745,
4325,-1.69,-0.715,
4326,-1.695,-0.72,
4327,-1.695,-0.715,
4328,-1.69,-0.735,
4329,-1.695,-0.735,
4330,-1.68,-0.73,
4331,-1.675,-0.735,
4332,-1.665,-0.745,
4333,-1.665,-0.76,
4334,-1.67,-0.765,
4335,-1.68,-0.775,
4336,-1.71,-0.76,
4337,-1.71,-0.78,
4338,-1.69,-0.77,
4339,-1.68,-0.77,
4340,-1.675,-0.76,
4341,-1.68,-0.755,
4342,-1.67,-0.74,
4343,-1.66,-0.735,
4344,-1.66,-0.745,
4345,-1.66,-0.745,
4346,-1.665,-0.775,
4347,-1.675,-0.78,
4348,-1.685,-0.79,
4349,-1.685,-0.79,
4350,-1.695,-0.78,
4351,-1.695,-0.765,
4352,-1.675,-0.77,
4353,-1.67,-0.755,
4354,-1.65,-0.76,
4355,-1.645,-0.755,
4356,-1.665,-0.75,
4357,-1.66,-0.77,
4358,-1.685,-0.775,
4359,-1.685,-0.79,
4360,-1.685,-0.8,
4361,-1.675,-0.79,
4362,-1.675,-0.77,
4363,-1.655,-0.75,
4364,-1.665,-0.735,
4365,-1.675,-0.73,
4366,-1.67,-0.74,
4367,-1.665,-0.765,
4368,-1.675,-0.785,
4369,-1.68,-0.78,
4370,-1.675,-0.8,
4371,-1.67,-0.8,
4372,-1.67,-0.79,
4373,-1.665,-0.785,
4374,-1.675,-0.775,
4375,-1.67,-0.785,
4376,-1.66,-0.775,
4377,-1.665,-0.775,
4378,-1.67,-0.78,
4379,-1.655,-0.77,
4380,-1.665,-0.78,
4381,-1.665,-0.78,
4382,-1.66,-0.77,
4383,-1.66,-0.79,
4384,-1.68,-0.77,
4385,-1.675,-0.775,
4386,-1.685,-0.775,
4387,-1.685,-0.785,
4388,-1.685,-0.8,
4389,-1.695,-0.785,
4390,-1.675,-0.785,
4391,-1.675,-0.77,
4392,-1.675,-0.755,
4393,-1.69,-0.75,
4394,-1.69,-0.765,
4395,-1.685,-0.775,
4396,-1.685,-0.805,
4397,-1.685,-0.79,
4398,-1.67,-0.795,
4399,-1.665,-0.78,
4400,-1.675,-0.765,
4401,-1.67,-0.765,
4402,-1.655,-0.76,
4403,-1.655,-0.765,
4404,-1.645,-0.78,
4405,-1.655,-0.81,
4406,-1.675,-0.825,
4407,-1.665,-0.855,
4408,-1.655,-0.875,
4409,-1.65,-0.885,
4410,-1.645,-0.855,
4411,-1.645,-0.845,
4412,-1.64,-0.84,
4413,-1.645,-0.81,
4414,-1.64,-0.795,
4415,-1.625,-0.805,
4416,-1.64,-0.825,
4417,-1.655,-0.825,
4418,-1.645,-0.825,
4419,-1.66,-0.84,
4420,-1.665,-0.825,
4421,-1.655,-0.815,
4422,-1.665,-0.79,
4423,-1.67,-0.78,
4424,-1.665,-0.765,
4425,-1.67,-0.76,
4426,-1.675,-0.745,
4427,-1.665,-0.75,
4428,-1.675,-0.76,
4429,-1.69,-0.775,
4430,-1.695,-0.805,
4431,-1.725,-0.805,
4432,-1.715,-0.81,
4433,-1.72,-0.815,
4434,-1.71,-0.8,
4435,-1.695,-0.78,
4436,-1.69,-0.775,
4437,-1.7,-0.745,
4438,-1.705,-0.745,
4439,-1.71,-0.745,
4440,-1.715,-0.76,
4441,-1.73,-0.775,
4442,-1.73,-0.765,
4443,-1.72,-0.775,
4444,-1.725,-0.765,
4445,-1.725,-0.745,
4446,-1.715,-0.745,
4447,-1.7,-0.74,
4448,-1.695,-0.765,
4449,-1.695,-0.8,
4450,-1.68,-0.835,
4451,-1.635,-0.925,
4452,-1.605,-1.04,
4453,-1.54,-1.205,
4454,-1.475,-1.35,
4455,-1.375,-1.525,
4456,-1.29,-1.645,
4457,-1.175,-1.71,
4458,-1.065,-1.695,
4459,-0.98,-1.62,
4460,-0.9,-1.495,
4461,-0.86,-1.34,
4462,-0.83,-1.21,
4463,-0.82,-1.105,N
4464,-0.84,-1.03,
4465,-0.89,-0.955,
4466,-0.965,-0.895,
4467,-1.03,-0.845,
4468,-1.1,-0.815,
4469,-1.175,-0.795,
4470,-1.245,-0.8,
4471,-1.315,-0.78,
4472,-1.395,-0.78,
4473,-1.465,-0.765,
4474,-1.54,-0.75,
4475,-1.6,-0.735,
4476,-1.64,-0.73,
4477,-1.685,-0.73,
4478,-1.71,-0.735,
4479,-1.73,-0.735,
4480,-1.72,-0.73,
4481,-1.725,-0.72,
4482,-1.73,-0.73,
4483,-1.73,-0.75,
4484,-1.715,-0.755,
4485,-1.705,-0.75,
4486,-1.685,-0.75,
4487,-1.68,-0.735,
4488,-1.67,-0.735,
4489,-1.685,-0.74,
4490,-1.69,-0.74,
4491,-1.705,-0.745,
4492,-1.71,-0.74,
4493,-1.71,-0.73,
4494,-1.7,-0.735,
4495,-1.7,-0.725,
4496,-1.7,-0.725,
4497,-1.69,-0.71,
4498,-1.685,-0.72,
4499,-1.67,-0.71,
4500,-1.665,-0.72,
4501,-1.67,-0.725,
4502,-1.67,-0.735,
4503,-1.685,-0.725,
4504,-1.7,-0.715,
4505,-1.685,-0.7,
4506,-1.685,-0.69,
4507,-1.67,-0.67,
4508,-1.65,-0.675,
4509,-1.65,-0.68,
4510,-1.65,-0.71,
4511,-1.66,-0.735,
4512,-1.665,-0.755,
4513,-1.66,-0.765,
4514,-1.65,-0.76,
4515,-1.65,-0.755,
4516,-1.66,-0.755,
4517,-1.67,-0.75,
4518,-1.675,-0.745,
4519,-1.65,-0.735,
4520,-1.64,-0.735,
4521,-1.635,-0.725,
4522,-1.63,-0.72,
4523,-1.625,-0.725,
4524,-1.63,-0.725,
4525,-1.625,-0.735,
4526,-1.63,-0.73,
4527,-1.64,-0.73,
4528,-1.64,-0.73,
4529,-1.65,-0.745,
4530,-1.65,-0.745,
4531,-1.635,-0.735,
4532,-1.625,-0.71,
4533,-1.605,-0.705,
4534,-1.595,-0.705,
4535,-1.585,-0.695,
4536,-1.59,-0.72,
4537,-1.595,-0.73,
4538,-1.605,-0.725,
4539,-1.605,-0.74,
4540,-1.62,-0.725,
4541,-1.615,-0.73,
4542,-1.61,-0.73,
4543,-1.595,-0.715,
4544,-1.595,-0.71,
4545,-1.58,-0.71,
4546,-1.57,-0.705,
4547,-1.56,-0.7,
4548,-1.56,-0.71,
4549,-1.565,-0.715,
4550,-1.57,-0.725,
4551,-1.58,-0.725,
4552,-1.575,-0.725,
4553,-1.575,-0.72,
4554,-1.575,-0.705,
4555,-1.575,-0.705,
4556,-1.56,-0.705,
4557,-1.55,-0.71,
4558,-1.545,-0.705,
4559,-1.535,-0.73,
4560,-1.53,-0.745,
4561,-1.55,-0.755,
4562,-1.57,-0.75,
4563,-1.575,-0.745,
4564,-1.58,-0.73,
4565,-1.575,-0.725,
4566,-1.56,-0.725,
4567,-1.565,-0.725,
4568,-1.55,-0.705,
4569,-1.565,-0.695,
4570,-1.57,-0.69,
4571,-1.58,-0.71,
4572,-1.585,-0.715,
4573,-1.575,-0.715,
4574,-1.58,-0.72,
4575,-1.59,-0.72,
4576,-1.6,-0.74,
4577,-1.615,-0.735,
4578,-1.625,-0.75,
4579,-1.625,-0.745,
4580,-1.62,-0.72,
4581,-1.63,-0.685,
4582,-1.615,-0.68,
4583,-1.615,-0.695,
4584,-1.63,-0.695,
4585,-1.64,-0.715,
4586,-1.66,-0.72,
4587,-1.675,-0.73,
4588,-1.68,-0.735,
4589,-1.685,-0.75,
4590,-1.675,-0.76,
4591,-1.675,-0.745,
4592,-1.675,-0.72,
4593,-1.655,-0.72,
4594,-1.655,-0.695,
4595,-1.65,-0.695,
4596,-1.655,-0.705,
4597,-1.665,-0.715,
4598,-1.66,-0.73,
4599,-1.67,-0.745,
4600,-1.655,-0.76,
4601,-1.655,-0.775,
4602,-1.665,-0.755,
4603,-1.665,-0.725,
4604,-1.66,-0.71,
4605,-1.665,-0.705,
4606,-1.66,-0.7,
4607,-1.645,-0.695,
4608,-1.65,-0.7,
4609,-1.665,-0.7,
4610,-1.67,-0.71,
4611,-1.675,-0.715,
4612,-1.67,-0.735,
4613,-1.685,-0.73,
4614,-1.675,-0.72,
4615,-1.66,-0.705,
4616,-1.655,-0.7,
4617,-1.635,-0.685,
4618,-1.62,-0.68,
4619,-1.63,-0.695,
4620,-1.63,-0.705,
4621,-1.615,-0.71,
4622,-1.625,-0.73,
4623,-1.635,-0.72,
4624,-1.655,-0.725,
4625,-1.65,-0.71,
4626,-1.66,-0.705,
4627,-1.67,-0.69,
4628,-1.66,-0.685,
4629,-1.645,-0.685,
4630,-1.635,-0.68,
4631,-1.62,-0.685,
4632,-1.615,-0.68,
4633,-1.61,-0.675,
4634,-1.605,-0.69,
4635,-1.615,-0.71,
4636,-1.615,-0.715,
4637,-1.635,-0.72,
4638,-1.62,-0.73,
4639,-1.62,-0.71,
4640,-1.615,-0.72,
4641,-1.615,-0.71,
4642,-1.6,-0.7,
4643,-1.58,-0.69,
4644,-1.585,-0.685,
4645,-1.575,-0.69,
4646,-1.59,-0.685,
4647,-1.6,-0.685,
4648,-1.615,-0.705,
4649,-1.63,-0.72,
4650,-1.61,-0.73,
4651,-1.61,-0.715,
4652,-1.59,-0.7,
4653,-1.585,-0.695,
4654,-1.58,-0.685,
4655,-1.58,-0.68,
4656,-1.585,-0.69,
4657,-1.59,-0.68,
4658,-1.595,-0.69,
4659,-1.59,-0.705,
4660,-1.585,-0.705,
4661,-1.575,-0.715,
4662,-1.57,-0.72,
4663,-1.565,-0.7,
4664,-1.56,-0.69,
4665,-1.565,-0.69,
4666,-1.56,-0.685,
4667,-1.555,-0.675,
4668,-1.55,-0.685,
4669,-1.555,-0.7,
4670,-1.56,-0.71,
4671,-1.565,-0.705,
4672,-1.575,-0.71,
4673,-1.56,-0.715,
4674,-1.565,-0.71,
4675,-1.56,-0.705,
4676,-1.555,-0.69,
4677,-1.55,-0.695,
4678,-1.53,-0.685,
4679,-1.525,-0.68,
4680,-1.525,-0.675,
4681,-1.525,-0.68,
4682,-1.535,-0.695,
4683,-1.535,-0.695,
4684,-1.535,-0.71,
4685,-1.56,-0.71,
4686,-1.535,-0.695,
4687,-1.535,-0.695,
4688,-1.535,-0.7,
4689,-1.525,-0.68,
4690,-1.505,-0.69,
4691,-1.495,-0.685,
4692,-1.5,-0.69,
4693,-1.51,-0.69,
4694,-1.515,-0.7,
4695,-1.54,-0.69,
4696,-1.535,-0.705,
4697,-1.535,-0.705,
4698,-1.545,-0.715,
4699,-1.545,-0.695,
4700,-1.535,-0.69,
4701,-1.525,-0.67,
4702,-1.515,-0.685,
4703,-1.505,-0.685,
4704,-1.5,-0.68,
4705,-1.495,-0.685,
4706,-1.485,-0.685,
4707,-1.49,-0.705,
4708,-1.515,-0.705,
4709,-1.51,-0.705,
4710,-1.525,-0.7,
4711,-1.525,-0.68,
4712,-1.525,-0.68,
4713,-1.5,-0.66,
4714,-1.485,-0.665,
4715,-1.495,-0.66,
4716,-1.485,-0.695,
4717,-1.48,-0.71,
4718,-1.495,-0.71,
4719,-1.505,-0.705,
4720,-1.505,-0.705,
4721,-1.515,-0.705,
4722,-1.505,-0.69,
4723,-1.495,-0.695,
4724,-1.495,-0.68,
4725,-1.485,-0.675,
4726,-1.485,-0.67,
4727,-1.48,-0.665,
4728,-1.485,-0.655,
4729,-1.485,-0.67,
4730,-1.485,-0.665,
4731,-1.49,-0.695,
4732,-1.485,-0.71,
4733,-1.5,-0.715,
4734,-1.49,-0.72,
4735,-1.485,-0.695,
4736,-1.475,-0.685,
4737,-1.465,-0.675,
4738,-1.45,-0.665,
4739,-1.44,-0.675,
4740,-1.44,-0.675,
4741,-1.455,-0.655,
4742,-1.45,-0.67,
4743,-1.46,-0.675,
4744,-1.47,-0.69,
4745,-1.475,-0.7,
4746,-1.485,-0.695,
4747,-1.48,-0.685,
4748,-1.475,-0.685,
4749,-1.46,-0.685,
4750,-1.445,-0.675,
4751,-1.425,-0.67,
4752,-1.425,-0.685,
4753,-1.435,-0.675,
4754,-1.43,-0.685,
4755,-1.43,-0.68,
4756,-1.415,-0.68,
4757,-1.415,-0.675,
4758,-1.405,-0.685,
4759,-1.385,-0.68,
4760,-1.39,-0.69,
4761,-1.385,-0.69,
4762,-1.385,-0.705,
4763,-1.375,-0.725,
4764,-1.36,-0.74,
4765,-1.355,-0.745,
4766,-1.355,-0.755,
4767,-1.365,-0.75,
4768,-1.38,-0.745,
4769,-1.38,-0.725,
4770,-1.385,-0.74,
4771,-1.395,-0.73,
4772,-1.385,-0.725,
4773,-1.38,-0.705,
4774,-1.345,-0.705,
4775,-1.33,-0.7,
4776,-1.33,-0.715,
4777,-1.34,-0.71,
4778,-1.345,-0.705,
4779,-1.36,-0.705,
4780,-1.36,-0.695,
4781,-1.38,-0.675,
4782,-1.365,-0.67,
4783,-1.375,-0.66,
4784,-1.365,-0.65,
4785,-1.37,-0.65,
4786,-1.385,-0.645,
4787,-1.37,-0.655,
4788,-1.37,-0.65,
4789,-1.38,-0.655,
4790,-1.385,-0.655,
4791,-1.39,-0.665,
4792,-1.405,-0.675,
4793,-1.405,-0.68,
4794,-1.395,-0.665,
4795,-1.38,-0.665,
4796,-1.37,-0.64,
4797,-1.36,-0.635,
4798,-1.34,-0.63,
4799,-1.34,-0.615,
4800,-1.36,-0.62,
4801,-1.35,-0.625,
4802,-1.355,-0.605,
4803,-1.35,-0.62,
4804,-1.345,-0.635,
4805,-1.33,-0.675,
4806,-1.3,-0.735,
4807,-1.265,-0.83,
4808,-1.23,-0.95,
4809,-1.185,-1.055,
4810,-1.11,-1.2,
4811,-1.015,-1.325,
4812,-0.935,-1.475,
4813,-0.845,-1.585,
4814,-0.765,-1.625,
4815,-0.685,-1.61,
4816,-0.635,-1.545,
4817,-0.6,-1.42,
4818,-0.57,-1.26,
4819,-0.555,-1.125,
4820,-0.54,-1.02,N
4821,-0.515,-0.935,
4822,-0.49,-0.87,
4823,-0.52,-0.815,
4824,-0.57,-0.73,
4825,-0.625,-0.69,
4826,-0.695,-0.65,
4827,-0.78,-0.64,
4828,-0.875,-0.64,
4829,-0.96,-0.645,
4830,-1.045,-0.62,
4831,-1.115,-0.605,
4832,-1.19,-0.585,
4833,-1.225,-0.57,
4834,-1.25,-0.555,
4835,-1.26,-0.555,
4836,-1.27,-0.56,
4837,-1.28,-0.565,
4838,-1.28,-0.565,
4839,-1.28,-0.565,
4840,-1.28,-0.58,
4841,-1.285,-0.59,
4842,-1.29,-0.595,
4843,-1.29,-0.58,
4844,-1.28,-0.56,
4845,-1.265,-0.55,
4846,-1.26,-0.555,
4847,-1.245,-0.565,
4848,-1.25,-0.55,
4849,-1.255,-0.56,
4850,-1.26,-0.565,
4851,-1.26,-0.565,
4852,-1.27,-0.555,
4853,-1.275,-0.565,
4854,-1.265,-0.57,
4855,-1.255,-0.57,
4856,-1.25,-0.56,
4857,-1.245,-0.555,
4858,-1.235,-0.54,
4859,-1.235,-0.535,
4860,-1.23,-0.545,
4861,-1.225,-0.53,
4862,-1.225,-0.56,
4863,-1.23,-0.55,
4864,-1.22,-0.56,
4865,-1.225,-0.57,
4866,-1.22,-0.56,
4867,-1.22,-0.55,
4868,-1.22,-0.545,
4869,-1.205,-0.555,
4870,-1.2,-0.545,
4871,-1.195,-0.555,
4872,-1.195,-0.565,
4873,-1.19,-0.56,
4874,-1.19,-0.57,
4875,-1.195,-0.58,
4876,-1.195,-0.575,
4877,-1.185,-0.57,
4878,-1.185,-0.565,
4879,-1.18,-0.55,
4880,-1.165,-0.54,
4881,-1.17,-0.535,
4882,-1.16,-0.525,
4883,-1.155,-0.535,
4884,-1.17,-0.55,
4885,-1.165,-0.55,
4886,-1.17,-0.575,
4887,-1.16,-0.58,
4888,-1.16,-0.57,
4889,-1.165,-0.57,
4890,-1.175,-0.56,
4891,-1.16,-0.56,
4892,-1.15,-0.555,
4893,-1.14,-0.55,
4894,-1.125,-0.545,
4895,-1.11,-0.55,
4896,-1.11,-0.55,
4897,-1.115,-0.54,
4898,-1.11,-0.55,
4899,-1.11,-0.55,
4900,-1.125,-0.565,
4901,-1.13,-0.575,
4902,-1.13,-0.57,
4903,-1.125,-0.555,
4904,-1.115,-0.545,
4905,-1.105,-0.54,
4906,-1.085,-0.53,
4907,-1.07,-0.54,
4908,-1.07,-0.555,
4909,-1.085,-0.555,
4910,-1.06,-0.57,
4911,-1.07,-0.57,
4912,-1.07,-0.57,
4913,-1.08,-0.57,
4914,-1.065,-0.57,
4915,-1.07,-0.565,
4916,-1.07,-0.57,
4917,-1.07,-0.565,
4918,-1.05,-0.565,
4919,-1.045,-0.55,
4920,-1.055,-0.565,
4921,-1.045,-0.56,
4922,-1.05,-0.565,
4923,-1.07,-0.58,
4924,-1.065,-0.59,
4925,-1.085,-0.595,
4926,-1.085,-0.6,
4927,-1.08,-0.595,
4928,-1.07,-0.58,
4929,-1.06,-0.565,
4930,-1.06,-0.565,
4931,-1.055,-0.555,
4932,-1.065,-0.565,
4933,-1.07,-0.57,
4934,-1.075,-0.595,
4935,-1.095,-0.58,
4936,-1.11,-0.58,
4937,-1.105,-0.58,
4938,-1.12,-0.58,
4939,-1.13,-0.585,
4940,-1.125,-0.585,
4941,-1.13,-0.585,
4942,-1.13,-0.585,
4943,-1.125,-0.585,
4944,-1.135,-0.585,
4945,-1.125,-0.59,
4946,-1.125,-0.585,
4947,-1.13,-0.595,
4948,-1.145,-0.605,
4949,-1.165,-0.605,
4950,-1.175,-0.61,
4951,-1.185,-0.585,
4952,-1.17,-0.59,
4953,-1.17,-0.585,
4954,-1.16,-0.57,
4955,-1.155,-0.575,
4956,-1.155,-0.58,
4957,-1.155,-0.58,
4958,-1.16,-0.585,
4959,-1.155,-0.59,
4960,-1.165,-0.585,
4961,-1.17,-0.6,
4962,-1.165,-0.585,
4963,-1.175,-0.585,
4964,-1.16,-0.585,
4965,-1.155,-0.58,
4966,-1.15,-0.565,
4967,-1.14,-0.57,
4968,-1.165,-0.56,
4969,-1.145,-0.56,
4970,-1.165,-0.575,
4971,-1.155,-0.575,
4972,-1.165,-0.58,
4973,-1.17,-0.58,
4974,-1.17,-0.565,
4975,-1.16,-0.57,
4976,-1.16,-0.555,
4977,-1.16,-0.54,
4978,-1.165,-0.545,
4979,-1.16,-0.525,
4980,-1.16,-0.545,
4981,-1.17,-0.535,
4982,-1.165,-0.56,
4983,-1.18,-0.575,
4984,-1.18,-0.575,
4985,-1.175,-0.575,
4986,-1.175,-0.58,
4987,-1.18,-0.57,
4988,-1.185,-0.555,
4989,-1.185,-0.54,
4990,-1.175,-0.54,
4991,-1.16,-0.53,
4992,-1.15,-0.535,
4993,-1.16,-0.535,
4994,-1.155,-0.545,
4995,-1.175,-0.55,
4996,-1.195,-0.57,
4997,-1.2,-0.575,
4998,-1.205,-0.575,
4999,-1.205,-0.56,
5000,-1.185,-0.555,
5001,-1.18,-0.55,
5002,-1.16,-0.535,
5003,-1.16,-0.535,
5004,-1.15,-0.535,
5005,-1.15,-0.535,
5006,-1.16,-0.545,
5007,-1.16,-0.555,
5008,-1.18,-0.565,
5009,-1.2,-0.57,
5010,-1.2,-0.58,
5011,-1.185,-0.575,
5012,-1.195,-0.565,
5013,-1.15,-0.545,
5014,-1.145,-0.53,
5015,-1.135,-0.535,
5016,-1.13,-0.535,
5017,-1.135,-0.545,
5018,-1.14,-0.555,
5019,-1.16,-0.575,
5020,-1.17,-0.585,
5021,-1.185,-0.595,
5022,-1.17,-0.58,
5023,-1.165,-0.565,
5024,-1.15,-0.555,
5025,-1.145,-0.545,
5026,-1.14,-0.53,
5027,-1.14,-0.535,
5028,-1.14,-0.545,
5029,-1.145,-0.555,
5030,-1.145,-0.555,
5031,-1.145,-0.555,
5032,-1.15,-0.565,
5033,-1.145,-0.565,
5034,-1.16,-0.56,
5035,-1.15,-0.55,
5036,-1.16,-0.55,
5037,-1.16,-0.55,
5038,-1.15,-0.555,
5039,-1.14,-0.565,
5040,-1.125,-0.555,
5041,-1.125,-0.565,
5042,-1.125,-0.56,
5043,-1.13,-0.565,
5044,-1.135,-0.58,
5045,-1.145,-0.585,
5046,-1.145,-0.585,
5047,-1.145,-0.57,
5048,-1.15,-0.56,
5049,-1.15,-0.56,
5050,-1.15,-0.56,
5051,-1.13,-0.56,
5052,-1.115,-0.56,
5053,-1.115,-0.555,
5054,-1.1,-0.56,
5055,-1.11,-0.57,
5056,-1.115,-0.585,
5057,-1.11,-0.575,
5058,-1.13,-0.58,
5059,-1.125,-0.57,
5060,-1.125,-0.57,
5061,-1.12,-0.545,
5062,-1.115,-0.545,
5063,-1.1,-0.54,
5064,-1.11,-0.55,
5065,-1.12,-0.565,
5066,-1.115,-0.57,
5067,-1.11,-0.57,
5068,-1.105,-0.58,
5069,-1.11,-0.58,
5070,-1.1,-0.57,
5071,-1.105,-0.575,
5072,-1.115,-0.555,
5073,-1.11,-0.55,
5074,-1.095,-0.55,
5075,-1.09,-0.56,
5076,-1.1,-0.555,
5077,-1.095,-0.55,
5078,-1.11,-0.555,
5079,-1.115,-0.56,
5080,-1.125,-0.57,
5081,-1.125,-0.57,
5082,-1.12,-0.565,
5083,-1.11,-0.57,
5084,-1.105,-0.565,
5085,-1.095,-0.565,
5086,-1.095,-0.56,
5087,-1.085,-0.55,
5088,-1.07,-0.555,
5089,-1.07,-0.555,
5090,-1.07,-0.555,
5091,-1.08,-0.565,
5092,-1.095,-0.565,
5093,-1.1,-0.575,
5094,-1.115,-0.57,
5095,-1.11,-0.56,
5096,-1.105,-0.555,
5097,-1.09,-0.55,
5098,-1.085,-0.555,
5099,-1.07,-0.55,
5100,-1.06,-0.555,
5101,-1.065,-0.555,
5102,-1.06,-0.565,
5103,-1.075,-0.56,
5104,-1.08,-0.565,
5105,-1.08,-0.565,
5106,-1.09,-0.57,
5107,-1.08,-0.58,
5108,-1.08,-0.565,
5109,-1.06,-0.555,
5110,-1.05,-0.54,
5111,-1.04,-0.55,
5112,-1.05,-0.55,
5113,-1.07,-0.56,
5114,-1.06,-0.565,
5115,-1.07,-0.57,
5116,-1.065,-0.57,
5117,-1.05,-0.585,
5118,-1.04,-0.565,
5119,-1.05,-0.56,
5120,-1.04,-0.55,
5121,-1.035,-0.55,
5122,-1.035,-0.535,
5123,-1.035,-0.535,
5124,-1.025,-0.53,
5125,-1.005,-0.54,
5126,-1.005,-0.545,
5127,-0.985,-0.555,
5128,-0.975,-0.575,
5129,-0.98,-0.595,
5130,-0.99,-0.62,
5131,-0.985,-0.635,
5132,-0.995,-0.63,
5133,-0.98,-0.64,
5134,-0.965,-0.635,
5135,-0.95,-0.61,
5136,-0.945,-0.605,
5137,-0.96,-0.605,
5138,-0.96,-0.61,
5139,-0.965,-0.61,
5140,-0.96,-0.63,
5141,-0.97,-0.63,
5142,-0.965,-0.63,
5143,-0.98,-0.615,
5144,-0.97,-0.585,
5145,-0.95,-0.575,
5146,-0.955,-0.58,
5147,-0.965,-0.565,
5148,-0.95,-0.555,
5149,-0.955,-0.55,
5150,-0.955,-0.55,
5151,-0.965,-0.555,
5152,-0.975,-0.555,
5153,-0.975,-0.57,
5154,-0.985,-0.56,
5155,-0.99,-0.545,
5156,-0.99,-0.54,
5157,-0.99,-0.53,
5158,-0.985,-0.525,
5159,-0.98,-0.52,
5160,-0.98,-0.535,
5161,-0.965,-0.535,
5162,-0.975,-0.545,
5163,-0.98,-0.56,
5164,-0.995,-0.56,
5165,-0.99,-0.56,
5166,-0.975,-0.55,
5167,-0.97,-0.525,
5168,-0.96,-0.51,
5169,-0.95,-0.485,
5170,-0.94,-0.485,
5171,-0.925,-0.48,
5172,-0.92,-0.515,
5173,-0.91,-0.565,
5174,-0.885,-0.655,
5175,-0.85,-0.76,
5176,-0.805,-0.92,
5177,-0.73,-1.08,
5178,-0.645,-1.235,
5179,-0.57,-1.395,
5180,-0.46,-1.525,
5181,-0.355,-1.58,
5182,-0.255,-1.565,
5183,-0.16,-1.505,
5184,-0.11,-1.385,
5185,-0.095,-1.245,
5186,-0.07,-1.13,
5187,-0.05,-1.03,
5188,-0.045,-0.94,N
5189,-0.04,-0.87,
5190,-0.09,-0.805,
5191,-0.145,-0.74,
5192,-0.2,-0.66,
5193,-0.265,-0.595,
5194,-0.35,-0.54,
5195,-0.4,-0.51,
5196,-0.5,-0.5,
5197,-0.585,-0.51,
5198,-0.665,-0.5,
5199,-0.735,-0.52,
5200,-0.815,-0.525,
5201,-0.865,-0.52,
5202,-0.9,-0.515,
5203,-0.915,-0.51,
5204,-0.92,-0.485,
5205,-0.91,-0.465,
5206,-0.89,-0.465,
5207,-0.87,-0.465,
5208,-0.865,-0.465,
5209,-0.875,-0.47,
5210,-0.86,-0.485,
5211,-0.87,-0.49,
5212,-0.88,-0.485,
5213,-0.88,-0.48,
5214,-0.885,-0.49,
5215,-0.895,-0.46,
5216,-0.88,-0.465,
5217,-0.88,-0.47,
5218,-0.87,-0.47,
5219,-0.85,-0.47,
5220,-0.84,-0.47,
5221,-0.835,-0.475,
5222,-0.835,-0.485,
5223,-0.835,-0.49,
5224,-0.84,-0.5,
5225,-0.845,-0.49,
5226,-0.855,-0.485,
5227,-0.85,-0.48,
5228,-0.84,-0.47,
5229,-0.83,-0.455,
5230,-0.835,-0.46,
5231,-0.825,-0.465,
5232,-0.815,-0.46,
5233,-0.8,-0.475,
5234,-0.8,-0.48,
5235,-0.81,-0.485,
5236,-0.82,-0.495,
5237,-0.835,-0.51,
5238,-0.84,-0.51,
5239,-0.84,-0.515,
5240,-0.825,-0.49,
5241,-0.795,-0.485,
5242,-0.775,-0.47,
5243,-0.765,-0.47,
5244,-0.765,-0.475,
5245,-0.765,-0.48,
5246,-0.785,-0.49,
5247,-0.8,-0.49,
5248,-0.815,-0.485,
5249,-0.81,-0.48,
5250,-0.795,-0.485,
5251,-0.79,-0.48,
5252,-0.775,-0.475,
5253,-0.77,-0.475,
5254,-0.76,-0.475,
5255,-0.74,-0.485,
5256,-0.74,-0.48,
5257,-0.725,-0.49,
5258,-0.73,-0.49,
5259,-0.74,-0.495,
5260,-0.74,-0.49,
5261,-0.745,-0.505,
5262,-0.755,-0.5,
5263,-0.74,-0.495,
5264,-0.74,-0.475,
5265,-0.72,-0.485,
5266,-0.725,-0.475,
5267,-0.715,-0.47,
5268,-0.72,-0.48,
5269,-0.715,-0.495,
5270,-0.715,-0.49,
5271,-0.715,-0.485,
5272,-0.7,-0.485,
5273,-0.705,-0.49,
5274,-0.705,-0.485,
5275,-0.695,-0.48,
5276,-0.695,-0.485,
5277,-0.69,-0.475,
5278,-0.7,-0.47,
5279,-0.675,-0.48,
5280,-0.675,-0.475,
5281,-0.665,-0.48,
5282,-0.685,-0.485,
5283,-0.685,-0.495,
5284,-0.69,-0.51,
5285,-0.685,-0.505,
5286,-0.705,-0.495,
5287,-0.71,-0.495,
5288,-0.72,-0.475,
5289,-0.69,-0.47,
5290,-0.705,-0.47,
5291,-0.685,-0.49,
5292,-0.68,-0.49,
5293,-0.695,-0.49,
5294,-0.71,-0.48,
5295,-0.725,-0.485,
5296,-0.715,-0.5,
5297,-0.72,-0.515,
5298,-0.735,-0.51,
5299,-0.745,-0.505,
5300,-0.745,-0.495,
5301,-0.745,-0.49,
5302,-0.755,-0.48,
5303,-0.745,-0.48,
5304,-0.745,-0.485,
5305,-0.75,-0.485,
5306,-0.755,-0.515,
5307,-0.77,-0.515,
5308,-0.785,-0.515,
5309,-0.8,-0.525,
5310,-0.805,-0.525,
5311,-0.805,-0.515,
5312,-0.805,-0.505,
5313,-0.8,-0.5,
5314,-0.795,-0.495,
5315,-0.785,-0.49,
5316,-0.785,-0.495,
5317,-0.785,-0.485,
5318,-0.785,-0.5,
5319,-0.785,-0.515,
5320,-0.785,-0.525,
5321,-0.795,-0.52,
5322,-0.81,-0.515,
5323,-0.82,-0.51,
5324,-0.815,-0.515,
5325,-0.805,-0.505,
5326,-0.795,-0.485,
5327,-0.78,-0.495,
5328,-0.775,-0.495,
5329,-0.785,-0.485,
5330,-0.795,-0.495,
5331,-0.805,-0.5,
5332,-0.81,-0.51,
5333,-0.82,-0.515,
5334,-0.805,-0.515,
5335,-0.8,-0.505,
5336,-0.79,-0.505,
5337,-0.805,-0.515,
5338,-0.81,-0.48,
5339,-0.785,-0.485,
5340,-0.79,-0.495,
5341,-0.795,-0.48,
5342,-0.795,-0.505,
5343,-0.795,-0.505,
5344,-0.8,-0.515,
5345,-0.8,-0.51,
5346,-0.81,-0.51,
5347,-0.82,-0.495,
5348,-0.815,-0.485,
5349,-0.815,-0.48,
5350,-0.81,-0.48,
5351,-0.8,-0.49,
5352,-0.815,-0.48,
5353,-0.805,-0.505,
5354,-0.815,-0.495,
5355,-0.815,-0.5,
5356,-0.81,-0.505,
5357,-0.815,-0.505,
5358,-0.84,-0.495,
5359,-0.82,-0.5,
5360,-0.81,-0.505,
5361,-0.82,-0.505,
5362,-0.815,-0.515,
5363,-0.805,-0.495,
5364,-0.81,-0.505,
5365,-0.795,-0.485,
5366,-0.8,-0.505,
5367,-0.82,-0.525,
5368,-0.815,-0.54,
5369,-0.81,-0.525,
5370,-0.81,-0.53,
5371,-0.805,-0.525,
5372,-0.815,-0.52,
5373,-0.8,-0.5,
5374,-0.8,-0.505,
5375,-0.795,-0.51,
5376,-0.79,-0.505,
5377,-0.775,-0.5,
5378,-0.78,-0.51,
5379,-0.79,-0.515,
5380,-0.8,-0.535,
5381,-0.81,-0.53,
5382,-0.815,-0.535,
5383,-0.81,-0.525,
5384,-0.805,-0.525,
5385,-0.8,-0.515,
5386,-0.795,-0.5,
5387,-0.785,-0.49,
5388,-0.775,-0.5,
5389,-0.765,-0.525,
5390,-0.78,-0.535,
5391,-0.795,-0.53,
5392,-0.8,-0.53,
5393,-0.79,-0.53,
5394,-0.8,-0.54,
5395,-0.795,-0.52,
5396,-0.795,-0.515,
5397,-0.785,-0.5,
5398,-0.785,-0.505,
5399,-0.77,-0.5,
5400,-0.77,-0.495,
5401,-0.77,-0.51,
5402,-0.775,-0.545,
5403,-0.78,-0.535,
5404,-0.785,-0.54,
5405,-0.78,-0.55,
5406,-0.78,-0.54,
5407,-0.785,-0.54,
5408,-0.78,-0.525,
5409,-0.755,-0.53,
5410,-0.76,-0.5,
5411,-0.745,-0.515,
5412,-0.755,-0.515,
5413,-0.765,-0.51,
5414,-0.765,-0.52,
5415,-0.765,-0.53,
5416,-0.765,-0.54,
5417,-0.78,-0.55,
5418,-0.765,-0.555,
5419,-0.77,-0.535,
5420,-0.755,-0.53,
5421,-0.76,-0.53,
5422,-0.765,-0.51,
5423,-0.755,-0.515,
5424,-0.745,-0.525,
5425,-0.745,-0.525,
5426,-0.75,-0.54,
5427,-0.755,-0.545,
5428,-0.76,-0.55,
5429,-0.77,-0.55,
5430,-0.765,-0.545,
5431,-0.765,-0.54,
5432,-0.755,-0.53,
5433,-0.755,-0.525,
5434,-0.75,-0.51,
5435,-0.74,-0.51,
5436,-0.73,-0.51,
5437,-0.74,-0.525,
5438,-0.73,-0.525,
5439,-0.745,-0.53,
5440,-0.745,-0.545,
5441,-0.765,-0.55,
5442,-0.77,-0.545,
5443,-0.785,-0.545,
5444,-0.77,-0.54,
5445,-0.75,-0.535,
5446,-0.75,-0.52,
5447,-0.73,-0.52,
5448,-0.72,-0.52,
5449,-0.715,-0.52,
5450,-0.72,-0.535,
5451,-0.715,-0.53,
5452,-0.71,-0.54,
5453,-0.73,-0.545,
5454,-0.735,-0.55,
5455,-0.72,-0.53,
5456,-0.715,-0.525,
5457,-0.715,-0.515,
5458,-0.705,-0.52,
5459,-0.695,-0.52,
5460,-0.7,-0.525,
5461,-0.705,-0.53,
5462,-0.71,-0.555,
5463,-0.72,-0.555,
5464,-0.72,-0.535,
5465,-0.72,-0.535,
5466,-0.695,-0.525,
5467,-0.675,-0.535,
5468,-0.66,-0.53,
5469,-0.65,-0.52,
5470,-0.665,-0.52,
5471,-0.67,-0.515,
5472,-0.665,-0.52,
5473,-0.66,-0.52,
5474,-0.66,-0.52,
5475,-0.66,-0.515,
5476,-0.645,-0.525,
5477,-0.64,-0.515,
5478,-0.64,-0.52,
5479,-0.625,-0.52,
5480,-0.615,-0.51,
5481,-0.59,-0.515,
5482,-0.58,-0.52,
5483,-0.565,-0.52,
5484,-0.57,-0.54,
5485,-0.57,-0.56,
5486,-0.58,-0.58,
5487,-0.57,-0.6,
5488,-0.575,-0.61,
5489,-0.555,-0.61,
5490,-0.565,-0.61,
5491,-0.555,-0.585,
5492,-0.55,-0.58,
5493,-0.535,-0.575,
5494,-0.54,-0.565,
5495,-0.535,-0.57,
5496,-0.525,-0.575,
5497,-0.515,-0.58,
5498,-0.49,-0.57,
5499,-0.495,-0.575,
5500,-0.495,-0.565,
5501,-0.505,-0.56,
5502,-0.51,-0.54,
5503,-0.52,-0.54,
5504,-0.515,-0.535,
5505,-0.53,-0.53,
5506,-0.535,-0.53,
5507,-0.515,-0.525,
5508,-0.515,-0.525,
5509,-0.515,-0.53,
5510,-0.5,-0.53,
5511,-0.52,-0.545,
5512,-0.53,-0.55,
5513,-0.53,-0.55,
5514,-0.53,-0.55,
5515,-0.525,-0.55,
5516,-0.52,-0.54,
5517,-0.51,-0.54,
5518,-0.5,-0.535,
5519,-0.475,-0.53,
5520,-0.46,-0.52,
5521,-0.46,-0.515,
5522,-0.46,-0.515,
5523,-0.46,-0.51,
5524,-0.465,-0.52,
5525,-0.46,-0.505,
5526,-0.455,-0.515,
5527,-0.42,-0.535,
5528,-0.4,-0.595,
5529,-0.375,-0.675,
5530,-0.335,-0.79,
5531,-0.28,-0.945,
5532,-0.205,-1.115,
5533,-0.11,-1.285,
5534,-0.015,-1.46,
5535,0.095,-1.6,
5536,0.195,-1.66,
5537,0.285,-1.64,
5538,0.365,-1.55,
5539,0.42,-1.415,
5540,0.455,-1.25,
5541,0.485,-1.105,
5542,0.52,-0.98,
5543,0.555,-0.885,
5544,0.59,-0.815,N
5545,0.58,-0.735,
5546,0.56,-0.675,
5547,0.505,-0.615,
5548,0.46,-0.57,
5549,0.385,-0.525,
5550,0.305,-0.515,
5551,0.225,-0.5,
5552,0.135,-0.5,
5553,0.06,-0.485,
5554,-0.02,-0.485,
5555,-0.105,-0.47,
5556,-0.17,-0.485,
5557,-0.22,-0.46,
5558,-0.275,-0.47,
5559,-0.305,-0.465,
5560,-0.33,-0.47,
5561,-0.32,-0.47,
5562,-0.325,-0.47,
5563,-0.315,-0.45,
5564,-0.315,-0.455,
5565,-0.295,-0.44,
5566,-0.28,-0.43,
5567,-0.275,-0.435,
5568,-0.285,-0.435,
5569,-0.275,-0.44,
5570,-0.275,-0.445,
5571,-0.275,-0.445,
5572,-0.285,-0.45,
5573,-0.29,-0.455,
5574,-0.29,-0.45,
5575,-0.285,-0.435,
5576,-0.29,-0.435,
5577,-0.265,-0.435,
5578,-0.27,-0.415,
5579,-0.245,-0.405,
5580,-0.255,-0.41,
5581,-0.235,-0.43,
5582,-0.25,-0.435,
5583,-0.26,-0.44,
5584,-0.265,-0.445,
5585,-0.25,-0.455,
5586,-0.255,-0.46,
5587,-0.24,-0.44,
5588,-0.235,-0.42,
5589,-0.225,-0.43,
5590,-0.215,-0.42,
5591,-0.21,-0.42,
5592,-0.2,-0.425,
5593,-0.21,-0.42,
5594,-0.205,-0.435,
5595,-0.215,-0.435,
5596,-0.225,-0.45,
5597,-0.22,-0.46,
5598,-0.21,-0.46,
5599,-0.205,-0.45,
5600,-0.2,-0.455,
5601,-0.18,-0.455,
5602,-0.18,-0.435,
5603,-0.17,-0.425,
5604,-0.175,-0.445,
5605,-0.175,-0.43,
5606,-0.18,-0.445,
5607,-0.175,-0.455,
5608,-0.175,-0.455,
5609,-0.19,-0.46,
5610,-0.19,-0.455,
5611,-0.185,-0.455,
5612,-0.185,-0.455,
5613,-0.165,-0.445,
5614,-0.16,-0.445,
5615,-0.15,-0.44,
5616,-0.145,-0.44,
5617,-0.15,-0.44,
5618,-0.15,-0.445,
5619,-0.15,-0.46,
5620,-0.145,-0.45,
5621,-0.14,-0.46,
5622,-0.145,-0.46,
5623,-0.145,-0.455,
5624,-0.135,-0.44,
5625,-0.12,-0.435,
5626,-0.105,-0.435,
5627,-0.11,-0.42,
5628,-0.105,-0.44,
5629,-0.115,-0.45,
5630,-0.1,-0.465,
5631,-0.11,-0.455,
5632,-0.105,-0.485,
5633,-0.115,-0.49,
5634,-0.095,-0.465,
5635,-0.1,-0.46,
5636,-0.095,-0.455,
5637,-0.085,-0.45,
5638,-0.09,-0.46,
5639,-0.09,-0.465,
5640,-0.075,-0.485,
5641,-0.075,-0.485,
5642,-0.065,-0.485,
5643,-0.085,-0.5,
5644,-0.095,-0.495,
5645,-0.095,-0.515,
5646,-0.1,-0.51,
5647,-0.085,-0.505,
5648,-0.085,-0.51,
5649,-0.08,-0.5,
5650,-0.08,-0.515,
5651,-0.075,-0.505,
5652,-0.075,-0.505,
5653,-0.09,-0.515,
5654,-0.09,-0.525,
5655,-0.1,-0.53,
5656,-0.115,-0.53,
5657,-0.125,-0.525,
5658,-0.135,-0.525,
5659,-0.145,-0.525,
5660,-0.15,-0.52,
5661,-0.14,-0.515,
5662,-0.145,-0.495,
5663,-0.15,-0.49,
5664,-0.14,-0.5,
5665,-0.15,-0.505,
5666,-0.17,-0.515,
5667,-0.17,-0.52,
5668,-0.18,-0.525,
5669,-0.18,-0.52,
5670,-0.185,-0.52,
5671,-0.19,-0.51,
5672,-0.185,-0.51,
5673,-0.185,-0.505,
5674,-0.185,-0.485,
5675,-0.175,-0.49,
5676,-0.175,-0.485,
5677,-0.18,-0.5,
5678,-0.175,-0.495,
5679,-0.185,-0.5,
5680,-0.19,-0.505,
5681,-0.2,-0.505,
5682,-0.195,-0.505,
5683,-0.19,-0.495,
5684,-0.195,-0.49,
5685,-0.19,-0.48,
5686,-0.2,-0.475,
5687,-0.18,-0.465,
5688,-0.18,-0.47,
5689,-0.185,-0.465,
5690,-0.185,-0.475,
5691,-0.185,-0.47,
5692,-0.195,-0.485,
5693,-0.21,-0.5,
5694,-0.215,-0.49,
5695,-0.21,-0.495,
5696,-0.215,-0.49,
5697,-0.195,-0.48,
5698,-0.195,-0.465,
5699,-0.18,-0.455,
5700,-0.18,-0.455,
5701,-0.175,-0.45,
5702,-0.19,-0.47,
5703,-0.205,-0.475,
5704,-0.225,-0.5,
5705,-0.235,-0.48,
5706,-0.23,-0.495,
5707,-0.23,-0.465,
5708,-0.225,-0.47,
5709,-0.22,-0.47,
5710,-0.22,-0.465,
5711,-0.22,-0.465,
5712,-0.22,-0.48,
5713,-0.22,-0.48,
5714,-0.225,-0.48,
5715,-0.235,-0.48,
5716,-0.23,-0.49,
5717,-0.24,-0.5,
5718,-0.235,-0.495,
5719,-0.23,-0.495,
5720,-0.225,-0.48,
5721,-0.22,-0.48,
5722,-0.22,-0.47,
5723,-0.215,-0.475,
5724,-0.21,-0.465,
5725,-0.22,-0.485,
5726,-0.21,-0.495,
5727,-0.215,-0.485,
5728,-0.215,-0.515,
5729,-0.22,-0.505,
5730,-0.2,-0.505,
5731,-0.205,-0.5,
5732,-0.2,-0.48,
5733,-0.21,-0.485,
5734,-0.195,-0.47,
5735,-0.18,-0.475,
5736,-0.185,-0.485,
5737,-0.165,-0.485,
5738,-0.17,-0.49,
5739,-0.17,-0.5,
5740,-0.17,-0.505,
5741,-0.19,-0.515,
5742,-0.185,-0.51,
5743,-0.18,-0.51,
5744,-0.18,-0.51,
5745,-0.17,-0.5,
5746,-0.16,-0.49,
5747,-0.15,-0.475,
5748,-0.15,-0.49,
5749,-0.145,-0.485,
5750,-0.145,-0.505,
5751,-0.16,-0.505,
5752,-0.16,-0.505,
5753,-0.175,-0.51,
5754,-0.175,-0.51,
5755,-0.175,-0.5,
5756,-0.165,-0.495,
5757,-0.155,-0.495,
5758,-0.15,-0.485,
5759,-0.145,-0.475,
5760,-0.135,-0.48,
5761,-0.14,-0.495,
5762,-0.145,-0.495,
5763,-0.155,-0.5,
5764,-0.15,-0.495,
5765,-0.16,-0.5,
5766,-0.155,-0.505,
5767,-0.16,-0.495,
5768,-0.15,-0.495,
5769,-0.15,-0.51,
5770,-0.14,-0.485,
5771,-0.13,-0.48,
5772,-0.135,-0.475,
5773,-0.135,-0.48,
5774,-0.125,-0.485,
5775,-0.13,-0.495,
5776,-0.145,-0.51,
5777,-0.14,-0.51,
5778,-0.145,-0.51,
5779,-0.15,-0.5,
5780,-0.15,-0.485,
5781,-0.155,-0.49,
5782,-0.145,-0.48,
5783,-0.125,-0.48,
5784,-0.12,-0.49,
5785,-0.13,-0.48,
5786,-0.125,-0.5,
5787,-0.14,-0.505,
5788,-0.145,-0.505,
5789,-0.155,-0.505,
5790,-0.155,-0.52,
5791,-0.165,-0.505,
5792,-0.165,-0.5,
5793,-0.16,-0.48,
5794,-0.15,-0.485,
5795,-0.12,-0.47,
5796,-0.12,-0.475,
5797,-0.11,-0.5,
5798,-0.115,-0.495,
5799,-0.125,-0.52,
5800,-0.125,-0.51,
5801,-0.14,-0.525,
5802,-0.145,-0.525,
5803,-0.15,-0.515,
5804,-0.14,-0.505,
5805,-0.135,-0.49,
5806,-0.13,-0.5,
5807,-0.115,-0.49,
5808,-0.11,-0.49,
5809,-0.11,-0.495,
5810,-0.12,-0.495,
5811,-0.125,-0.5,
5812,-0.15,-0.515,
5813,-0.13,-0.515,
5814,-0.135,-0.52,
5815,-0.14,-0.51,
5816,-0.125,-0.505,
5817,-0.125,-0.49,
5818,-0.125,-0.485,
5819,-0.12,-0.475,
5820,-0.11,-0.485,
5821,-0.105,-0.495,
5822,-0.105,-0.49,
5823,-0.12,-0.51,
5824,-0.125,-0.515,
5825,-0.13,-0.51,
5826,-0.135,-0.51,
5827,-0.135,-0.5,
5828,-0.125,-0.505,
5829,-0.11,-0.505,
5830,-0.115,-0.49,
5831,-0.105,-0.475,
5832,-0.105,-0.475,
5833,-0.11,-0.485,
5834,-0.12,-0.485,
5835,-0.12,-0.495,
5836,-0.1,-0.505,
5837,-0.1,-0.5,
5838,-0.08,-0.515,
5839,-0.07,-0.525,
5840,-0.075,-0.51,
5841,-0.055,-0.525,
5842,-0.055,-0.54,
5843,-0.055,-0.54,
5844,-0.05,-0.56,
5845,-0.06,-0.575,
5846,-0.07,-0.585,
5847,-0.07,-0.59,
5848,-0.08,-0.595,
5849,-0.075,-0.585,
5850,-0.08,-0.58,
5851,-0.08,-0.57,
5852,-0.08,-0.575,
5853,-0.07,-0.56,
5854,-0.065,-0.555,
5855,-0.06,-0.55,
5856,-0.05,-0.545,
5857,-0.05,-0.535,
5858,-0.06,-0.525,
5859,-0.065,-0.525,
5860,-0.075,-0.525,
5861,-0.095,-0.51,
5862,-0.1,-0.5,
5863,-0.105,-0.51,
5864,-0.105,-0.495,
5865,-0.11,-0.495,
5866,-0.115,-0.49,
5867,-0.125,-0.485,
5868,-0.11,-0.495,
5869,-0.115,-0.495,
5870,-0.11,-0.49,
5871,-0.125,-0.5,
5872,-0.135,-0.51,
5873,-0.145,-0.51,
5874,-0.14,-0.515,
5875,-0.15,-0.51,
5876,-0.16,-0.505,
5877,-0.14,-0.495,
5878,-0.13,-0.48,
5879,-0.12,-0.475,
5880,-0.13,-0.465,
5881,-0.105,-0.47,
5882,-0.105,-0.46,
5883,-0.11,-0.46,
5884,-0.105,-0.505,
5885,-0.105,-0.535,
5886,-0.095,-0.625,
5887,-0.085,-0.755,
5888,-0.055,-0.905,
5889,0.015,-1.08,
5890,0.095,-1.275,
5891,0.185,-1.46,
5892,0.295,-1.64,
5893,0.38,-1.76,
5894,0.495,-1.81,
5895,0.565,-1.74,
5896,0.615,-1.62,
5897,0.645,-1.445,
5898,0.68,-1.265,
5899,0.715,-1.115,
5900,0.765,-0.98,
5901,0.805,-0.865,N
5902,0.83,-0.76,
5903,0.815,-0.675,
5904,0.765,-0.595,
5905,0.695,-0.545,
5906,0.625,-0.5,
5907,0.555,-0.485,
5908,0.465,-0.48,
5909,0.375,-0.475,
5910,0.285,-0.47,
5911,0.195,-0.465,
5912,0.12,-0.44,
5913,0.07,-0.43,
5914,0.03,-0.415,
5915,-0.01,-0.41,
5916,-0.045,-0.4,
5917,-0.08,-0.4,
5918,-0.115,-0.42,
5919,-0.115,-0.425,
5920,-0.115,-0.425,
5921,-0.12,-0.415,
5922,-0.115,-0.405,
5923,-0.115,-0.405,
5924,-0.115,-0.405,
5925,-0.11,-0.39,
5926,-0.115,-0.38,
5927,-0.1,-0.375,
5928,-0.105,-0.375,
5929,-0.1,-0.385,
5930,-0.1,-0.395,
5931,-0.1,-0.385,
5932,-0.1,-0.39,
5933,-0.105,-0.39,
5934,-0.11,-0.4,
5935,-0.11,-0.385,
5936,-0.115,-0.38,
5937,-0.1,-0.38,
5938,-0.1,-0.37,
5939,-0.08,-0.35,
5940,-0.08,-0.36,
5941,-0.075,-0.375,
5942,-0.075,-0.38,
5943,-0.08,-0.39,
5944,-0.1,-0.4,
5945,-0.105,-0.39,
5946,-0.1,-0.405,
5947,-0.1,-0.39,
5948,-0.1,-0.38,
5949,-0.095,-0.37,
5950,-0.075,-0.37,
5951,-0.08,-0.355,
5952,-0.075,-0.37,
5953,-0.08,-0.36,
5954,-0.075,-0.375,
5955,-0.06,-0.38,
5956,-0.06,-0.39,
5957,-0.075,-0.395,
5958,-0.085,-0.39,
5959,-0.085,-0.39,
5960,-0.07,-0.37,
5961,-0.065,-0.365,
5962,-0.06,-0.36,
5963,-0.05,-0.345,
5964,-0.04,-0.355,
5965,-0.05,-0.375,
5966,-0.05,-0.365,
5967,-0.055,-0.375,
5968,-0.065,-0.38,
5969,-0.06,-0.39,
5970,-0.065,-0.38,
5971,-0.065,-0.39,
5972,-0.06,-0.385,
5973,-0.065,-0.38,
5974,-0.05,-0.375,
5975,-0.035,-0.355,
5976,-0.04,-0.365,
5977,-0.03,-0.36,
5978,-0.03,-0.36,
5979,-0.04,-0.375,
5980,-0.04,-0.39,
5981,-0.04,-0.4,
5982,-0.06,-0.395,
5983,-0.055,-0.37,
5984,-0.04,-0.37,
5985,-0.05,-0.36,
5986,-0.03,-0.355,
5987,-0.01,-0.345,
5988,-0.02,-0.36,
5989,-0.015,-0.365,
5990,-0.015,-0.375,
5991,-0.025,-0.385,
5992,-0.035,-0.395,
5993,-0.04,-0.405,
5994,-0.04,-0.41,
5995,-0.035,-0.405,
5996,-0.035,-0.395,
5997,-0.025,-0.395,
5998,-0.03,-0.395,
5999,-0.015,-0.38,
6000,-0.035,-0.4,
6001,-0.025,-0.42,
6002,-0.025,-0.425,
6003,-0.03,-0.425,
6004,-0.035,-0.44,
6005,-0.045,-0.45,
6006,-0.035,-0.45,
6007,-0.05,-0.45,
6008,-0.035,-0.44,
6009,-0.05,-0.435,
6010,-0.05,-0.445,
6011,-0.05,-0.445,
6012,-0.04,-0.445,
6013,-0.055,-0.45,
6014,-0.05,-0.455,
6015,-0.065,-0.465,
6016,-0.07,-0.47,
6017,-0.09,-0.475,
6018,-0.105,-0.485,
6019,-0.11,-0.48,
6020,-0.105,-0.485,
6021,-0.115,-0.475,
6022,-0.115,-0.465,
6023,-0.11,-0.455,
6024,-0.115,-0.455,
6025,-0.115,-0.475,
6026,-0.125,-0.47,
6027,-0.135,-0.49,
6028,-0.14,-0.49,
6029,-0.17,-0.495,
6030,-0.18,-0.5,
6031,-0.185,-0.48,
6032,-0.19,-0.48,
6033,-0.175,-0.46,
6034,-0.175,-0.465,
6035,-0.175,-0.47,
6036,-0.17,-0.455,
6037,-0.175,-0.46,
6038,-0.195,-0.47,
6039,-0.19,-0.48,
6040,-0.205,-0.48,
6041,-0.22,-0.49,
6042,-0.235,-0.475,
6043,-0.235,-0.475,
6044,-0.24,-0.47,
6045,-0.235,-0.46,
6046,-0.24,-0.455,
6047,-0.225,-0.445,
6048,-0.245,-0.44,
6049,-0.23,-0.445,
6050,-0.24,-0.435,
6051,-0.255,-0.455,
6052,-0.25,-0.45,
6053,-0.265,-0.455,
6054,-0.285,-0.455,
6055,-0.28,-0.46,
6056,-0.295,-0.435,
6057,-0.3,-0.43,
6058,-0.265,-0.425,
6059,-0.265,-0.425,
6060,-0.26,-0.415,
6061,-0.28,-0.435,
6062,-0.285,-0.435,
6063,-0.285,-0.45,
6064,-0.31,-0.44,
6065,-0.305,-0.47,
6066,-0.315,-0.46,
6067,-0.32,-0.45,
6068,-0.315,-0.445,
6069,-0.325,-0.44,
6070,-0.32,-0.44,
6071,-0.315,-0.435,
6072,-0.325,-0.435,
6073,-0.33,-0.45,
6074,-0.325,-0.45,
6075,-0.335,-0.455,
6076,-0.345,-0.455,
6077,-0.34,-0.46,
6078,-0.355,-0.465,
6079,-0.355,-0.47,
6080,-0.355,-0.47,
6081,-0.35,-0.455,
6082,-0.345,-0.45,
6083,-0.35,-0.45,
6084,-0.35,-0.445,
6085,-0.34,-0.46,
6086,-0.34,-0.46,
6087,-0.355,-0.485,
6088,-0.36,-0.495,
6089,-0.36,-0.48,
6090,-0.37,-0.49,
6091,-0.365,-0.49,
6092,-0.38,-0.485,
6093,-0.36,-0.465,
6094,-0.37,-0.465,
6095,-0.355,-0.46,
6096,-0.35,-0.475,
6097,-0.35,-0.47,
6098,-0.37,-0.47,
6099,-0.36,-0.47,
6100,-0.355,-0.485,
6101,-0.36,-0.495,
6102,-0.37,-0.505,
6103,-0.365,-0.49,
6104,-0.365,-0.495,
6105,-0.36,-0.485,
6106,-0.35,-0.475,
6107,-0.345,-0.455,
6108,-0.33,-0.465,
6109,-0.335,-0.475,
6110,-0.335,-0.475,
6111,-0.345,-0.495,
6112,-0.355,-0.5,
6113,-0.375,-0.495,
6114,-0.38,-0.5,
6115,-0.38,-0.51,
6116,-0.38,-0.5,
6117,-0.37,-0.495,
6118,-0.36,-0.48,
6119,-0.355,-0.475,
6120,-0.36,-0.47,
6121,-0.355,-0.465,
6122,-0.365,-0.495,
6123,-0.36,-0.49,
6124,-0.365,-0.51,
6125,-0.38,-0.5,
6126,-0.385,-0.505,
6127,-0.39,-0.505,
6128,-0.395,-0.505,
6129,-0.385,-0.475,
6130,-0.375,-0.485,
6131,-0.375,-0.475,
6132,-0.38,-0.47,
6133,-0.375,-0.48,
6134,-0.37,-0.49,
6135,-0.375,-0.505,
6136,-0.38,-0.505,
6137,-0.39,-0.505,
6138,-0.39,-0.51,
6139,-0.4,-0.51,
6140,-0.395,-0.495,
6141,-0.39,-0.49,
6142,-0.385,-0.48,
6143,-0.375,-0.48,
6144,-0.36,-0.49,
6145,-0.37,-0.5,
6146,-0.37,-0.51,
6147,-0.37,-0.515,
6148,-0.375,-0.51,
6149,-0.39,-0.52,
6150,-0.4,-0.51,
6151,-0.41,-0.51,
6152,-0.39,-0.505,
6153,-0.385,-0.5,
6154,-0.375,-0.495,
6155,-0.375,-0.49,
6156,-0.365,-0.495,
6157,-0.37,-0.485,
6158,-0.37,-0.505,
6159,-0.38,-0.515,
6160,-0.38,-0.515,
6161,-0.405,-0.525,
6162,-0.405,-0.53,
6163,-0.405,-0.53,
6164,-0.4,-0.52,
6165,-0.39,-0.51,
6166,-0.39,-0.5,
6167,-0.375,-0.49,
6168,-0.38,-0.49,
6169,-0.385,-0.505,
6170,-0.39,-0.5,
6171,-0.39,-0.52,
6172,-0.41,-0.525,
6173,-0.4,-0.54,
6174,-0.405,-0.525,
6175,-0.405,-0.52,
6176,-0.4,-0.515,
6177,-0.405,-0.5,
6178,-0.39,-0.49,
6179,-0.395,-0.5,
6180,-0.38,-0.5,
6181,-0.38,-0.495,
6182,-0.39,-0.51,
6183,-0.395,-0.505,
6184,-0.4,-0.515,
6185,-0.405,-0.52,
6186,-0.41,-0.53,
6187,-0.41,-0.52,
6188,-0.4,-0.52,
6189,-0.405,-0.5,
6190,-0.385,-0.5,
6191,-0.38,-0.49,
6192,-0.385,-0.485,
6193,-0.385,-0.505,
6194,-0.39,-0.505,
6195,-0.395,-0.52,
6196,-0.395,-0.52,
6197,-0.415,-0.515,
6198,-0.415,-0.52,
6199,-0.41,-0.505,
6200,-0.395,-0.485,
6201,-0.385,-0.48,
6202,-0.365,-0.47,
6203,-0.345,-0.475,
6204,-0.345,-0.5,
6205,-0.33,-0.52,
6206,-0.33,-0.54,
6207,-0.34,-0.565,
6208,-0.365,-0.585,
6209,-0.355,-0.59,
6210,-0.36,-0.61,
6211,-0.36,-0.61,
6212,-0.355,-0.6,
6213,-0.35,-0.585,
6214,-0.35,-0.565,
6215,-0.345,-0.57,
6216,-0.35,-0.575,
6217,-0.34,-0.585,
6218,-0.34,-0.58,
6219,-0.345,-0.58,
6220,-0.34,-0.585,
6221,-0.35,-0.57,
6222,-0.37,-0.565,
6223,-0.365,-0.54,
6224,-0.365,-0.52,
6225,-0.38,-0.505,
6226,-0.365,-0.505,
6227,-0.37,-0.49,
6228,-0.375,-0.505,
6229,-0.375,-0.505,
6230,-0.39,-0.515,
6231,-0.395,-0.52,
6232,-0.415,-0.525,
6233,-0.415,-0.53,
6234,-0.435,-0.525,
6235,-0.44,-0.53,
6236,-0.435,-0.515,
6237,-0.44,-0.515,
6238,-0.42,-0.51,
6239,-0.415,-0.5,
6240,-0.41,-0.495,
6241,-0.41,-0.5,
6242,-0.405,-0.5,
6243,-0.4,-0.505,
6244,-0.415,-0.5,
6245,-0.425,-0.485,
6246,-0.415,-0.5,
6247,-0.415,-0.49,
6248,-0.415,-0.52,
6249,-0.395,-0.56,
6250,-0.37,-0.655,
6251,-0.34,-0.8,
6252,-0.315,-0.98,
6253,-0.25,-1.19,
6254,-0.17,-1.425,
6255,-0.07,-1.625,
6256,0.025,-1.795,
6257,0.115,-1.875,
6258,0.18,-1.85,
6259,0.25,-1.73,
6260,0.28,-1.55,
6261,0.32,-1.355,
6262,0.365,-1.185,
6263,0.42,-1.025,
6264,0.48,-0.915,
6265,0.5,-0.82,N
6266,0.5,-0.725,
6267,0.45,-0.65,
6268,0.38,-0.595,
6269,0.3,-0.55,
6270,0.21,-0.53,
6271,0.125,-0.515,
6272,0.025,-0.505,
6273,-0.05,-0.49,
6274,-0.125,-0.48,
6275,-0.185,-0.465,
6276,-0.225,-0.445,
6277,-0.26,-0.44,
6278,-0.295,-0.45,
6279,-0.34,-0.455,
6280,-0.37,-0.455,
6281,-0.39,-0.46,
6282,-0.415,-0.45,
6283,-0.42,-0.45,
6284,-0.405,-0.445,
6285,-0.4,-0.43,
6286,-0.385,-0.425,
6287,-0.38,-0.41,
6288,-0.375,-0.41,
6289,-0.375,-0.415,
6290,-0.39,-0.43,
6291,-0.385,-0.43,
6292,-0.39,-0.43,
6293,-0.39,-0.44,
6294,-0.39,-0.43,
6295,-0.395,-0.435,
6296,-0.39,-0.425,
6297,-0.395,-0.405,
6298,-0.385,-0.41,
6299,-0.38,-0.405,
6300,-0.39,-0.395,
6301,-0.365,-0.4,
6302,-0.37,-0.405,
6303,-0.375,-0.415,
6304,-0.375,-0.41,
6305,-0.38,-0.42,
6306,-0.39,-0.42,
6307,-0.385,-0.415,
6308,-0.385,-0.415,
6309,-0.37,-0.395,
6310,-0.36,-0.395,
6311,-0.365,-0.39,
6312,-0.35,-0.405,
6313,-0.355,-0.4,
6314,-0.355,-0.4,
6315,-0.35,-0.415,
6316,-0.365,-0.42,
6317,-0.37,-0.425,
6318,-0.375,-0.435,
6319,-0.37,-0.425,
6320,-0.37,-0.425,
6321,-0.36,-0.42,
6322,-0.355,-0.415,
6323,-0.345,-0.405,
6324,-0.345,-0.395,
6325,-0.34,-0.395,
6326,-0.345,-0.41,
6327,-0.35,-0.42,
6328,-0.355,-0.415,
6329,-0.365,-0.425,
6330,-0.365,-0.425,
6331,-0.37,-0.43,
6332,-0.365,-0.42,
6333,-0.365,-0.41,
6334,-0.36,-0.405,
6335,-0.34,-0.4,
6336,-0.335,-0.4,
6337,-0.335,-0.4,
6338,-0.34,-0.405,
6339,-0.345,-0.415,
6340,-0.345,-0.425,
6341,-0.35,-0.435,
6342,-0.35,-0.44,
6343,-0.355,-0.43,
6344,-0.345,-0.425,
6345,-0.34,-0.425,
6346,-0.34,-0.41,
6347,-0.325,-0.41,
6348,-0.325,-0.41,
6349,-0.32,-0.41,
6350,-0.315,-0.425,
6351,-0.32,-0.43,
6352,-0.32,-0.45,
6353,-0.335,-0.44,
6354,-0.33,-0.455,
6355,-0.335,-0.45,
6356,-0.335,-0.445,
6357,-0.325,-0.45,
6358,-0.305,-0.43,
6359,-0.305,-0.425,
6360,-0.305,-0.44,
6361,-0.305,-0.46,
6362,-0.31,-0.46,
6363,-0.315,-0.48,
6364,-0.33,-0.485,
6365,-0.335,-0.49,
6366,-0.35,-0.495,
6367,-0.345,-0.495,
6368,-0.35,-0.48,
6369,-0.345,-0.48,
6370,-0.335,-0.48,
6371,-0.345,-0.475,
6372,-0.345,-0.485,
6373,-0.35,-0.49,
6374,-0.365,-0.49,
6375,-0.375,-0.5,
6376,-0.39,-0.515,
6377,-0.39,-0.515,
6378,-0.395,-0.53,
6379,-0.405,-0.53,
6380,-0.42,-0.52,
6381,-0.42,-0.505,
6382,-0.435,-0.51,
6383,-0.43,-0.495,
6384,-0.42,-0.495,
6385,-0.43,-0.51,
6386,-0.435,-0.52,
6387,-0.455,-0.525,
6388,-0.47,-0.525,
6389,-0.49,-0.53,
6390,-0.495,-0.535,
6391,-0.51,-0.52,
6392,-0.505,-0.525,
6393,-0.5,-0.5,
6394,-0.51,-0.5,
6395,-0.505,-0.495,
6396,-0.505,-0.49,
6397,-0.505,-0.485,
6398,-0.52,-0.495,
6399,-0.53,-0.5,
6400,-0.545,-0.515,
6401,-0.555,-0.525,
6402,-0.57,-0.515,
6403,-0.565,-0.5,
6404,-0.56,-0.5,
6405,-0.56,-0.48,
6406,-0.555,-0.47,
6407,-0.56,-0.46,
6408,-0.555,-0.47,
6409,-0.575,-0.475,
