,MLII,V1,symbol
0,-0.78,-0.735,
1,-0.78,-0.735,
2,-0.78,-0.735,
3,-0.78,-0.735,
4,-0.78,-0.735,
5,-0.78,-0.735,
6,-0.78,-0.735,
7,-0.78,-0.69,
8,-0.78,-0.685,
9,-0.775,-0.715,
10,-0.755,-0.74,
11,-0.755,-0.735,
12,-0.745,-0.675,
13,-0.745,-0.66,
14,-0.765,-0.685,
15,-0.76,-0.75,
16,-0.745,-0.785,
17,-0.745,-0.77,+
18,-0.76,-0.705,
19,-0.76,-0.635,
20,-0.75,-0.65,
21,-0.735,-0.705,
22,-0.705,-0.745,
23,-0.695,-0.78,
24,-0.69,-0.735,
25,-0.705,-0.695,
26,-0.725,-0.68,
27,-0.72,-0.71,
28,-0.7,-0.765,
29,-0.665,-0.77,
30,-0.645,-0.735,
31,-0.61,-0.675,
32,-0.595,-0.64,
33,-0.58,-0.67,
34,-0.55,-0.71,
35,-0.52,-0.72,
36,-0.535,-0.665,
37,-0.54,-0.61,
38,-0.55,-0.62,
39,-0.545,-0.665,
40,-0.535,-0.69,
41,-0.54,-0.685,
42,-0.545,-0.635,
43,-0.56,-0.59,
44,-0.575,-0.62,
45,-0.585,-0.665,
46,-0.58,-0.68,
47,-0.58,-0.66,
48,-0.59,-0.595,
49,-0.605,-0.58,
50,-0.605,-0.61,
51,-0.605,-0.695,
52,-0.61,-0.745,
53,-0.61,-0.74,
54,-0.645,-0.695,
55,-0.685,-0.66,
56,-0.69,-0.68,
57,-0.715,-0.7,
58,-0.7,-0.755,
59,-0.715,-0.76,
60,-0.735,-0.705,
61,-0.755,-0.69,
62,-0.79,-0.675,
63,-0.775,-0.745,
64,-0.795,-0.79,
65,-0.785,-0.77,
66,-0.795,-0.715,
67,-0.81,-0.66,
68,-0.78,-0.645,
69,-0.765,-0.7,
70,-0.755,-0.745,
71,-0.74,-0.76,
72,-0.74,-0.72,
73,-0.785,-0.69,
74,-0.825,-0.68,
75,-0.84,-0.74,
76,-0.89,-0.785,
77,-0.925,-0.8,
78,-0.96,-0.765,
79,-0.965,-0.705,
80,-0.95,-0.665,
81,-0.87,-0.66,
82,-0.73,-0.625,
83,-0.555,-0.555,
84,-0.345,-0.445,
85,-0.14,-0.375,
86,0.05,-0.36,
87,0.235,-0.405,
88,0.41,-0.42,
89,0.57,-0.42,
90,0.705,-0.405,
91,0.8,-0.425,
92,0.845,-0.54,
93,0.855,-0.695,N
94,0.845,-0.86,
95,0.805,-0.925,
96,0.73,-0.89,
97,0.65,-0.815,
98,0.53,-0.735,
99,0.34,-0.665,
100,0.065,-0.595,
101,-0.26,-0.585,
102,-0.555,-0.6,
103,-0.745,-0.68,
104,-0.82,-0.75,
105,-0.815,-0.82,
106,-0.755,-0.815,
107,-0.7,-0.74,
108,-0.67,-0.675,
109,-0.67,-0.7,
110,-0.695,-0.73,
111,-0.74,-0.745,
112,-0.77,-0.765,
113,-0.84,-0.695,
114,-0.865,-0.66,
115,-0.86,-0.69,
116,-0.845,-0.71,
117,-0.82,-0.705,
118,-0.81,-0.65,
119,-0.83,-0.625,
120,-0.855,-0.615,
121,-0.855,-0.68,
122,-0.84,-0.72,
123,-0.845,-0.725,
124,-0.83,-0.68,
125,-0.84,-0.625,
126,-0.85,-0.62,
127,-0.84,-0.655,
128,-0.815,-0.69,
129,-0.8,-0.69,
130,-0.81,-0.625,
131,-0.82,-0.595,
132,-0.85,-0.605,
133,-0.86,-0.66,
134,-0.84,-0.715,
135,-0.83,-0.71,
136,-0.835,-0.655,
137,-0.84,-0.605,
138,-0.845,-0.605,
139,-0.835,-0.62,
140,-0.805,-0.67,
141,-0.8,-0.635,
142,-0.8,-0.615,
143,-0.805,-0.55,
144,-0.82,-0.55,
145,-0.83,-0.615,
146,-0.825,-0.66,
147,-0.81,-0.67,
148,-0.84,-0.63,
149,-0.865,-0.57,
150,-0.865,-0.55,
151,-0.855,-0.575,
152,-0.82,-0.615,
153,-0.8,-0.605,
154,-0.77,-0.535,
155,-0.785,-0.5,
156,-0.78,-0.495,
157,-0.795,-0.525,
158,-0.79,-0.59,
159,-0.79,-0.595,
160,-0.8,-0.55,
161,-0.82,-0.52,
162,-0.82,-0.505,
163,-0.8,-0.545,
164,-0.765,-0.575,
165,-0.715,-0.565,
166,-0.73,-0.485,
167,-0.74,-0.45,
168,-0.755,-0.465,
169,-0.765,-0.52,
170,-0.77,-0.605,
171,-0.755,-0.625,
172,-0.765,-0.575,
173,-0.765,-0.535,
174,-0.76,-0.52,
175,-0.76,-0.55,
176,-0.74,-0.595,
177,-0.72,-0.605,
178,-0.715,-0.575,
179,-0.725,-0.535,
180,-0.725,-0.545,
181,-0.72,-0.6,
182,-0.72,-0.66,
183,-0.715,-0.65,
184,-0.735,-0.63,
185,-0.74,-0.6,
186,-0.755,-0.63,
187,-0.735,-0.665,
188,-0.725,-0.705,
189,-0.72,-0.67,
190,-0.72,-0.62,
191,-0.755,-0.595,
192,-0.77,-0.66,
193,-0.77,-0.725,
194,-0.74,-0.75,
195,-0.74,-0.72,
196,-0.735,-0.67,
197,-0.755,-0.665,
198,-0.76,-0.685,
199,-0.76,-0.745,
200,-0.765,-0.75,
201,-0.745,-0.73,
202,-0.73,-0.655,
203,-0.75,-0.65,
204,-0.74,-0.69,
205,-0.74,-0.75,
206,-0.745,-0.775,
207,-0.72,-0.74,
208,-0.76,-0.705,
209,-0.785,-0.695,
210,-0.78,-0.72,
211,-0.785,-0.77,
212,-0.755,-0.77,
213,-0.75,-0.725,
214,-0.755,-0.655,
215,-0.77,-0.655,
216,-0.78,-0.695,
217,-0.77,-0.78,
218,-0.765,-0.815,
219,-0.775,-0.78,
220,-0.795,-0.73,
221,-0.805,-0.69,
222,-0.83,-0.725,
223,-0.82,-0.76,
224,-0.8,-0.78,
225,-0.785,-0.735,
226,-0.785,-0.7,
227,-0.8,-0.67,
228,-0.805,-0.715,
229,-0.81,-0.765,
230,-0.825,-0.8,
231,-0.825,-0.76,
232,-0.85,-0.72,
233,-0.87,-0.72,
234,-0.88,-0.76,
235,-0.86,-0.795,
236,-0.85,-0.8,
237,-0.84,-0.73,
238,-0.835,-0.68,
239,-0.855,-0.675,
240,-0.855,-0.73,
241,-0.85,-0.775,
242,-0.84,-0.795,
243,-0.845,-0.77,
244,-0.855,-0.725,
245,-0.865,-0.7,
246,-0.865,-0.75,
247,-0.84,-0.8,
248,-0.825,-0.785,
249,-0.82,-0.74,
250,-0.81,-0.695,
251,-0.82,-0.69,
252,-0.81,-0.755,
253,-0.775,-0.8,
254,-0.79,-0.785,
255,-0.785,-0.75,
256,-0.8,-0.715,
257,-0.815,-0.73,
258,-0.79,-0.78,
259,-0.755,-0.805,
260,-0.72,-0.785,
261,-0.71,-0.72,
262,-0.685,-0.69,
263,-0.69,-0.685,
264,-0.67,-0.75,
265,-0.655,-0.8,
266,-0.625,-0.775,
267,-0.61,-0.72,
268,-0.63,-0.675,
269,-0.63,-0.68,
270,-0.635,-0.71,
271,-0.63,-0.74,
272,-0.61,-0.73,
273,-0.605,-0.675,
274,-0.615,-0.605,
275,-0.625,-0.615,
276,-0.625,-0.68,
277,-0.64,-0.725,
278,-0.63,-0.745,
279,-0.655,-0.715,
280,-0.665,-0.665,
281,-0.69,-0.655,
282,-0.685,-0.695,
283,-0.685,-0.745,
284,-0.675,-0.76,
285,-0.68,-0.73,
286,-0.705,-0.665,
287,-0.74,-0.665,
288,-0.755,-0.725,
289,-0.765,-0.805,
290,-0.79,-0.845,
291,-0.8,-0.815,
292,-0.83,-0.775,
293,-0.85,-0.745,
294,-0.855,-0.76,
295,-0.845,-0.79,
296,-0.84,-0.79,
297,-0.84,-0.77,
298,-0.855,-0.71,
299,-0.855,-0.715,
300,-0.865,-0.775,
301,-0.855,-0.825,
302,-0.855,-0.84,
303,-0.85,-0.795,
304,-0.875,-0.76,
305,-0.88,-0.745,
306,-0.9,-0.785,
307,-0.91,-0.84,
308,-0.925,-0.83,
309,-0.975,-0.785,
310,-1.035,-0.735,
311,-1.07,-0.74,
312,-1.07,-0.785,
313,-1.02,-0.805,
314,-0.915,-0.785,
315,-0.805,-0.7,
316,-0.675,-0.585,
317,-0.49,-0.52,
318,-0.28,-0.515,
319,-0.07,-0.49,
320,0.135,-0.45,
321,0.315,-0.375,
322,0.48,-0.33,
323,0.615,-0.36,
324,0.715,-0.5,
325,0.79,-0.63,
326,0.795,-0.765,N
327,0.77,-0.835,
328,0.71,-0.88,
329,0.635,-0.885,
330,0.55,-0.835,
331,0.425,-0.745,
332,0.19,-0.61,
333,-0.135,-0.535,
334,-0.45,-0.54,
335,-0.69,-0.685,
336,-0.83,-0.83,
337,-0.87,-0.915,
338,-0.87,-0.91,
339,-0.84,-0.845,
340,-0.8,-0.8,
341,-0.79,-0.8,
342,-0.775,-0.83,
343,-0.78,-0.835,
344,-0.82,-0.795,
345,-0.865,-0.755,
346,-0.89,-0.715,
347,-0.915,-0.75,
348,-0.92,-0.81,
349,-0.93,-0.865,
350,-0.915,-0.84,
351,-0.935,-0.765,
352,-0.95,-0.73,
353,-0.97,-0.74,
354,-0.955,-0.785,
355,-0.935,-0.795,
356,-0.92,-0.78,
357,-0.92,-0.7,
358,-0.925,-0.67,
359,-0.905,-0.685,
360,-0.905,-0.75,
361,-0.89,-0.78,
362,-0.905,-0.785,
363,-0.915,-0.75,
364,-0.93,-0.7,
365,-0.975,-0.69,
366,-0.945,-0.72,
367,-0.935,-0.775,
368,-0.905,-0.775,
369,-0.905,-0.71,
370,-0.915,-0.645,
371,-0.915,-0.63,
372,-0.925,-0.675,
373,-0.915,-0.73,
374,-0.91,-0.755,
375,-0.92,-0.71,
376,-0.935,-0.665,
377,-0.925,-0.645,
378,-0.93,-0.665,
379,-0.92,-0.73,
380,-0.885,-0.715,
381,-0.88,-0.68,
382,-0.905,-0.6,
383,-0.9,-0.585,
384,-0.905,-0.625,
385,-0.89,-0.67,
386,-0.87,-0.725,
387,-0.87,-0.675,
388,-0.895,-0.605,
389,-0.915,-0.57,
390,-0.915,-0.615,
391,-0.895,-0.655,
392,-0.875,-0.67,
393,-0.865,-0.615,
394,-0.85,-0.54,
395,-0.85,-0.53,
396,-0.885,-0.555,
397,-0.85,-0.625,
398,-0.835,-0.66,
399,-0.83,-0.65,
400,-0.84,-0.595,
401,-0.86,-0.565,
402,-0.875,-0.595,
403,-0.85,-0.63,
404,-0.84,-0.655,
405,-0.82,-0.605,
406,-0.81,-0.54,
407,-0.825,-0.525,
408,-0.825,-0.59,
409,-0.81,-0.665,
410,-0.815,-0.695,
411,-0.79,-0.655,
412,-0.82,-0.625,
413,-0.835,-0.595,
414,-0.835,-0.63,
415,-0.81,-0.695,
416,-0.79,-0.72,
417,-0.77,-0.71,
418,-0.775,-0.66,
419,-0.775,-0.615,
420,-0.785,-0.61,
421,-0.8,-0.68,
422,-0.795,-0.755,
423,-0.79,-0.8,
424,-0.79,-0.785,
425,-0.815,-0.725,
426,-0.82,-0.7,
427,-0.825,-0.725,
428,-0.815,-0.775,
429,-0.785,-0.795,
430,-0.79,-0.77,
431,-0.79,-0.73,
432,-0.8,-0.71,
433,-0.815,-0.755,
434,-0.815,-0.815,
435,-0.815,-0.86,
436,-0.82,-0.845,
437,-0.84,-0.79,
438,-0.85,-0.74,
439,-0.855,-0.755,
440,-0.855,-0.78,
441,-0.84,-0.835,
442,-0.82,-0.825,
443,-0.815,-0.765,
444,-0.83,-0.725,
445,-0.84,-0.74,
446,-0.845,-0.785,
447,-0.85,-0.86,
448,-0.84,-0.85,
449,-0.855,-0.81,
450,-0.87,-0.775,
451,-0.875,-0.755,
452,-0.85,-0.81,
453,-0.835,-0.835,
454,-0.83,-0.835,
455,-0.825,-0.795,
456,-0.86,-0.76,
457,-0.89,-0.75,
458,-0.875,-0.81,
459,-0.875,-0.885,
460,-0.885,-0.885,
461,-0.875,-0.86,
462,-0.895,-0.795,
463,-0.9,-0.755,
464,-0.915,-0.785,
465,-0.915,-0.84,
466,-0.88,-0.87,
467,-0.895,-0.845,
468,-0.92,-0.795,
469,-0.925,-0.785,
470,-0.94,-0.825,
471,-0.94,-0.88,
472,-0.945,-0.885,
473,-0.95,-0.85,
474,-0.96,-0.79,
475,-0.955,-0.795,
476,-0.94,-0.825,
477,-0.93,-0.845,
478,-0.92,-0.825,
479,-0.92,-0.785,
480,-0.93,-0.75,
481,-0.93,-0.775,
482,-0.925,-0.825,
483,-0.92,-0.875,
484,-0.92,-0.86,
485,-0.925,-0.825,
486,-0.925,-0.795,
487,-0.905,-0.805,
488,-0.87,-0.835,
489,-0.845,-0.85,
490,-0.825,-0.815,
491,-0.835,-0.765,
492,-0.86,-0.75,
493,-0.85,-0.775,
494,-0.835,-0.84,
495,-0.795,-0.885,
496,-0.77,-0.855,
497,-0.76,-0.8,
498,-0.75,-0.755,
499,-0.75,-0.755,
500,-0.72,-0.785,
501,-0.68,-0.82,
502,-0.665,-0.785,
503,-0.66,-0.73,
504,-0.67,-0.685,
505,-0.7,-0.675,
506,-0.69,-0.75,
507,-0.69,-0.815,
508,-0.695,-0.81,
509,-0.7,-0.76,
510,-0.735,-0.72,
511,-0.745,-0.71,
512,-0.735,-0.74,
513,-0.72,-0.78,
514,-0.72,-0.77,
515,-0.71,-0.745,
516,-0.715,-0.705,
517,-0.74,-0.72,
518,-0.75,-0.77,
519,-0.765,-0.83,
520,-0.8,-0.86,
521,-0.84,-0.82,
522,-0.875,-0.785,
523,-0.885,-0.785,
524,-0.9,-0.825,
525,-0.88,-0.865,
526,-0.875,-0.855,
527,-0.885,-0.805,
528,-0.89,-0.76,
529,-0.905,-0.77,
530,-0.925,-0.82,
531,-0.925,-0.885,
532,-0.935,-0.9,
533,-0.94,-0.855,
534,-0.945,-0.79,
535,-0.97,-0.78,
536,-0.955,-0.8,
537,-0.95,-0.865,
538,-0.905,-0.865,
539,-0.92,-0.835,
540,-0.93,-0.795,
541,-0.965,-0.765,
542,-1.0,-0.825,
543,-1.035,-0.885,
544,-1.07,-0.94,
545,-1.125,-0.91,
546,-1.155,-0.865,
547,-1.16,-0.77,
548,-1.1,-0.77,
549,-0.98,-0.77,
550,-0.82,-0.74,
551,-0.63,-0.66,
552,-0.435,-0.56,
553,-0.25,-0.48,
554,-0.06,-0.475,
555,0.085,-0.485,
556,0.265,-0.53,
557,0.42,-0.52,
558,0.545,-0.51,
559,0.625,-0.525,
560,0.675,-0.605,
561,0.71,-0.78,N
562,0.715,-0.915,
563,0.68,-0.98,
564,0.635,-0.92,
565,0.555,-0.82,
566,0.45,-0.715,
567,0.245,-0.67,
568,0.015,-0.685,
569,-0.275,-0.73,
570,-0.56,-0.745,
571,-0.76,-0.77,
572,-0.895,-0.82,
573,-0.945,-0.88,
574,-0.925,-0.935,
575,-0.855,-0.96,
576,-0.815,-0.91,
577,-0.815,-0.825,
578,-0.85,-0.785,
579,-0.925,-0.81,
580,-0.945,-0.88,
581,-0.965,-0.905,
582,-0.995,-0.9,
583,-1.015,-0.85,
584,-1.02,-0.795,
585,-1.03,-0.78,
586,-1.015,-0.81,
587,-0.985,-0.86,
588,-0.99,-0.855,
589,-0.99,-0.81,
590,-1.02,-0.755,
591,-1.035,-0.765,
592,-1.03,-0.81,
593,-1.03,-0.85,
594,-1.0,-0.84,
595,-0.995,-0.79,
596,-1.0,-0.725,
597,-1.005,-0.715,
598,-0.995,-0.765,
599,-0.97,-0.79,
600,-0.95,-0.81,
601,-0.96,-0.765,
602,-1.005,-0.73,
603,-1.015,-0.735,
604,-1.02,-0.765,
605,-1.015,-0.84,
606,-1.01,-0.83,
607,-0.995,-0.77,
608,-0.99,-0.715,
609,-0.99,-0.675,
610,-1.0,-0.705,
611,-0.98,-0.745,
612,-0.97,-0.76,
613,-0.945,-0.725,
614,-0.965,-0.675,
615,-0.985,-0.67,
616,-0.98,-0.705,
617,-0.98,-0.74,
618,-0.975,-0.735,
619,-0.975,-0.68,
620,-0.96,-0.645,
621,-0.96,-0.615,
622,-0.94,-0.66,
623,-0.935,-0.675,
624,-0.94,-0.66,
625,-0.93,-0.63,
626,-0.97,-0.605,
627,-0.965,-0.65,
628,-0.97,-0.695,
629,-0.955,-0.695,
630,-0.945,-0.66,
631,-0.935,-0.585,
632,-0.94,-0.585,
633,-0.93,-0.62,
634,-0.9,-0.645,
635,-0.88,-0.69,
636,-0.88,-0.645,
637,-0.9,-0.595,
638,-0.905,-0.58,
639,-0.935,-0.585,
640,-0.94,-0.675,
641,-0.935,-0.735,
642,-0.94,-0.72,
643,-0.925,-0.66,
644,-0.89,-0.605,
645,-0.88,-0.585,
646,-0.865,-0.635,
647,-0.86,-0.695,
648,-0.855,-0.715,
649,-0.87,-0.685,
650,-0.895,-0.665,
651,-0.89,-0.665,
652,-0.895,-0.745,
653,-0.89,-0.8,
654,-0.885,-0.8,
655,-0.88,-0.74,
656,-0.885,-0.68,
657,-0.895,-0.68,
658,-0.9,-0.71,
659,-0.87,-0.785,
660,-0.85,-0.82,
661,-0.85,-0.81,
662,-0.865,-0.765,
663,-0.89,-0.72,
664,-0.875,-0.745,
665,-0.89,-0.805,
666,-0.885,-0.855,
667,-0.9,-0.835,
668,-0.87,-0.785,
669,-0.885,-0.74,
670,-0.88,-0.735,
671,-0.895,-0.775,
672,-0.88,-0.835,
673,-0.88,-0.825,
674,-0.905,-0.775,
675,-0.93,-0.775,
676,-0.935,-0.775,
677,-0.925,-0.825,
678,-0.92,-0.865,
679,-0.9,-0.865,
680,-0.895,-0.785,
681,-0.9,-0.73,
682,-0.91,-0.695,
683,-0.91,-0.755,
684,-0.915,-0.825,
685,-0.91,-0.86,
686,-0.925,-0.865,
687,-0.95,-0.805,
688,-0.955,-0.785,
689,-0.965,-0.81,
690,-0.97,-0.85,
691,-0.96,-0.86,
692,-0.94,-0.82,
693,-0.935,-0.765,
694,-0.935,-0.74,
695,-0.945,-0.775,
696,-0.94,-0.82,
697,-0.945,-0.835,
698,-0.95,-0.8,
699,-0.97,-0.765,
700,-0.995,-0.785,
701,-1.0,-0.845,
702,-1.01,-0.885,
703,-1.01,-0.865,
704,-1.01,-0.795,
705,-1.025,-0.74,
706,-1.0,-0.735,
707,-1.0,-0.8,
708,-0.995,-0.855,
709,-0.98,-0.865,
710,-0.99,-0.835,
711,-1.0,-0.78,
712,-1.02,-0.76,
713,-1.015,-0.785,
714,-1.025,-0.83,
715,-1.005,-0.87,
716,-0.985,-0.855,
717,-0.985,-0.795,
718,-0.985,-0.755,
719,-0.97,-0.755,
720,-0.975,-0.8,
721,-0.95,-0.845,
722,-0.955,-0.83,
723,-0.95,-0.795,
724,-0.955,-0.765,
725,-0.955,-0.78,
726,-0.95,-0.835,
727,-0.93,-0.85,
728,-0.905,-0.825,
729,-0.895,-0.745,
730,-0.875,-0.695,
731,-0.86,-0.735,
732,-0.845,-0.805,
733,-0.81,-0.825,
734,-0.81,-0.825,
735,-0.8,-0.785,
736,-0.805,-0.725,
737,-0.795,-0.705,
738,-0.79,-0.755,
739,-0.755,-0.79,
740,-0.75,-0.775,
741,-0.74,-0.735,
742,-0.745,-0.67,
743,-0.77,-0.635,
744,-0.765,-0.66,
745,-0.77,-0.745,
746,-0.765,-0.765,
747,-0.76,-0.775,
748,-0.79,-0.715,
749,-0.81,-0.665,
750,-0.82,-0.675,
751,-0.805,-0.73,
752,-0.795,-0.78,
753,-0.785,-0.765,
754,-0.785,-0.73,
755,-0.795,-0.67,
756,-0.835,-0.63,
757,-0.86,-0.72,
758,-0.88,-0.79,
759,-0.9,-0.835,
760,-0.91,-0.855,
761,-0.915,-0.775,
762,-0.94,-0.735,
763,-0.975,-0.74,
764,-0.955,-0.745,
765,-0.955,-0.815,
766,-0.94,-0.77,
767,-0.925,-0.735,
768,-0.955,-0.715,
769,-0.975,-0.75,
770,-0.98,-0.795,
771,-1.01,-0.825,
772,-1.005,-0.81,
773,-1.0,-0.75,
774,-1.005,-0.735,
775,-0.99,-0.755,
776,-0.99,-0.79,
777,-0.99,-0.81,
778,-1.01,-0.765,
779,-1.045,-0.715,
780,-1.1,-0.725,
781,-1.175,-0.79,
782,-1.2,-0.855,
783,-1.2,-0.865,
784,-1.17,-0.84,
785,-1.11,-0.735,
786,-1.01,-0.635,
787,-0.865,-0.58,
788,-0.68,-0.575,
789,-0.465,-0.55,
790,-0.265,-0.475,
791,-0.09,-0.37,
792,0.065,-0.305,
793,0.21,-0.265,
794,0.35,-0.325,
795,0.5,-0.405,
796,0.605,-0.485,
797,0.665,-0.51,
798,0.7,-0.59,N
799,0.695,-0.68,
800,0.66,-0.775,
801,0.63,-0.785,
802,0.535,-0.71,
803,0.405,-0.57,
804,0.15,-0.455,
805,-0.16,-0.44,
806,-0.47,-0.54,
807,-0.69,-0.675,
808,-0.84,-0.785,
809,-0.895,-0.83,
810,-0.925,-0.78,
811,-0.9,-0.76,
812,-0.86,-0.77,
813,-0.805,-0.79,
814,-0.8,-0.765,
815,-0.81,-0.73,
816,-0.875,-0.68,
817,-0.95,-0.67,
818,-1.0,-0.73,
819,-1.02,-0.79,
820,-1.045,-0.835,
821,-1.05,-0.79,
822,-1.065,-0.715,
823,-1.065,-0.695,
824,-1.06,-0.69,
825,-1.05,-0.73,
826,-1.015,-0.755,
827,-1.01,-0.73,
828,-1.015,-0.68,
829,-1.055,-0.645,
830,-1.045,-0.66,
831,-1.035,-0.705,
832,-1.035,-0.75,
833,-1.025,-0.74,
834,-1.03,-0.685,
835,-1.03,-0.64,
836,-1.03,-0.62,
837,-1.02,-0.665,
838,-1.02,-0.695,
839,-1.0,-0.68,
840,-1.025,-0.64,
841,-1.025,-0.625,
842,-1.045,-0.64,
843,-1.05,-0.705,
844,-1.045,-0.71,
845,-1.04,-0.685,
846,-1.03,-0.615,
847,-1.03,-0.61,
848,-1.015,-0.635,
849,-1.01,-0.655,
850,-1.0,-0.63,
851,-1.01,-0.585,
852,-1.035,-0.575,
853,-1.04,-0.605,
854,-1.025,-0.655,
855,-1.0,-0.665,
856,-0.995,-0.615,
857,-1.015,-0.56,
858,-1.025,-0.555,
859,-1.02,-0.57,
860,-1.005,-0.625,
861,-0.985,-0.635,
862,-0.97,-0.58,
863,-0.975,-0.52,
864,-1.015,-0.48,
865,-1.02,-0.515,
866,-1.015,-0.59,
867,-1.01,-0.625,
868,-0.985,-0.595,
869,-0.96,-0.55,
870,-0.965,-0.525,
871,-0.96,-0.54,
872,-0.97,-0.58,
873,-0.95,-0.575,
874,-0.95,-0.53,
875,-0.94,-0.505,
876,-0.965,-0.51,
877,-0.965,-0.565,
878,-0.935,-0.61,
879,-0.91,-0.61,
880,-0.925,-0.565,
881,-0.945,-0.53,
882,-0.95,-0.51,
883,-0.95,-0.575,
884,-0.95,-0.615,
885,-0.9,-0.64,
886,-0.9,-0.61,
887,-0.89,-0.55,
888,-0.89,-0.525,
889,-0.915,-0.56,
890,-0.89,-0.625,
891,-0.89,-0.66,
892,-0.895,-0.665,
893,-0.885,-0.615,
894,-0.91,-0.59,
895,-0.92,-0.59,
896,-0.905,-0.655,
897,-0.905,-0.67,
898,-0.885,-0.645,
899,-0.87,-0.59,
900,-0.9,-0.56,
901,-0.925,-0.58,
902,-0.915,-0.655,
903,-0.925,-0.705,
904,-0.935,-0.71,
905,-0.95,-0.645,
906,-0.965,-0.61,
907,-0.96,-0.63,
908,-0.95,-0.655,
909,-0.925,-0.705,
910,-0.89,-0.68,
911,-0.875,-0.615,
912,-0.895,-0.605,
913,-0.905,-0.635,
914,-0.92,-0.695,
915,-0.915,-0.71,
916,-0.935,-0.68,
917,-0.95,-0.64,
918,-0.95,-0.66,
919,-0.95,-0.7,
920,-0.935,-0.695,
921,-0.925,-0.645,
922,-0.95,-0.6,
923,-0.945,-0.6,
924,-0.925,-0.64,
925,-0.925,-0.7,
926,-0.925,-0.69,
927,-0.935,-0.66,
928,-0.96,-0.625,
929,-0.97,-0.635,
930,-0.975,-0.7,
931,-0.99,-0.73,
932,-0.97,-0.7,
933,-0.99,-0.66,
934,-0.99,-0.61,
935,-1.005,-0.625,
936,-0.99,-0.68,
937,-0.97,-0.715,
938,-0.975,-0.71,
939,-0.985,-0.685,
940,-1.015,-0.65,
941,-1.01,-0.7,
942,-1.015,-0.72,
943,-1.0,-0.73,
944,-1.0,-0.69,
945,-0.985,-0.65,
946,-0.995,-0.63,
947,-0.95,-0.67,
948,-0.935,-0.71,
949,-0.925,-0.695,
950,-0.925,-0.675,
951,-0.94,-0.62,
952,-0.945,-0.63,
953,-0.94,-0.66,
954,-0.925,-0.705,
955,-0.86,-0.72,
956,-0.83,-0.66,
957,-0.825,-0.58,
958,-0.835,-0.565,
959,-0.79,-0.59,
960,-0.765,-0.65,
961,-0.755,-0.66,
962,-0.75,-0.595,
963,-0.76,-0.58,
964,-0.785,-0.54,
965,-0.77,-0.585,
966,-0.77,-0.635,
967,-0.755,-0.635,
968,-0.745,-0.57,
969,-0.745,-0.52,
970,-0.775,-0.51,
971,-0.775,-0.545,
972,-0.78,-0.63,
973,-0.775,-0.64,
974,-0.785,-0.61,
975,-0.81,-0.56,
976,-0.83,-0.535,
977,-0.84,-0.56,
978,-0.84,-0.635,
979,-0.84,-0.665,
980,-0.85,-0.655,
981,-0.865,-0.615,
982,-0.9,-0.59,
983,-0.91,-0.625,
984,-0.92,-0.67,
985,-0.925,-0.69,
986,-0.93,-0.66,
987,-0.96,-0.62,
988,-0.99,-0.605,
989,-1.005,-0.66,
990,-1.015,-0.7,
991,-1.01,-0.685,
992,-1.005,-0.625,
993,-0.985,-0.605,
994,-0.98,-0.615,
995,-0.96,-0.65,
996,-0.95,-0.67,
997,-0.96,-0.625,
998,-0.98,-0.595,
999,-1.06,-0.675,
1000,-1.11,-0.74,
1001,-1.15,-0.745,
1002,-1.19,-0.685,
1003,-1.225,-0.615,
1004,-1.18,-0.58,
1005,-1.1,-0.595,
1006,-0.965,-0.595,
1007,-0.815,-0.535,
1008,-0.625,-0.42,
1009,-0.435,-0.335,
1010,-0.25,-0.27,
1011,-0.075,-0.265,
1012,0.1,-0.3,
1013,0.26,-0.29,
1014,0.42,-0.28,
1015,0.545,-0.285,
1016,0.625,-0.35,
1017,0.68,-0.495,N
1018,0.695,-0.655,
1019,0.695,-0.745,
1020,0.635,-0.725,
1021,0.54,-0.66,
1022,0.39,-0.57,
1023,0.19,-0.555,
1024,-0.065,-0.53,
1025,-0.37,-0.555,
1026,-0.64,-0.54,
1027,-0.84,-0.57,
1028,-0.96,-0.605,
1029,-0.98,-0.68,
1030,-0.94,-0.74,
1031,-0.875,-0.75,
1032,-0.825,-0.68,
1033,-0.815,-0.615,
1034,-0.845,-0.595,
1035,-0.885,-0.615,
1036,-0.935,-0.68,
1037,-0.98,-0.705,
1038,-1.02,-0.66,
1039,-1.04,-0.615,
1040,-1.06,-0.61,
1041,-1.065,-0.625,
1042,-1.02,-0.67,
1043,-1.01,-0.635,
1044,-1.02,-0.61,
1045,-1.035,-0.575,
1046,-1.06,-0.585,
1047,-1.065,-0.64,
1048,-1.06,-0.685,
1049,-1.035,-0.675,
1050,-1.02,-0.615,
1051,-1.015,-0.55,
1052,-1.01,-0.53,
1053,-0.995,-0.565,
1054,-0.99,-0.615,
1055,-0.995,-0.61,
1056,-1.005,-0.585,
1057,-1.035,-0.55,
1058,-1.03,-0.58,
1059,-1.035,-0.615,
1060,-1.035,-0.645,
1061,-1.03,-0.595,
1062,-1.04,-0.535,
1063,-1.04,-0.55,
1064,-1.015,-0.57,
1065,-1.01,-0.565,
1066,-0.995,-0.545,
1067,-0.985,-0.5,
1068,-1.0,-0.49,
1069,-1.025,-0.535,
1070,-1.03,-0.58,
1071,-1.025,-0.615,
1072,-1.025,-0.56,
1073,-1.025,-0.505,
1074,-1.025,-0.47,
1075,-1.025,-0.485,
1076,-1.005,-0.54,
1077,-0.97,-0.525,
1078,-0.96,-0.5,
1079,-0.96,-0.44,
1080,-0.985,-0.415,
1081,-1.0,-0.455,
1082,-1.025,-0.525,
1083,-1.0,-0.53,
1084,-0.99,-0.515,
1085,-0.985,-0.455,
1086,-0.98,-0.425,
1087,-0.975,-0.43,
1088,-0.955,-0.485,
1089,-0.93,-0.47,
1090,-0.915,-0.435,
1091,-0.93,-0.405,
1092,-0.945,-0.41,
1093,-0.95,-0.47,
1094,-0.955,-0.525,
1095,-0.945,-0.53,
1096,-0.945,-0.49,
1097,-0.945,-0.44,
1098,-0.97,-0.425,
1099,-0.96,-0.46,
1100,-0.935,-0.53,
1101,-0.92,-0.53,
1102,-0.905,-0.485,
1103,-0.905,-0.435,
1104,-0.915,-0.43,
1105,-0.92,-0.49,
1106,-0.915,-0.545,
1107,-0.905,-0.59,
1108,-0.93,-0.55,
1109,-0.93,-0.51,
1110,-0.945,-0.505,
1111,-0.93,-0.555,
1112,-0.905,-0.6,
1113,-0.88,-0.61,
1114,-0.865,-0.555,
1115,-0.89,-0.49,
1116,-0.91,-0.485,
1117,-0.93,-0.525,
1118,-0.915,-0.615,
1119,-0.925,-0.66,
1120,-0.915,-0.65,
1121,-0.94,-0.59,
1122,-0.94,-0.535,
1123,-0.94,-0.56,
1124,-0.94,-0.6,
1125,-0.905,-0.65,
1126,-0.895,-0.635,
1127,-0.91,-0.58,
1128,-0.91,-0.54,
1129,-0.945,-0.565,
1130,-0.955,-0.625,
1131,-0.945,-0.665,
1132,-0.94,-0.66,
1133,-0.97,-0.6,
1134,-0.955,-0.575,
1135,-0.945,-0.58,
1136,-0.93,-0.63,
1137,-0.925,-0.62,
1138,-0.92,-0.595,
1139,-0.94,-0.555,
1140,-0.93,-0.545,
1141,-0.95,-0.59,
1142,-0.95,-0.655,
1143,-0.96,-0.655,
1144,-0.96,-0.625,
1145,-0.975,-0.58,
1146,-0.985,-0.555,
1147,-0.99,-0.61,
1148,-0.975,-0.65,
1149,-0.96,-0.635,
1150,-0.96,-0.6,
1151,-0.965,-0.555,
1152,-1.0,-0.55,
1153,-1.02,-0.58,
1154,-1.005,-0.65,
1155,-1.01,-0.67,
1156,-1.015,-0.635,
1157,-1.03,-0.585,
1158,-1.045,-0.57,
1159,-1.03,-0.6,
1160,-1.015,-0.66,
1161,-1.0,-0.64,
1162,-0.99,-0.595,
1163,-0.995,-0.535,
1164,-1.0,-0.55,
1165,-1.015,-0.595,
1166,-1.02,-0.67,
1167,-1.01,-0.68,
1168,-1.0,-0.655,
1169,-1.01,-0.58,
1170,-1.02,-0.565,
1171,-1.015,-0.6,
1172,-1.015,-0.645,
1173,-0.985,-0.65,
1174,-0.975,-0.6,
1175,-0.97,-0.55,
1176,-0.985,-0.54,
1177,-0.97,-0.57,
1178,-0.98,-0.655,
1179,-0.965,-0.66,
1180,-0.955,-0.625,
1181,-0.965,-0.575,
1182,-0.965,-0.57,
1183,-0.955,-0.59,
1184,-0.935,-0.635,
1185,-0.915,-0.63,
1186,-0.92,-0.575,
1187,-0.915,-0.545,
1188,-0.915,-0.54,
1189,-0.895,-0.585,
1190,-0.87,-0.635,
1191,-0.845,-0.645,
1192,-0.835,-0.615,
1193,-0.82,-0.565,
1194,-0.82,-0.55,
1195,-0.81,-0.56,
1196,-0.77,-0.595,
1197,-0.75,-0.56,
1198,-0.755,-0.49,
1199,-0.76,-0.46,
1200,-0.76,-0.47,
1201,-0.78,-0.545,
1202,-0.78,-0.57,
1203,-0.79,-0.56,
1204,-0.83,-0.505,
1205,-0.84,-0.505,
1206,-0.845,-0.535,
1207,-0.855,-0.565,
1208,-0.815,-0.575,
1209,-0.815,-0.52,
1210,-0.825,-0.48,
1211,-0.835,-0.495,
1212,-0.855,-0.54,
1213,-0.88,-0.61,
1214,-0.9,-0.61,
1215,-0.93,-0.595,
1216,-0.97,-0.59,
1217,-0.97,-0.635,
1218,-0.975,-0.645,
1219,-0.965,-0.655,
1220,-0.97,-0.605,
1221,-0.98,-0.525,
1222,-0.99,-0.51,
1223,-1.0,-0.56,
1224,-1.01,-0.61,
1225,-1.005,-0.655,
1226,-1.005,-0.65,
1227,-1.02,-0.58,
1228,-1.03,-0.56,
1229,-1.03,-0.59,
1230,-1.005,-0.635,
1231,-1.015,-0.645,
1232,-1.0,-0.63,
1233,-1.01,-0.565,
1234,-1.05,-0.535,
1235,-1.11,-0.59,
1236,-1.165,-0.635,
1237,-1.195,-0.655,
1238,-1.215,-0.64,
1239,-1.2,-0.575,
1240,-1.16,-0.55,
1241,-1.06,-0.54,
1242,-0.895,-0.52,
1243,-0.69,-0.475,
1244,-0.465,-0.37,
1245,-0.29,-0.27,
1246,-0.115,-0.17,
1247,0.05,-0.18,
1248,0.225,-0.23,
1249,0.365,-0.285,
1250,0.495,-0.31,
1251,0.58,-0.315,
1252,0.605,-0.375,
1253,0.63,-0.505,N
1254,0.615,-0.665,
1255,0.605,-0.765,
1256,0.575,-0.745,
1257,0.52,-0.625,
1258,0.415,-0.465,
1259,0.235,-0.37,
1260,-0.055,-0.36,
1261,-0.37,-0.44,
1262,-0.655,-0.54,
1263,-0.865,-0.585,
1264,-0.985,-0.61,
1265,-1.035,-0.645,
1266,-1.025,-0.7,
1267,-0.93,-0.72,
1268,-0.88,-0.705,
1269,-0.86,-0.63,
1270,-0.885,-0.54,
1271,-0.905,-0.495,
1272,-0.96,-0.545,
1273,-1.0,-0.61,
1274,-1.04,-0.665,
1275,-1.065,-0.655,
1276,-1.1,-0.61,
1277,-1.11,-0.585,
1278,-1.095,-0.59,
1279,-1.095,-0.6,
1280,-1.065,-0.595,
1281,-1.045,-0.565,
1282,-1.055,-0.505,
1283,-1.06,-0.53,
1284,-1.075,-0.575,
1285,-1.07,-0.61,
1286,-1.055,-0.585,
1287,-1.06,-0.555,
1288,-1.075,-0.535,
1289,-1.09,-0.565,
1290,-1.08,-0.605,
1291,-1.065,-0.605,
1292,-1.045,-0.565,
1293,-1.045,-0.515,
1294,-1.04,-0.45,
1295,-1.045,-0.48,
1296,-1.055,-0.535,
1297,-1.04,-0.595,
1298,-1.035,-0.585,
1299,-1.055,-0.535,
1300,-1.08,-0.485,
1301,-1.085,-0.49,
1302,-1.08,-0.525,
1303,-1.05,-0.565,
1304,-1.04,-0.525,
1305,-1.045,-0.465,
1306,-1.04,-0.42,
1307,-1.045,-0.44,
1308,-1.04,-0.485,
1309,-1.025,-0.54,
1310,-1.02,-0.505,
1311,-1.02,-0.46,
1312,-1.025,-0.42,
1313,-1.025,-0.415,
1314,-1.02,-0.47,
1315,-1.02,-0.5,
1316,-0.98,-0.49,
1317,-0.98,-0.45,
1318,-0.98,-0.38,
1319,-0.99,-0.36,
1320,-1.0,-0.405,
1321,-0.99,-0.47,
1322,-0.98,-0.495,
1323,-0.995,-0.465,
1324,-0.995,-0.395,
1325,-1.01,-0.39,
1326,-1.0,-0.435,
1327,-0.99,-0.47,
1328,-0.97,-0.47,
1329,-0.965,-0.415,
1330,-0.95,-0.36,
1331,-0.955,-0.38,
1332,-0.965,-0.425,
1333,-0.96,-0.485,
1334,-0.93,-0.5,
1335,-0.945,-0.46,
1336,-0.95,-0.405,
1337,-0.97,-0.41,
1338,-0.96,-0.44,
1339,-0.94,-0.505,
1340,-0.91,-0.505,
1341,-0.91,-0.485,
1342,-0.91,-0.41,
1343,-0.92,-0.415,
1344,-0.92,-0.48,
1345,-0.905,-0.535,
1346,-0.91,-0.55,
1347,-0.92,-0.52,
1348,-0.935,-0.5,
1349,-0.965,-0.51,
1350,-0.955,-0.56,
1351,-0.935,-0.57,
1352,-0.93,-0.57,
1353,-0.925,-0.515,
1354,-0.935,-0.495,
1355,-0.935,-0.54,
1356,-0.935,-0.595,
1357,-0.935,-0.615,
1358,-0.96,-0.575,
1359,-0.985,-0.535,
1360,-0.98,-0.535,
1361,-0.97,-0.585,
1362,-0.975,-0.635,
1363,-0.94,-0.61,
1364,-0.945,-0.565,
1365,-0.94,-0.51,
1366,-0.945,-0.505,
1367,-0.945,-0.555,
1368,-0.95,-0.625,
1369,-0.955,-0.635,
1370,-0.955,-0.63,
1371,-0.965,-0.56,
1372,-0.995,-0.54,
1373,-1.01,-0.575,
1374,-0.995,-0.625,
1375,-0.965,-0.645,
1376,-0.955,-0.605,
1377,-0.95,-0.53,
1378,-0.97,-0.52,
1379,-0.98,-0.545,
1380,-0.99,-0.595,
1381,-0.97,-0.635,
1382,-0.99,-0.62,
1383,-1.015,-0.58,
1384,-1.02,-0.56,
1385,-1.04,-0.6,
1386,-1.03,-0.655,
1387,-1.025,-0.655,
1388,-1.015,-0.61,
1389,-1.015,-0.535,
1390,-1.025,-0.515,
1391,-1.02,-0.545,
1392,-1.02,-0.595,
1393,-1.025,-0.635,
1394,-1.03,-0.635,
1395,-1.045,-0.58,
1396,-1.08,-0.56,
1397,-1.085,-0.6,
1398,-1.085,-0.655,
1399,-1.065,-0.655,
1400,-1.05,-0.63,
1401,-1.035,-0.55,
1402,-1.03,-0.525,
1403,-1.035,-0.57,
1404,-1.025,-0.615,
1405,-1.015,-0.65,
1406,-1.025,-0.625,
1407,-1.045,-0.58,
1408,-1.055,-0.55,
1409,-1.065,-0.585,
1410,-1.045,-0.63,
1411,-1.04,-0.655,
1412,-1.01,-0.615,
1413,-1.02,-0.55,
1414,-0.995,-0.53,
1415,-0.98,-0.555,
1416,-0.965,-0.615,
1417,-0.95,-0.63,
1418,-0.965,-0.61,
1419,-0.955,-0.58,
1420,-0.97,-0.56,
1421,-0.955,-0.595,
1422,-0.925,-0.63,
1423,-0.88,-0.615,
1424,-0.875,-0.575,
1425,-0.855,-0.51,
1426,-0.84,-0.515,
1427,-0.8,-0.56,
1428,-0.785,-0.585,
1429,-0.765,-0.565,
1430,-0.775,-0.505,
1431,-0.8,-0.47,
1432,-0.805,-0.505,
1433,-0.79,-0.55,
1434,-0.795,-0.565,
1435,-0.79,-0.515,
1436,-0.805,-0.475,
1437,-0.805,-0.465,
1438,-0.815,-0.495,
1439,-0.805,-0.55,
1440,-0.805,-0.585,
1441,-0.82,-0.55,
1442,-0.835,-0.485,
1443,-0.87,-0.475,
1444,-0.88,-0.515,
1445,-0.88,-0.59,
1446,-0.885,-0.635,
1447,-0.895,-0.615,
1448,-0.93,-0.565,
1449,-0.95,-0.52,
1450,-0.975,-0.53,
1451,-0.96,-0.6,
1452,-0.955,-0.625,
1453,-0.97,-0.625,
1454,-0.995,-0.585,
1455,-1.01,-0.565,
1456,-1.02,-0.57,
1457,-1.035,-0.62,
1458,-1.03,-0.655,
1459,-1.015,-0.63,
1460,-1.015,-0.575,
1461,-1.02,-0.515,
1462,-1.035,-0.515,
1463,-1.025,-0.575,
1464,-1.025,-0.645,
1465,-1.0,-0.665,
1466,-1.01,-0.63,
1467,-1.035,-0.58,
1468,-1.07,-0.57,
1469,-1.085,-0.605,
1470,-1.09,-0.665,
1471,-1.125,-0.665,
1472,-1.155,-0.62,
1473,-1.205,-0.565,
1474,-1.21,-0.52,
1475,-1.18,-0.535,
1476,-1.07,-0.555,
1477,-0.92,-0.515,
1478,-0.745,-0.405,
1479,-0.55,-0.32,
1480,-0.355,-0.27,
1481,-0.17,-0.29,
1482,0.025,-0.29,
1483,0.21,-0.255,
1484,0.38,-0.175,
1485,0.51,-0.16,
1486,0.6,-0.195,
1487,0.65,-0.335,
1488,0.685,-0.51,N
1489,0.67,-0.645,
1490,0.625,-0.685,
1491,0.55,-0.625,
1492,0.465,-0.55,
1493,0.355,-0.49,
1494,0.17,-0.455,
1495,-0.12,-0.415,
1496,-0.42,-0.42,
1497,-0.715,-0.425,
1498,-0.905,-0.505,
1499,-1.0,-0.62,
1500,-1.005,-0.695,
1501,-0.96,-0.71,
1502,-0.915,-0.65,
1503,-0.89,-0.58,
1504,-0.91,-0.55,
1505,-0.935,-0.585,
1506,-0.975,-0.635,
1507,-1.025,-0.62,
1508,-1.05,-0.57,
1509,-1.075,-0.525,
1510,-1.09,-0.52,
1511,-1.09,-0.57,
1512,-1.07,-0.6,
1513,-1.06,-0.615,
1514,-1.065,-0.575,
1515,-1.09,-0.52,
1516,-1.095,-0.51,
1517,-1.1,-0.53,
1518,-1.08,-0.585,
1519,-1.07,-0.605,
1520,-1.065,-0.56,
1521,-1.065,-0.49,
1522,-1.05,-0.45,
1523,-1.075,-0.48,
1524,-1.065,-0.53,
1525,-1.04,-0.57,
1526,-1.035,-0.55,
1527,-1.04,-0.515,
1528,-1.065,-0.485,
1529,-1.075,-0.505,
1530,-1.075,-0.545,
1531,-1.05,-0.565,
1532,-1.04,-0.515,
1533,-1.035,-0.44,
1534,-1.055,-0.4,
1535,-1.075,-0.43,
1536,-1.045,-0.47,
1537,-1.04,-0.53,
1538,-1.045,-0.545,
1539,-1.04,-0.5,
1540,-1.06,-0.45,
1541,-1.07,-0.445,
1542,-1.06,-0.49,
1543,-1.045,-0.515,
1544,-1.0,-0.5,
1545,-1.0,-0.42,
1546,-1.035,-0.38,
1547,-1.035,-0.39,
1548,-1.025,-0.42,
1549,-1.015,-0.465,
1550,-1.005,-0.47,
1551,-1.01,-0.415,
1552,-1.03,-0.38,
1553,-1.04,-0.38,
1554,-1.04,-0.425,
1555,-1.02,-0.47,
1556,-0.985,-0.455,
1557,-0.975,-0.4,
1558,-0.965,-0.32,
1559,-0.97,-0.315,
1560,-0.98,-0.345,
1561,-0.98,-0.39,
1562,-0.96,-0.45,
1563,-0.97,-0.45,
1564,-0.97,-0.39,
1565,-0.965,-0.35,
1566,-0.965,-0.365,
1567,-0.965,-0.41,
1568,-0.95,-0.435,
1569,-0.935,-0.395,
1570,-0.915,-0.335,
1571,-0.935,-0.345,
1572,-0.925,-0.385,
1573,-0.92,-0.44,
1574,-0.93,-0.465,
1575,-0.925,-0.445,
1576,-0.94,-0.4,
1577,-0.95,-0.43,
1578,-0.935,-0.47,
1579,-0.92,-0.505,
1580,-0.905,-0.495,
1581,-0.885,-0.45,
1582,-0.9,-0.405,
1583,-0.905,-0.43,
1584,-0.91,-0.48,
1585,-0.91,-0.535,
1586,-0.885,-0.555,
1587,-0.905,-0.525,
1588,-0.925,-0.485,
1589,-0.93,-0.49,
1590,-0.945,-0.53,
1591,-0.94,-0.58,
1592,-0.91,-0.595,
1593,-0.89,-0.54,
1594,-0.92,-0.485,
1595,-0.92,-0.46,
1596,-0.925,-0.495,
1597,-0.92,-0.57,
1598,-0.925,-0.6,
1599,-0.93,-0.605,
1600,-0.935,-0.565,
1601,-0.95,-0.52,
1602,-0.965,-0.535,
1603,-0.975,-0.59,
1604,-0.945,-0.61,
1605,-0.925,-0.595,
1606,-0.925,-0.505,
1607,-0.945,-0.475,
1608,-0.94,-0.5,
1609,-0.94,-0.555,
1610,-0.945,-0.62,
1611,-0.94,-0.62,
1612,-0.95,-0.59,
1613,-0.975,-0.54,
1614,-0.985,-0.515,
1615,-1.0,-0.535,
1616,-0.97,-0.585,
1617,-0.96,-0.595,
1618,-0.95,-0.54,
1619,-0.94,-0.495,
1620,-0.965,-0.49,
1621,-0.97,-0.54,
1622,-0.97,-0.59,
1623,-0.98,-0.63,
1624,-0.98,-0.6,
1625,-1.015,-0.54,
1626,-1.03,-0.49,
1627,-1.035,-0.52,
1628,-1.025,-0.575,
1629,-1.0,-0.605,
1630,-0.995,-0.595,
1631,-0.99,-0.545,
1632,-1.0,-0.49,
1633,-1.035,-0.49,
1634,-1.04,-0.57,
1635,-1.035,-0.605,
1636,-1.02,-0.63,
1637,-1.04,-0.6,
1638,-1.02,-0.515,
1639,-1.04,-0.495,
1640,-1.04,-0.52,
1641,-1.035,-0.575,
1642,-1.005,-0.59,
1643,-0.99,-0.56,
1644,-1.005,-0.51,
1645,-1.025,-0.495,
1646,-1.025,-0.525,
1647,-1.015,-0.59,
1648,-1.0,-0.615,
1649,-1.0,-0.59,
1650,-1.0,-0.545,
1651,-1.01,-0.49,
1652,-0.995,-0.525,
1653,-0.97,-0.565,
1654,-0.935,-0.57,
1655,-0.925,-0.54,
1656,-0.93,-0.49,
1657,-0.94,-0.48,
1658,-0.945,-0.535,
1659,-0.94,-0.6,
1660,-0.925,-0.63,
1661,-0.92,-0.595,
1662,-0.905,-0.525,
1663,-0.905,-0.46,
1664,-0.885,-0.455,
1665,-0.845,-0.52,
1666,-0.805,-0.545,
1667,-0.775,-0.55,
1668,-0.765,-0.485,
1669,-0.765,-0.43,
1670,-0.77,-0.425,
1671,-0.775,-0.46,
1672,-0.77,-0.515,
1673,-0.76,-0.515,
1674,-0.745,-0.45,
1675,-0.76,-0.41,
1676,-0.79,-0.425,
1677,-0.775,-0.45,
1678,-0.77,-0.49,
1679,-0.76,-0.485,
1680,-0.765,-0.455,
1681,-0.795,-0.405,
1682,-0.83,-0.4,
1683,-0.845,-0.475,
1684,-0.84,-0.535,
1685,-0.825,-0.55,
1686,-0.83,-0.515,
1687,-0.84,-0.445,
1688,-0.87,-0.43,
1689,-0.895,-0.44,
1690,-0.9,-0.545,
1691,-0.905,-0.6,
1692,-0.905,-0.59,
1693,-0.925,-0.535,
1694,-0.95,-0.49,
1695,-0.98,-0.485,
1696,-1.01,-0.535,
1697,-1.0,-0.605,
1698,-0.995,-0.61,
1699,-0.985,-0.545,
1700,-0.995,-0.475,
1701,-1.02,-0.45,
1702,-1.02,-0.485,
1703,-1.015,-0.535,
1704,-1.0,-0.59,
1705,-0.98,-0.58,
1706,-0.97,-0.515,
1707,-0.995,-0.48,
1708,-1.015,-0.475,
1709,-1.025,-0.53,
1710,-1.03,-0.59,
1711,-1.015,-0.6,
1712,-1.035,-0.56,
1713,-1.075,-0.47,
1714,-1.12,-0.455,
1715,-1.165,-0.49,
1716,-1.18,-0.56,
1717,-1.165,-0.56,
1718,-1.1,-0.5,
1719,-1.01,-0.42,
1720,-0.85,-0.345,
1721,-0.65,-0.315,
1722,-0.43,-0.29,
1723,-0.2,-0.23,
1724,0.0,-0.14,
1725,0.2,-0.065,
1726,0.405,-0.065,
1727,0.545,-0.15,
1728,0.65,-0.235,
1729,0.705,-0.32,
1730,0.725,-0.39,N
1731,0.68,-0.46,
1732,0.635,-0.535,
1733,0.57,-0.605,
1734,0.505,-0.585,
1735,0.415,-0.495,
1736,0.265,-0.345,
1737,0.025,-0.23,
1738,-0.275,-0.19,
1739,-0.55,-0.315,
1740,-0.75,-0.48,
1741,-0.865,-0.605,
1742,-0.925,-0.625,
1743,-0.94,-0.6,
1744,-0.92,-0.55,
1745,-0.885,-0.525,
1746,-0.86,-0.575,
1747,-0.875,-0.56,
1748,-0.875,-0.52,
1749,-0.935,-0.465,
1750,-0.98,-0.445,
1751,-1.01,-0.47,
1752,-1.03,-0.545,
1753,-1.03,-0.565,
1754,-1.035,-0.54,
1755,-1.045,-0.5,
1756,-1.055,-0.455,
1757,-1.07,-0.45,
1758,-1.065,-0.525,
1759,-1.06,-0.54,
1760,-1.045,-0.545,
1761,-1.05,-0.485,
1762,-1.04,-0.43,
1763,-1.03,-0.375,
1764,-1.035,-0.42,
1765,-1.025,-0.48,
1766,-1.025,-0.525,
1767,-1.025,-0.48,
1768,-1.035,-0.455,
1769,-1.05,-0.445,
1770,-1.055,-0.46,
1771,-1.035,-0.49,
1772,-1.01,-0.485,
1773,-1.025,-0.44,
1774,-1.015,-0.375,
1775,-1.02,-0.365,
1776,-1.025,-0.405,
1777,-1.015,-0.47,
1778,-1.005,-0.48,
1779,-1.005,-0.445,
1780,-1.015,-0.405,
1781,-1.02,-0.35,
1782,-1.04,-0.405,
1783,-1.02,-0.435,
1784,-1.015,-0.46,
1785,-0.99,-0.395,
1786,-0.98,-0.34,
1787,-0.98,-0.315,
1788,-0.985,-0.335,
1789,-0.98,-0.385,
1790,-0.97,-0.415,
1791,-0.97,-0.38,
1792,-0.99,-0.355,
1793,-0.99,-0.34,
1794,-0.985,-0.365,
1795,-0.96,-0.385,
1796,-0.945,-0.355,
1797,-0.945,-0.32,
1798,-0.94,-0.29,
1799,-0.925,-0.325,
1800,-0.925,-0.35,
1801,-0.92,-0.355,
1802,-0.92,-0.36,
1803,-0.93,-0.315,
1804,-0.945,-0.32,
1805,-0.94,-0.365,
1806,-0.935,-0.4,
1807,-0.925,-0.38,
1808,-0.915,-0.345,
1809,-0.91,-0.3,
1810,-0.905,-0.285,
1811,-0.9,-0.35,
1812,-0.885,-0.395,
1813,-0.885,-0.4,
1814,-0.9,-0.355,
1815,-0.9,-0.34,
1816,-0.92,-0.35,
1817,-0.9,-0.415,
1818,-0.89,-0.445,
1819,-0.865,-0.435,
1820,-0.86,-0.385,
1821,-0.855,-0.345,
1822,-0.88,-0.365,
1823,-0.85,-0.42,
1824,-0.825,-0.47,
1825,-0.83,-0.48,
1826,-0.835,-0.43,
1827,-0.875,-0.395,
1828,-0.885,-0.415,
1829,-0.885,-0.48,
1830,-0.87,-0.52,
1831,-0.865,-0.54,
1832,-0.865,-0.49,
1833,-0.855,-0.41,
1834,-0.87,-0.395,
1835,-0.85,-0.415,
1836,-0.86,-0.49,
1837,-0.855,-0.535,
1838,-0.85,-0.525,
1839,-0.875,-0.46,
1840,-0.885,-0.425,
1841,-0.905,-0.445,
1842,-0.91,-0.535,
1843,-0.895,-0.545,
1844,-0.87,-0.525,
1845,-0.87,-0.46,
1846,-0.875,-0.39,
1847,-0.885,-0.405,
1848,-0.885,-0.5,
1849,-0.89,-0.54,
1850,-0.875,-0.56,
1851,-0.87,-0.535,
1852,-0.9,-0.46,
1853,-0.92,-0.445,
1854,-0.935,-0.48,
1855,-0.915,-0.52,
1856,-0.905,-0.55,
1857,-0.88,-0.54,
1858,-0.88,-0.47,
1859,-0.91,-0.415,
1860,-0.915,-0.43,
1861,-0.92,-0.49,
1862,-0.915,-0.545,
1863,-0.925,-0.555,
1864,-0.955,-0.51,
1865,-0.945,-0.475,
1866,-0.96,-0.495,
1867,-0.965,-0.515,
1868,-0.96,-0.545,
1869,-0.935,-0.51,
1870,-0.955,-0.465,
1871,-0.965,-0.445,
1872,-0.99,-0.5,
1873,-0.985,-0.545,
1874,-0.98,-0.56,
1875,-0.99,-0.515,
1876,-1.005,-0.5,
1877,-1.0,-0.515,
1878,-1.01,-0.55,
1879,-1.005,-0.57,
1880,-0.995,-0.53,
1881,-0.99,-0.48,
1882,-0.98,-0.445,
1883,-0.99,-0.49,
1884,-0.985,-0.545,
1885,-0.965,-0.565,
1886,-0.965,-0.535,
1887,-0.975,-0.5,
1888,-1.0,-0.47,
1889,-0.985,-0.51,
1890,-0.98,-0.565,
1891,-0.965,-0.57,
1892,-0.95,-0.54,
1893,-0.945,-0.485,
1894,-0.93,-0.45,
1895,-0.91,-0.475,
1896,-0.905,-0.52,
1897,-0.88,-0.545,
1898,-0.885,-0.525,
1899,-0.895,-0.495,
1900,-0.91,-0.47,
1901,-0.905,-0.535,
1902,-0.885,-0.55,
1903,-0.845,-0.555,
1904,-0.81,-0.48,
1905,-0.8,-0.425,
1906,-0.795,-0.41,
1907,-0.76,-0.455,
1908,-0.75,-0.505,
1909,-0.72,-0.51,
1910,-0.71,-0.47,
1911,-0.7,-0.405,
1912,-0.71,-0.405,
1913,-0.715,-0.435,
1914,-0.705,-0.485,
1915,-0.71,-0.485,
1916,-0.715,-0.43,
1917,-0.72,-0.375,
1918,-0.735,-0.37,
1919,-0.75,-0.4,
1920,-0.75,-0.45,
1921,-0.745,-0.49,
1922,-0.755,-0.46,
1923,-0.77,-0.41,
1924,-0.795,-0.425,
1925,-0.795,-0.455,
1926,-0.8,-0.51,
1927,-0.815,-0.505,
1928,-0.805,-0.49,
1929,-0.84,-0.45,
1930,-0.85,-0.44,
1931,-0.875,-0.485,
1932,-0.895,-0.545,
1933,-0.885,-0.56,
1934,-0.9,-0.535,
1935,-0.915,-0.49,
1936,-0.935,-0.475,
1937,-0.935,-0.515,
1938,-0.94,-0.535,
1939,-0.93,-0.54,
1940,-0.945,-0.495,
1941,-0.94,-0.465,
1942,-0.935,-0.49,
1943,-0.925,-0.525,
1944,-0.925,-0.515,
1945,-0.94,-0.495,
1946,-0.955,-0.485,
1947,-0.965,-0.485,
1948,-0.985,-0.56,
1949,-1.015,-0.59,
1950,-1.075,-0.575,
1951,-1.11,-0.515,
1952,-1.16,-0.48,
1953,-1.15,-0.47,
1954,-1.07,-0.49,
1955,-0.96,-0.5,
1956,-0.825,-0.395,
1957,-0.645,-0.3,
1958,-0.445,-0.21,
1959,-0.25,-0.195,
1960,-0.06,-0.205,
1961,0.12,-0.205,
1962,0.29,-0.145,
1963,0.47,-0.1,
1964,0.605,-0.095,
1965,0.71,-0.165,
1966,0.765,-0.305,
1967,0.77,-0.455,N
1968,0.725,-0.53,
1969,0.665,-0.51,
1970,0.58,-0.47,
1971,0.485,-0.46,
1972,0.33,-0.42,
1973,0.075,-0.38,
1974,-0.205,-0.325,
1975,-0.5,-0.315,
1976,-0.715,-0.38,
1977,-0.83,-0.47,
1978,-0.885,-0.585,
1979,-0.85,-0.64,
1980,-0.81,-0.6,
1981,-0.78,-0.52,
1982,-0.77,-0.46,
1983,-0.8,-0.43,
1984,-0.84,-0.5,
1985,-0.88,-0.56,
1986,-0.925,-0.575,
1987,-0.955,-0.525,
1988,-0.98,-0.475,
1989,-0.995,-0.455,
1990,-1.015,-0.475,
1991,-1.005,-0.52,
1992,-0.985,-0.53,
1993,-0.99,-0.495,
1994,-0.985,-0.45,
1995,-1.0,-0.43,
1996,-1.01,-0.47,
1997,-1.015,-0.53,
1998,-1.01,-0.56,
1999,-0.99,-0.54,
2000,-0.97,-0.465,
2001,-0.99,-0.4,
2002,-0.975,-0.375,
2003,-0.965,-0.415,
2004,-0.95,-0.485,
2005,-0.95,-0.48,
2006,-0.96,-0.46,
2007,-0.975,-0.41,
2008,-0.99,-0.405,
2009,-0.99,-0.465,
2010,-0.98,-0.47,
2011,-0.97,-0.46,
2012,-0.975,-0.43,
2013,-0.985,-0.39,
2014,-0.985,-0.4,
2015,-0.945,-0.435,
2016,-0.95,-0.44,
2017,-0.95,-0.39,
2018,-0.96,-0.365,
2019,-0.97,-0.385,
2020,-0.975,-0.42,
2021,-0.965,-0.465,
2022,-0.94,-0.45,
2023,-0.95,-0.385,
2024,-0.945,-0.315,
2025,-0.96,-0.305,
2026,-0.94,-0.35,
2027,-0.915,-0.395,
2028,-0.9,-0.4,
2029,-0.915,-0.345,
2030,-0.92,-0.31,
2031,-0.94,-0.31,
2032,-0.93,-0.35,
2033,-0.945,-0.395,
2034,-0.94,-0.405,
2035,-0.93,-0.35,
2036,-0.925,-0.295,
2037,-0.91,-0.28,
2038,-0.915,-0.295,
2039,-0.91,-0.34,
2040,-0.88,-0.37,
2041,-0.87,-0.325,
2042,-0.88,-0.295,
2043,-0.895,-0.28,
2044,-0.895,-0.34,
2045,-0.885,-0.39,
2046,-0.875,-0.41,
2047,-0.875,-0.385,
2048,-0.865,-0.3,
2049,-0.865,-0.27,
2050,-0.85,-0.28,
2051,-0.83,-0.35,
2052,-0.82,-0.395,
2053,-0.83,-0.375,
2054,-0.835,-0.345,
2055,-0.845,-0.33,
2056,-0.85,-0.37,
2057,-0.84,-0.425,
2058,-0.83,-0.455,
2059,-0.815,-0.42,
2060,-0.835,-0.38,
2061,-0.84,-0.325,
2062,-0.845,-0.37,
2063,-0.825,-0.42,
2064,-0.81,-0.465,
2065,-0.81,-0.46,
2066,-0.815,-0.415,
2067,-0.85,-0.395,
2068,-0.86,-0.42,
2069,-0.87,-0.495,
2070,-0.87,-0.535,
2071,-0.845,-0.525,
2072,-0.845,-0.485,
2073,-0.83,-0.42,
2074,-0.86,-0.395,
2075,-0.855,-0.43,
2076,-0.84,-0.5,
2077,-0.84,-0.53,
2078,-0.85,-0.515,
2079,-0.87,-0.465,
2080,-0.885,-0.46,
2081,-0.875,-0.5,
2082,-0.875,-0.545,
2083,-0.885,-0.525,
2084,-0.875,-0.495,
2085,-0.86,-0.44,
2086,-0.865,-0.45,
2087,-0.86,-0.48,
2088,-0.865,-0.525,
2089,-0.85,-0.52,
2090,-0.865,-0.495,
2091,-0.88,-0.475,
2092,-0.885,-0.49,
2093,-0.895,-0.55,
2094,-0.885,-0.55,
2095,-0.885,-0.525,
2096,-0.895,-0.475,
2097,-0.915,-0.45,
2098,-0.895,-0.475,
2099,-0.89,-0.52,
2100,-0.88,-0.55,
2101,-0.89,-0.53,
2102,-0.93,-0.485,
2103,-0.94,-0.45,
2104,-0.96,-0.475,
2105,-0.96,-0.55,
2106,-0.975,-0.57,
2107,-0.95,-0.57,
2108,-0.96,-0.505,
2109,-0.97,-0.45,
2110,-0.975,-0.45,
2111,-0.975,-0.485,
2112,-0.97,-0.55,
2113,-0.955,-0.545,
2114,-0.955,-0.53,
2115,-0.965,-0.5,
2116,-0.99,-0.505,
2117,-0.98,-0.56,
2118,-0.975,-0.59,
2119,-0.96,-0.575,
2120,-0.95,-0.52,
2121,-0.95,-0.47,
2122,-0.96,-0.455,
2123,-0.945,-0.505,
2124,-0.955,-0.57,
2125,-0.94,-0.58,
2126,-0.925,-0.555,
2127,-0.925,-0.505,
2128,-0.945,-0.47,
2129,-0.975,-0.505,
2130,-0.955,-0.55,
2131,-0.945,-0.58,
2132,-0.915,-0.54,
2133,-0.895,-0.48,
2134,-0.885,-0.425,
2135,-0.88,-0.415,
2136,-0.86,-0.48,
2137,-0.855,-0.53,
2138,-0.845,-0.54,
2139,-0.86,-0.5,
2140,-0.89,-0.47,
2141,-0.885,-0.46,
2142,-0.885,-0.505,
2143,-0.84,-0.54,
2144,-0.805,-0.525,
2145,-0.77,-0.485,
2146,-0.745,-0.44,
2147,-0.745,-0.395,
2148,-0.725,-0.44,
2149,-0.705,-0.48,
2150,-0.69,-0.5,
2151,-0.705,-0.46,
2152,-0.715,-0.4,
2153,-0.725,-0.39,
2154,-0.725,-0.415,
2155,-0.715,-0.47,
2156,-0.705,-0.49,
2157,-0.7,-0.44,
2158,-0.715,-0.385,
2159,-0.715,-0.385,
2160,-0.735,-0.425,
2161,-0.74,-0.465,
2162,-0.74,-0.46,
2163,-0.77,-0.44,
2164,-0.78,-0.43,
2165,-0.795,-0.46,
2166,-0.81,-0.515,
2167,-0.825,-0.52,
2168,-0.83,-0.485,
2169,-0.85,-0.45,
2170,-0.885,-0.45,
2171,-0.885,-0.51,
2172,-0.885,-0.56,
2173,-0.88,-0.565,
2174,-0.89,-0.51,
2175,-0.94,-0.47,
2176,-0.97,-0.465,
2177,-0.96,-0.505,
2178,-0.95,-0.575,
2179,-0.945,-0.58,
2180,-0.935,-0.535,
2181,-0.925,-0.46,
2182,-0.95,-0.42,
2183,-0.935,-0.47,
2184,-0.94,-0.52,
2185,-0.92,-0.555,
2186,-0.925,-0.54,
2187,-0.97,-0.5,
2188,-0.99,-0.505,
2189,-1.015,-0.54,
2190,-1.035,-0.575,
2191,-1.075,-0.58,
2192,-1.12,-0.54,
2193,-1.12,-0.485,
2194,-1.105,-0.43,
2195,-1.025,-0.435,
2196,-0.92,-0.425,
2197,-0.755,-0.41,
2198,-0.585,-0.33,
2199,-0.415,-0.23,
2200,-0.26,-0.155,
2201,-0.105,-0.11,
2202,0.04,-0.14,
2203,0.205,-0.155,
2204,0.39,-0.135,
2205,0.53,-0.105,
2206,0.645,-0.07,
2207,0.71,-0.115,
2208,0.735,-0.275,N
2209,0.735,-0.445,
2210,0.705,-0.575,
2211,0.635,-0.565,
2212,0.555,-0.485,
2213,0.46,-0.405,
2214,0.325,-0.345,
2215,0.125,-0.32,
2216,-0.1,-0.335,
2217,-0.37,-0.35,
2218,-0.6,-0.385,
2219,-0.765,-0.405,
2220,-0.86,-0.475,
2221,-0.865,-0.57,
2222,-0.84,-0.635,
2223,-0.8,-0.615,
2224,-0.775,-0.55,
2225,-0.785,-0.48,
2226,-0.82,-0.445,
2227,-0.88,-0.465,
2228,-0.92,-0.53,
2229,-0.93,-0.545,
2230,-0.96,-0.515,
2231,-0.99,-0.465,
2232,-0.99,-0.465,
2233,-1.015,-0.47,
2234,-1.0,-0.52,
2235,-0.99,-0.53,
2236,-1.005,-0.525,
2237,-1.01,-0.475,
2238,-1.01,-0.485,
2239,-1.015,-0.515,
2240,-1.0,-0.545,
2241,-0.96,-0.52,
2242,-0.95,-0.455,
2243,-0.955,-0.405,
2244,-0.95,-0.435,
2245,-0.96,-0.485,
2246,-0.96,-0.54,
2247,-0.97,-0.54,
2248,-1.0,-0.49,
2249,-1.005,-0.44,
2250,-1.01,-0.44,
2251,-0.995,-0.485,
2252,-0.98,-0.51,
2253,-0.94,-0.485,
2254,-0.955,-0.43,
2255,-0.95,-0.38,
2256,-0.97,-0.38,
2257,-0.98,-0.405,
2258,-0.96,-0.49,
2259,-0.96,-0.51,
2260,-0.94,-0.45,
2261,-0.95,-0.415,
2262,-0.975,-0.385,
2263,-0.97,-0.42,
2264,-0.955,-0.455,
2265,-0.925,-0.46,
2266,-0.925,-0.41,
2267,-0.92,-0.335,
2268,-0.935,-0.295,
2269,-0.935,-0.33,
2270,-0.94,-0.415,
2271,-0.925,-0.46,
2272,-0.935,-0.44,
2273,-0.945,-0.385,
2274,-0.95,-0.315,
2275,-0.94,-0.305,
2276,-0.93,-0.355,
2277,-0.915,-0.385,
2278,-0.885,-0.375,
2279,-0.875,-0.315,
2280,-0.885,-0.275,
2281,-0.875,-0.27,
2282,-0.89,-0.35,
2283,-0.895,-0.39,
2284,-0.89,-0.41,
2285,-0.9,-0.37,
2286,-0.91,-0.31,
2287,-0.91,-0.29,
2288,-0.895,-0.345,
2289,-0.885,-0.38,
2290,-0.845,-0.395,
2291,-0.83,-0.34,
2292,-0.845,-0.28,
2293,-0.85,-0.275,
2294,-0.85,-0.34,
2295,-0.855,-0.405,
2296,-0.835,-0.455,
2297,-0.83,-0.415,
2298,-0.84,-0.355,
2299,-0.855,-0.325,
2300,-0.865,-0.335,
2301,-0.835,-0.39,
2302,-0.82,-0.425,
2303,-0.795,-0.415,
2304,-0.81,-0.365,
2305,-0.825,-0.365,
2306,-0.83,-0.425,
2307,-0.82,-0.48,
2308,-0.805,-0.47,
2309,-0.84,-0.45,
2310,-0.85,-0.425,
2311,-0.85,-0.43,
2312,-0.84,-0.485,
2313,-0.82,-0.5,
2314,-0.81,-0.46,
2315,-0.825,-0.41,
2316,-0.835,-0.415,
2317,-0.84,-0.45,
2318,-0.85,-0.51,
2319,-0.86,-0.535,
2320,-0.855,-0.5,
2321,-0.875,-0.465,
2322,-0.88,-0.46,
2323,-0.88,-0.48,
2324,-0.86,-0.54,
2325,-0.845,-0.53,
2326,-0.845,-0.475,
2327,-0.855,-0.415,
2328,-0.865,-0.415,
2329,-0.865,-0.48,
2330,-0.865,-0.545,
2331,-0.86,-0.555,
2332,-0.87,-0.525,
2333,-0.89,-0.48,
2334,-0.91,-0.46,
2335,-0.895,-0.51,
2336,-0.89,-0.545,
2337,-0.87,-0.515,
2338,-0.88,-0.47,
2339,-0.89,-0.435,
2340,-0.895,-0.47,
2341,-0.915,-0.51,
2342,-0.9,-0.55,
2343,-0.925,-0.535,
2344,-0.935,-0.495,
2345,-0.95,-0.485,
2346,-0.96,-0.51,
2347,-0.95,-0.56,
2348,-0.96,-0.585,
2349,-0.94,-0.52,
2350,-0.94,-0.47,
2351,-0.94,-0.45,
2352,-0.945,-0.475,
2353,-0.945,-0.54,
2354,-0.95,-0.57,
2355,-0.945,-0.56,
2356,-0.96,-0.505,
2357,-0.99,-0.49,
2358,-0.98,-0.51,
2359,-0.97,-0.56,
2360,-0.95,-0.58,
2361,-0.935,-0.55,
2362,-0.935,-0.47,
2363,-0.935,-0.45,
2364,-0.955,-0.46,
2365,-0.955,-0.525,
2366,-0.95,-0.575,
2367,-0.935,-0.565,
2368,-0.94,-0.51,
2369,-0.935,-0.475,
2370,-0.94,-0.5,
2371,-0.945,-0.535,
2372,-0.905,-0.555,
2373,-0.9,-0.525,
2374,-0.9,-0.475,
2375,-0.89,-0.465,
2376,-0.875,-0.495,
2377,-0.87,-0.54,
2378,-0.85,-0.545,
2379,-0.85,-0.52,
2380,-0.85,-0.505,
2381,-0.855,-0.52,
2382,-0.855,-0.545,
2383,-0.83,-0.54,
2384,-0.8,-0.475,
2385,-0.775,-0.435,
2386,-0.75,-0.455,
2387,-0.73,-0.485,
2388,-0.675,-0.505,
2389,-0.67,-0.455,
2390,-0.67,-0.4,
2391,-0.695,-0.38,
2392,-0.685,-0.435,
2393,-0.7,-0.47,
2394,-0.68,-0.515,
2395,-0.67,-0.455,
2396,-0.68,-0.39,
2397,-0.7,-0.36,
2398,-0.69,-0.385,
2399,-0.705,-0.44,
2400,-0.705,-0.475,
2401,-0.71,-0.435,
2402,-0.72,-0.405,
2403,-0.745,-0.405,
2404,-0.755,-0.455,
2405,-0.755,-0.51,
2406,-0.755,-0.52,
2407,-0.78,-0.49,
2408,-0.81,-0.45,
2409,-0.835,-0.47,
2410,-0.84,-0.51,
2411,-0.835,-0.55,
2412,-0.835,-0.565,
2413,-0.845,-0.505,
2414,-0.86,-0.445,
2415,-0.89,-0.44,
2416,-0.905,-0.495,
2417,-0.915,-0.565,
2418,-0.91,-0.6,
2419,-0.905,-0.545,
2420,-0.92,-0.49,
2421,-0.92,-0.43,
2422,-0.9,-0.455,
2423,-0.895,-0.51,
2424,-0.89,-0.55,
2425,-0.875,-0.535,
2426,-0.895,-0.485,
2427,-0.92,-0.47,
2428,-0.945,-0.495,
2429,-0.965,-0.555,
2430,-0.985,-0.585,
2431,-1.005,-0.565,
2432,-1.055,-0.505,
2433,-1.1,-0.465,
2434,-1.105,-0.475,
2435,-1.06,-0.515,
2436,-0.985,-0.495,
2437,-0.84,-0.41,
2438,-0.69,-0.285,
2439,-0.5,-0.21,
2440,-0.3,-0.19,
2441,-0.105,-0.185,
2442,0.105,-0.175,
2443,0.295,-0.12,
2444,0.455,-0.045,
2445,0.62,-0.055,
2446,0.705,-0.125,
2447,0.775,-0.28,
2448,0.795,-0.4,N
2449,0.75,-0.475,
2450,0.685,-0.475,
2451,0.575,-0.465,
2452,0.455,-0.44,
2453,0.275,-0.39,
2454,0.005,-0.32,
2455,-0.31,-0.29,
2456,-0.58,-0.34,
2457,-0.775,-0.475,
2458,-0.865,-0.585,
2459,-0.845,-0.615,
2460,-0.815,-0.6,
2461,-0.79,-0.52,
2462,-0.77,-0.475,
2463,-0.78,-0.505,
2464,-0.8,-0.545,
2465,-0.845,-0.59,
2466,-0.885,-0.555,
2467,-0.935,-0.515,
2468,-0.975,-0.475,
2469,-0.975,-0.505,
2470,-0.97,-0.54,
2471,-0.945,-0.55,
2472,-0.96,-0.51,
2473,-0.965,-0.455,
2474,-0.97,-0.445,
2475,-0.985,-0.485,
2476,-0.98,-0.55,
2477,-0.985,-0.57,
2478,-0.975,-0.535,
2479,-0.965,-0.47,
2480,-0.96,-0.425,
2481,-0.96,-0.44,
2482,-0.94,-0.485,
2483,-0.93,-0.495,
2484,-0.92,-0.475,
2485,-0.92,-0.425,
2486,-0.945,-0.395,
2487,-0.955,-0.45,
2488,-0.965,-0.51,
2489,-0.95,-0.52,
2490,-0.95,-0.495,
2491,-0.955,-0.45,
2492,-0.945,-0.39,
2493,-0.95,-0.42,
2494,-0.92,-0.455,
2495,-0.905,-0.475,
2496,-0.895,-0.445,
2497,-0.9,-0.405,
2498,-0.92,-0.4,
2499,-0.94,-0.415,
2500,-0.945,-0.47,
2501,-0.935,-0.485,
2502,-0.92,-0.435,
2503,-0.92,-0.375,
2504,-0.93,-0.35,
2505,-0.935,-0.355,
2506,-0.925,-0.395,
2507,-0.9,-0.42,
2508,-0.89,-0.375,
2509,-0.89,-0.325,
2510,-0.895,-0.3,
2511,-0.915,-0.345,
2512,-0.9,-0.4,
2513,-0.895,-0.415,
2514,-0.89,-0.39,
2515,-0.9,-0.335,
2516,-0.905,-0.3,
2517,-0.89,-0.33,
2518,-0.87,-0.365,
2519,-0.85,-0.36,
2520,-0.845,-0.33,
2521,-0.86,-0.295,
2522,-0.87,-0.295,
2523,-0.885,-0.335,
2524,-0.85,-0.4,
2525,-0.855,-0.405,
2526,-0.86,-0.355,
2527,-0.85,-0.335,
2528,-0.86,-0.33,
2529,-0.85,-0.38,
2530,-0.85,-0.4,
2531,-0.815,-0.38,
2532,-0.825,-0.33,
2533,-0.83,-0.34,
2534,-0.835,-0.375,
2535,-0.84,-0.445,
2536,-0.825,-0.455,
2537,-0.815,-0.425,
2538,-0.835,-0.395,
2539,-0.825,-0.38,
2540,-0.84,-0.395,
2541,-0.815,-0.465,
2542,-0.8,-0.495,
2543,-0.775,-0.47,
2544,-0.79,-0.41,
2545,-0.81,-0.375,
2546,-0.83,-0.41,
2547,-0.86,-0.485,
2548,-0.84,-0.565,
2549,-0.815,-0.58,
2550,-0.82,-0.51,
2551,-0.86,-0.445,
2552,-0.855,-0.41,
2553,-0.85,-0.45,
2554,-0.84,-0.515,
2555,-0.81,-0.51,
2556,-0.795,-0.49,
2557,-0.825,-0.44,
2558,-0.845,-0.43,
2559,-0.865,-0.475,
2560,-0.86,-0.545,
2561,-0.84,-0.59,
2562,-0.85,-0.57,
2563,-0.845,-0.5,
2564,-0.86,-0.455,
2565,-0.865,-0.445,
2566,-0.85,-0.505,
2567,-0.83,-0.545,
2568,-0.815,-0.535,
2569,-0.825,-0.495,
2570,-0.855,-0.455,
2571,-0.875,-0.46,
2572,-0.885,-0.535,
2573,-0.885,-0.565,
2574,-0.88,-0.595,
2575,-0.88,-0.54,
2576,-0.87,-0.475,
2577,-0.885,-0.45,
2578,-0.885,-0.49,
2579,-0.875,-0.53,
2580,-0.865,-0.555,
2581,-0.87,-0.52,
2582,-0.885,-0.48,
2583,-0.91,-0.465,
2584,-0.925,-0.49,
2585,-0.935,-0.555,
2586,-0.945,-0.61,
2587,-0.94,-0.575,
2588,-0.96,-0.515,
2589,-0.955,-0.46,
2590,-0.95,-0.465,
2591,-0.935,-0.515,
2592,-0.935,-0.565,
2593,-0.93,-0.575,
2594,-0.94,-0.535,
2595,-0.975,-0.495,
2596,-0.995,-0.505,
2597,-0.98,-0.555,
2598,-0.975,-0.6,
2599,-0.96,-0.575,
2600,-0.945,-0.52,
2601,-0.955,-0.485,
2602,-0.945,-0.49,
2603,-0.94,-0.52,
2604,-0.93,-0.565,
2605,-0.905,-0.545,
2606,-0.915,-0.49,
2607,-0.94,-0.47,
2608,-0.935,-0.52,
2609,-0.94,-0.57,
2610,-0.925,-0.59,
2611,-0.92,-0.57,
2612,-0.91,-0.505,
2613,-0.915,-0.44,
2614,-0.935,-0.455,
2615,-0.92,-0.51,
2616,-0.9,-0.575,
2617,-0.875,-0.575,
2618,-0.88,-0.54,
2619,-0.865,-0.485,
2620,-0.885,-0.485,
2621,-0.885,-0.555,
2622,-0.88,-0.58,
2623,-0.875,-0.595,
2624,-0.86,-0.54,
2625,-0.845,-0.475,
2626,-0.83,-0.485,
2627,-0.815,-0.51,
2628,-0.78,-0.54,
2629,-0.755,-0.54,
2630,-0.71,-0.49,
2631,-0.72,-0.465,
2632,-0.735,-0.44,
2633,-0.73,-0.495,
2634,-0.73,-0.545,
2635,-0.695,-0.515,
2636,-0.68,-0.46,
2637,-0.69,-0.39,
2638,-0.7,-0.375,
2639,-0.69,-0.415,
2640,-0.665,-0.48,
2641,-0.67,-0.495,
2642,-0.7,-0.47,
2643,-0.725,-0.435,
2644,-0.77,-0.44,
2645,-0.77,-0.46,
2646,-0.76,-0.52,
2647,-0.755,-0.525,
2648,-0.765,-0.47,
2649,-0.75,-0.425,
2650,-0.775,-0.445,
2651,-0.8,-0.49,
2652,-0.825,-0.555,
2653,-0.845,-0.565,
2654,-0.86,-0.535,
2655,-0.88,-0.505,
2656,-0.91,-0.5,
2657,-0.91,-0.54,
2658,-0.915,-0.6,
2659,-0.905,-0.615,
2660,-0.905,-0.55,
2661,-0.91,-0.49,
2662,-0.94,-0.455,
2663,-0.94,-0.5,
2664,-0.925,-0.575,
2665,-0.915,-0.605,
2666,-0.925,-0.58,
2667,-0.925,-0.54,
2668,-0.94,-0.535,
2669,-0.94,-0.58,
2670,-0.95,-0.61,
2671,-0.945,-0.62,
2672,-0.945,-0.57,
2673,-0.98,-0.53,
2674,-1.015,-0.53,
2675,-1.04,-0.56,
2676,-1.08,-0.61,
2677,-1.095,-0.595,
2678,-1.08,-0.535,
2679,-1.02,-0.465,
2680,-0.92,-0.425,
2681,-0.765,-0.425,
2682,-0.56,-0.405,
2683,-0.35,-0.35,
2684,-0.175,-0.245,
2685,0.015,-0.135,
2686,0.175,-0.085,
2687,0.315,-0.105,
2688,0.475,-0.14,
2689,0.605,-0.195,
2690,0.7,-0.225,
2691,0.76,-0.27,
2692,0.75,-0.335,N
2693,0.725,-0.47,
2694,0.675,-0.6,
2695,0.645,-0.62,
2696,0.565,-0.56,
2697,0.47,-0.425,
2698,0.27,-0.3,
2699,-0.005,-0.275,
2700,-0.31,-0.37,
2701,-0.555,-0.48,
2702,-0.73,-0.55,
2703,-0.85,-0.57,
2704,-0.905,-0.565,
2705,-0.865,-0.605,
2706,-0.83,-0.63,
2707,-0.78,-0.63,
2708,-0.765,-0.585,
2709,-0.77,-0.505,
2710,-0.83,-0.465,
2711,-0.905,-0.45,
2712,-0.925,-0.52,
2713,-0.95,-0.595,
2714,-0.955,-0.605,
2715,-0.975,-0.56,
2716,-1.01,-0.525,
2717,-1.02,-0.51,
2718,-1.03,-0.54,
2719,-1.015,-0.595,
2720,-1.005,-0.59,
2721,-1.0,-0.53,
2722,-0.985,-0.47,
2723,-0.99,-0.435,
2724,-0.99,-0.475,
2725,-0.98,-0.545,
2726,-0.97,-0.575,
2727,-0.98,-0.53,
2728,-0.985,-0.465,
2729,-0.99,-0.445,
2730,-1.005,-0.495,
2731,-0.985,-0.56,
2732,-0.98,-0.575,
2733,-0.965,-0.53,
2734,-0.945,-0.445,
2735,-0.97,-0.42,
2736,-0.97,-0.44,
2737,-0.96,-0.495,
2738,-0.945,-0.525,
2739,-0.965,-0.495,
2740,-0.96,-0.455,
2741,-0.985,-0.425,
2742,-0.995,-0.48,
2743,-0.975,-0.535,
2744,-0.96,-0.5,
2745,-0.94,-0.465,
2746,-0.945,-0.395,
2747,-0.935,-0.39,
2748,-0.935,-0.425,
2749,-0.925,-0.465,
2750,-0.905,-0.445,
2751,-0.94,-0.415,
2752,-0.95,-0.38,
2753,-0.96,-0.43,
2754,-0.975,-0.46,
2755,-0.95,-0.465,
2756,-0.935,-0.43,
2757,-0.93,-0.365,
2758,-0.92,-0.34,
2759,-0.92,-0.345,
2760,-0.91,-0.4,
2761,-0.88,-0.44,
2762,-0.87,-0.405,
2763,-0.865,-0.365,
2764,-0.905,-0.34,
2765,-0.915,-0.355,
2766,-0.925,-0.43,
2767,-0.92,-0.465,
2768,-0.89,-0.445,
2769,-0.885,-0.395,
2770,-0.875,-0.345,
2771,-0.885,-0.345,
2772,-0.87,-0.395,
2773,-0.855,-0.445,
2774,-0.845,-0.42,
2775,-0.865,-0.39,
2776,-0.89,-0.375,
2777,-0.89,-0.41,
2778,-0.88,-0.44,
2779,-0.865,-0.495,
2780,-0.86,-0.47,
2781,-0.855,-0.395,
2782,-0.85,-0.36,
2783,-0.84,-0.39,
2784,-0.83,-0.455,
2785,-0.83,-0.515,
2786,-0.815,-0.505,
2787,-0.82,-0.48,
2788,-0.84,-0.435,
2789,-0.86,-0.45,
2790,-0.865,-0.52,
2791,-0.865,-0.57,
2792,-0.84,-0.57,
2793,-0.825,-0.52,
2794,-0.825,-0.455,
2795,-0.83,-0.445,
2796,-0.84,-0.5,
2797,-0.85,-0.56,
2798,-0.84,-0.56,
2799,-0.85,-0.54,
2800,-0.865,-0.5,
2801,-0.88,-0.5,
2802,-0.885,-0.55,
2803,-0.88,-0.61,
2804,-0.865,-0.595,
2805,-0.875,-0.545,
2806,-0.88,-0.495,
2807,-0.89,-0.485,
2808,-0.87,-0.555,
2809,-0.87,-0.59,
2810,-0.855,-0.6,
2811,-0.865,-0.545,
2812,-0.885,-0.505,
2813,-0.9,-0.53,
2814,-0.91,-0.58,
2815,-0.9,-0.63,
2816,-0.88,-0.605,
2817,-0.905,-0.54,
2818,-0.905,-0.495,
2819,-0.915,-0.53,
2820,-0.9,-0.57,
2821,-0.89,-0.6,
2822,-0.91,-0.575,
2823,-0.925,-0.55,
2824,-0.94,-0.55,
2825,-0.955,-0.595,
2826,-0.95,-0.64,
2827,-0.96,-0.635,
2828,-0.94,-0.575,
2829,-0.96,-0.52,
2830,-0.965,-0.51,
2831,-0.985,-0.55,
2832,-0.95,-0.61,
2833,-0.95,-0.6,
2834,-0.955,-0.59,
2835,-0.975,-0.535,
2836,-0.985,-0.535,
2837,-1.0,-0.58,
2838,-1.0,-0.64,
2839,-0.985,-0.675,
2840,-0.985,-0.62,
2841,-0.97,-0.55,
2842,-0.985,-0.515,
2843,-0.99,-0.55,
2844,-0.975,-0.6,
2845,-0.97,-0.62,
2846,-0.96,-0.6,
2847,-0.965,-0.555,
2848,-0.98,-0.545,
2849,-1.0,-0.585,
2850,-1.01,-0.63,
2851,-0.98,-0.665,
2852,-0.975,-0.625,
2853,-0.965,-0.565,
2854,-0.955,-0.51,
2855,-0.965,-0.525,
2856,-0.95,-0.58,
2857,-0.925,-0.635,
2858,-0.92,-0.625,
2859,-0.925,-0.565,
2860,-0.94,-0.53,
2861,-0.955,-0.55,
2862,-0.94,-0.615,
2863,-0.915,-0.63,
2864,-0.895,-0.61,
2865,-0.88,-0.55,
2866,-0.875,-0.51,
2867,-0.865,-0.53,
2868,-0.885,-0.585,
2869,-0.855,-0.605,
2870,-0.84,-0.58,
2871,-0.825,-0.54,
2872,-0.83,-0.52,
2873,-0.825,-0.555,
2874,-0.8,-0.605,
2875,-0.765,-0.615,
2876,-0.74,-0.58,
2877,-0.72,-0.5,
2878,-0.7,-0.45,
2879,-0.7,-0.455,
2880,-0.695,-0.505,
2881,-0.68,-0.525,
2882,-0.675,-0.505,
2883,-0.71,-0.46,
2884,-0.74,-0.47,
2885,-0.77,-0.52,
2886,-0.78,-0.555,
2887,-0.75,-0.56,
2888,-0.745,-0.505,
2889,-0.755,-0.48,
2890,-0.77,-0.49,
2891,-0.75,-0.53,
2892,-0.745,-0.53,
2893,-0.77,-0.515,
2894,-0.81,-0.495,
2895,-0.85,-0.515,
2896,-0.875,-0.6,
2897,-0.88,-0.65,
2898,-0.89,-0.635,
2899,-0.91,-0.585,
2900,-0.925,-0.535,
2901,-0.93,-0.535,
2902,-0.905,-0.575,
2903,-0.905,-0.605,
2904,-0.89,-0.595,
2905,-0.91,-0.54,
2906,-0.92,-0.515,
2907,-0.95,-0.535,
2908,-0.96,-0.595,
2909,-0.95,-0.64,
2910,-0.94,-0.635,
2911,-0.94,-0.6,
2912,-0.96,-0.54,
2913,-0.97,-0.55,
2914,-0.96,-0.585,
2915,-0.945,-0.62,
2916,-0.96,-0.61,
2917,-0.995,-0.565,
2918,-1.045,-0.55,
2919,-1.1,-0.555,
2920,-1.155,-0.615,
2921,-1.145,-0.645,
2922,-1.1,-0.61,
2923,-1.025,-0.515,
2924,-0.895,-0.41,
2925,-0.745,-0.32,
2926,-0.565,-0.31,
2927,-0.34,-0.315,
2928,-0.14,-0.275,
2929,0.055,-0.175,
2930,0.22,-0.095,
2931,0.36,-0.085,
2932,0.485,-0.125,
2933,0.615,-0.235,
2934,0.715,-0.335,
2935,0.76,-0.39,N
2936,0.75,-0.435,
2937,0.71,-0.51,
2938,0.665,-0.565,
2939,0.605,-0.585,
2940,0.535,-0.535,
2941,0.39,-0.405,
2942,0.15,-0.29,
2943,-0.15,-0.28,
2944,-0.45,-0.395,
2945,-0.68,-0.555,
2946,-0.83,-0.67,
2947,-0.875,-0.695,
2948,-0.87,-0.635,
2949,-0.83,-0.545,
2950,-0.795,-0.53,
2951,-0.765,-0.55,
2952,-0.75,-0.585,
2953,-0.785,-0.605,
2954,-0.835,-0.57,
2955,-0.905,-0.535,
2956,-0.96,-0.54,
2957,-0.99,-0.595,
2958,-1.01,-0.63,
2959,-1.01,-0.64,
2960,-1.01,-0.585,
2961,-1.005,-0.52,
2962,-1.02,-0.52,
2963,-1.01,-0.56,
2964,-0.995,-0.59,
2965,-0.985,-0.555,
2966,-0.98,-0.515,
2967,-0.99,-0.485,
2968,-0.99,-0.515,
2969,-1.005,-0.59,
2970,-1.0,-0.635,
2971,-1.005,-0.615,
2972,-1.005,-0.55,
2973,-1.0,-0.485,
2974,-1.01,-0.5,
2975,-1.01,-0.54,
2976,-0.99,-0.58,
2977,-0.97,-0.57,
2978,-0.965,-0.515,
2979,-0.98,-0.48,
2980,-1.0,-0.48,
2981,-1.0,-0.53,
2982,-0.985,-0.585,
2983,-0.985,-0.595,
2984,-0.965,-0.535,
2985,-0.96,-0.465,
2986,-0.975,-0.43,
2987,-0.97,-0.47,
2988,-0.965,-0.505,
2989,-0.955,-0.545,
2990,-0.945,-0.52,
2991,-0.955,-0.45,
2992,-0.975,-0.41,
2993,-0.975,-0.45,
2994,-0.97,-0.495,
2995,-0.96,-0.535,
2996,-0.95,-0.515,
2997,-0.94,-0.43,
2998,-0.95,-0.375,
2999,-0.95,-0.36,
3000,-0.935,-0.41,
3001,-0.905,-0.48,
3002,-0.905,-0.465,
3003,-0.905,-0.41,
3004,-0.92,-0.38,
3005,-0.94,-0.375,
3006,-0.925,-0.42,
3007,-0.925,-0.475,
3008,-0.9,-0.45,
3009,-0.905,-0.385,
3010,-0.91,-0.335,
3011,-0.9,-0.34,
3012,-0.895,-0.4,
3013,-0.88,-0.43,
3014,-0.885,-0.44,
3015,-0.89,-0.4,
3016,-0.91,-0.385,
3017,-0.92,-0.41,
3018,-0.895,-0.47,
3019,-0.9,-0.5,
3020,-0.87,-0.48,
3021,-0.865,-0.4,
3022,-0.87,-0.37,
3023,-0.885,-0.38,
3024,-0.855,-0.43,
3025,-0.84,-0.495,
3026,-0.84,-0.51,
3027,-0.845,-0.45,
3028,-0.855,-0.425,
3029,-0.89,-0.45,
3030,-0.885,-0.51,
3031,-0.875,-0.545,
3032,-0.875,-0.54,
3033,-0.86,-0.49,
3034,-0.86,-0.435,
3035,-0.86,-0.435,
3036,-0.845,-0.495,
3037,-0.85,-0.56,
3038,-0.855,-0.535,
3039,-0.85,-0.52,
3040,-0.88,-0.485,
3041,-0.89,-0.5,
3042,-0.905,-0.565,
3043,-0.89,-0.595,
3044,-0.89,-0.575,
3045,-0.875,-0.535,
3046,-0.885,-0.5,
3047,-0.895,-0.5,
3048,-0.89,-0.56,
3049,-0.865,-0.59,
3050,-0.89,-0.58,
3051,-0.9,-0.545,
3052,-0.9,-0.495,
3053,-0.915,-0.52,
3054,-0.91,-0.585,
3055,-0.91,-0.635,
3056,-0.905,-0.635,
3057,-0.88,-0.555,
3058,-0.895,-0.505,
3059,-0.925,-0.475,
3060,-0.93,-0.515,
3061,-0.925,-0.575,
3062,-0.915,-0.62,
3063,-0.9,-0.605,
3064,-0.915,-0.555,
3065,-0.935,-0.555,
3066,-0.93,-0.58,
3067,-0.94,-0.63,
3068,-0.93,-0.625,
3069,-0.93,-0.58,
3070,-0.93,-0.525,
3071,-0.945,-0.485,
3072,-0.95,-0.535,
3073,-0.955,-0.605,
3074,-0.95,-0.64,
3075,-0.955,-0.615,
3076,-0.975,-0.57,
3077,-0.995,-0.555,
3078,-1.005,-0.6,
3079,-1.0,-0.64,
3080,-0.99,-0.66,
3081,-0.98,-0.625,
3082,-0.99,-0.55,
3083,-0.99,-0.53,
3084,-0.975,-0.575,
3085,-0.985,-0.625,
3086,-0.995,-0.64,
3087,-0.975,-0.61,
3088,-1.0,-0.57,
3089,-1.015,-0.565,
3090,-1.015,-0.63,
3091,-1.0,-0.665,
3092,-0.97,-0.645,
3093,-0.955,-0.6,
3094,-0.955,-0.565,
3095,-0.965,-0.545,
3096,-0.96,-0.595,
3097,-0.95,-0.66,
3098,-0.935,-0.66,
3099,-0.93,-0.63,
3100,-0.965,-0.585,
3101,-0.975,-0.57,
3102,-0.975,-0.62,
3103,-0.97,-0.67,
3104,-0.965,-0.67,
3105,-0.955,-0.595,
3106,-0.95,-0.56,
3107,-0.945,-0.555,
3108,-0.93,-0.58,
3109,-0.92,-0.62,
3110,-0.895,-0.62,
3111,-0.905,-0.59,
3112,-0.915,-0.565,
3113,-0.915,-0.595,
3114,-0.91,-0.635,
3115,-0.905,-0.655,
3116,-0.895,-0.615,
3117,-0.85,-0.54,
3118,-0.83,-0.52,
3119,-0.805,-0.545,
3120,-0.775,-0.575,
3121,-0.74,-0.62,
3122,-0.72,-0.58,
3123,-0.73,-0.515,
3124,-0.74,-0.46,
3125,-0.73,-0.49,
3126,-0.745,-0.545,
3127,-0.725,-0.575,
3128,-0.71,-0.57,
3129,-0.69,-0.505,
3130,-0.695,-0.46,
3131,-0.725,-0.43,
3132,-0.72,-0.475,
3133,-0.72,-0.545,
3134,-0.725,-0.575,
3135,-0.735,-0.535,
3136,-0.76,-0.475,
3137,-0.79,-0.48,
3138,-0.8,-0.515,
3139,-0.79,-0.58,
3140,-0.79,-0.63,
3141,-0.78,-0.585,
3142,-0.795,-0.515,
3143,-0.835,-0.47,
3144,-0.845,-0.495,
3145,-0.865,-0.57,
3146,-0.875,-0.66,
3147,-0.87,-0.67,
3148,-0.885,-0.625,
3149,-0.915,-0.56,
3150,-0.94,-0.55,
3151,-0.95,-0.585,
3152,-0.94,-0.645,
3153,-0.92,-0.63,
3154,-0.915,-0.585,
3155,-0.93,-0.545,
3156,-0.945,-0.525,
3157,-0.94,-0.585,
3158,-0.945,-0.635,
3159,-0.94,-0.64,
3160,-0.94,-0.62,
3161,-0.96,-0.58,
3162,-0.96,-0.565,
3163,-1.0,-0.625,
3164,-0.995,-0.665,
3165,-1.0,-0.66,
3166,-1.005,-0.59,
3167,-1.035,-0.54,
3168,-1.09,-0.515,
3169,-1.145,-0.56,
3170,-1.175,-0.635,
3171,-1.15,-0.66,
3172,-1.07,-0.61,
3173,-0.965,-0.5,
3174,-0.835,-0.395,
3175,-0.665,-0.345,
3176,-0.46,-0.33,
3177,-0.22,-0.31,
3178,-0.025,-0.235,
3179,0.165,-0.125,
3180,0.31,-0.09,
3181,0.465,-0.12,
3182,0.59,-0.22,
3183,0.69,-0.33,
3184,0.73,-0.42,N
3185,0.725,-0.495,
3186,0.685,-0.545,
3187,0.605,-0.59,
3188,0.53,-0.595,
3189,0.425,-0.5,
3190,0.24,-0.385,
3191,-0.04,-0.285,
3192,-0.335,-0.33,
3193,-0.59,-0.47,
3194,-0.785,-0.605,
3195,-0.87,-0.68,
3196,-0.895,-0.68,
3197,-0.875,-0.635,
3198,-0.835,-0.595,
3199,-0.82,-0.61,
3200,-0.825,-0.64,
3201,-0.85,-0.63,
3202,-0.885,-0.565,
3203,-0.93,-0.54,
3204,-0.97,-0.535,
3205,-0.99,-0.59,
3206,-1.01,-0.645,
3207,-1.005,-0.645,
3208,-1.01,-0.615,
3209,-1.02,-0.565,
3210,-1.05,-0.565,
3211,-1.04,-0.615,
3212,-1.03,-0.655,
3213,-1.02,-0.645,
3214,-0.995,-0.575,
3215,-1.0,-0.5,
3216,-1.0,-0.485,
3217,-1.01,-0.53,
3218,-1.01,-0.6,
3219,-1.0,-0.64,
3220,-0.995,-0.615,
3221,-1.025,-0.575,
3222,-1.04,-0.535,
3223,-1.035,-0.55,
3224,-1.03,-0.6,
3225,-1.0,-0.62,
3226,-0.985,-0.585,
3227,-0.99,-0.515,
3228,-0.995,-0.48,
3229,-1.01,-0.49,
3230,-0.995,-0.56,
3231,-0.99,-0.59,
3232,-0.985,-0.575,
3233,-1.0,-0.53,
3234,-1.01,-0.5,
3235,-1.015,-0.515,
3236,-1.02,-0.54,
3237,-1.005,-0.56,
3238,-0.98,-0.525,
3239,-0.965,-0.445,
3240,-0.965,-0.42,
3241,-0.97,-0.44,
3242,-0.975,-0.49,
3243,-0.965,-0.535,
3244,-0.975,-0.53,
3245,-0.98,-0.48,
3246,-0.98,-0.43,
3247,-0.995,-0.45,
3248,-0.98,-0.485,
3249,-0.97,-0.505,
3250,-0.94,-0.475,
3251,-0.94,-0.41,
3252,-0.935,-0.375,
3253,-0.965,-0.395,
3254,-0.96,-0.46,
3255,-0.94,-0.49,
3256,-0.935,-0.455,
3257,-0.93,-0.41,
3258,-0.95,-0.405,
3259,-0.95,-0.43,
3260,-0.955,-0.49,
3261,-0.93,-0.485,
3262,-0.9,-0.45,
3263,-0.905,-0.37,
3264,-0.905,-0.36,
3265,-0.91,-0.4,
3266,-0.915,-0.47,
3267,-0.91,-0.51,
3268,-0.9,-0.49,
3269,-0.89,-0.46,
3270,-0.905,-0.43,
3271,-0.925,-0.45,
3272,-0.92,-0.525,
3273,-0.89,-0.55,
3274,-0.89,-0.515,
3275,-0.87,-0.45,
3276,-0.865,-0.41,
3277,-0.875,-0.42,
3278,-0.89,-0.485,
3279,-0.885,-0.555,
3280,-0.88,-0.6,
3281,-0.885,-0.57,
3282,-0.885,-0.535,
3283,-0.895,-0.515,
3284,-0.91,-0.535,
3285,-0.905,-0.6,
3286,-0.89,-0.61,
3287,-0.88,-0.6,
3288,-0.885,-0.54,
3289,-0.895,-0.495,
3290,-0.91,-0.53,
3291,-0.91,-0.61,
3292,-0.91,-0.665,
3293,-0.925,-0.67,
3294,-0.92,-0.625,
3295,-0.925,-0.575,
3296,-0.96,-0.56,
3297,-0.94,-0.6,
3298,-0.92,-0.665,
3299,-0.9,-0.66,
3300,-0.89,-0.61,
3301,-0.925,-0.555,
3302,-0.925,-0.54,
3303,-0.935,-0.595,
3304,-0.94,-0.66,
3305,-0.93,-0.695,
3306,-0.925,-0.665,
3307,-0.94,-0.6,
3308,-0.955,-0.575,
3309,-0.965,-0.59,
3310,-0.945,-0.63,
3311,-0.915,-0.66,
3312,-0.92,-0.615,
3313,-0.915,-0.56,
3314,-0.94,-0.535,
3315,-0.95,-0.57,
3316,-0.96,-0.64,
3317,-0.96,-0.695,
3318,-0.95,-0.695,
3319,-0.975,-0.635,
3320,-1.0,-0.565,
3321,-1.02,-0.55,
3322,-0.995,-0.62,
3323,-0.975,-0.645,
3324,-0.955,-0.665,
3325,-0.955,-0.625,
3326,-0.985,-0.56,
3327,-1.005,-0.58,
3328,-1.01,-0.645,
3329,-1.02,-0.69,
3330,-1.01,-0.71,
3331,-1.025,-0.64,
3332,-1.025,-0.605,
3333,-1.025,-0.595,
3334,-1.035,-0.635,
3335,-1.005,-0.665,
3336,-0.99,-0.645,
3337,-1.0,-0.605,
3338,-1.01,-0.585,
3339,-1.015,-0.59,
3340,-1.03,-0.65,
3341,-1.02,-0.71,
3342,-1.005,-0.695,
3343,-1.0,-0.625,
3344,-1.01,-0.585,
3345,-1.025,-0.57,
3346,-1.015,-0.61,
3347,-0.99,-0.655,
3348,-0.965,-0.68,
3349,-0.965,-0.64,
3350,-0.965,-0.565,
3351,-1.005,-0.545,
3352,-1.0,-0.585,
3353,-1.0,-0.65,
3354,-0.99,-0.7,
3355,-1.005,-0.69,
3356,-0.98,-0.625,
3357,-0.99,-0.585,
3358,-0.99,-0.6,
3359,-0.96,-0.62,
3360,-0.93,-0.645,
3361,-0.915,-0.61,
3362,-0.92,-0.58,
3363,-0.95,-0.555,
3364,-0.935,-0.605,
3365,-0.93,-0.675,
3366,-0.925,-0.715,
3367,-0.91,-0.7,
3368,-0.9,-0.62,
3369,-0.89,-0.545,
3370,-0.865,-0.545,
3371,-0.825,-0.585,
3372,-0.79,-0.63,
3373,-0.775,-0.62,
3374,-0.755,-0.58,
3375,-0.755,-0.535,
3376,-0.75,-0.53,
3377,-0.755,-0.585,
3378,-0.75,-0.61,
3379,-0.75,-0.575,
3380,-0.765,-0.525,
3381,-0.77,-0.49,
3382,-0.76,-0.51,
3383,-0.75,-0.565,
3384,-0.755,-0.6,
3385,-0.76,-0.58,
3386,-0.78,-0.525,
3387,-0.795,-0.485,
3388,-0.81,-0.51,
3389,-0.835,-0.59,
3390,-0.825,-0.64,
3391,-0.82,-0.65,
3392,-0.825,-0.595,
3393,-0.85,-0.545,
3394,-0.88,-0.545,
3395,-0.89,-0.61,
3396,-0.9,-0.645,
3397,-0.895,-0.665,
3398,-0.93,-0.605,
3399,-0.945,-0.585,
3400,-0.98,-0.6,
3401,-0.98,-0.645,
3402,-0.99,-0.69,
3403,-0.98,-0.67,
3404,-0.98,-0.615,
3405,-1.005,-0.575,
3406,-0.995,-0.6,
3407,-0.985,-0.66,
3408,-0.96,-0.655,
3409,-0.93,-0.645,
3410,-0.955,-0.58,
3411,-0.975,-0.58,
3412,-0.995,-0.61,
3413,-0.995,-0.695,
3414,-1.0,-0.725,
3415,-1.01,-0.7,
3416,-1.065,-0.63,
3417,-1.1,-0.575,
3418,-1.15,-0.59,
3419,-1.175,-0.635,
3420,-1.185,-0.69,
3421,-1.165,-0.685,
3422,-1.11,-0.615,
3423,-1.04,-0.52,
3424,-0.925,-0.435,
3425,-0.78,-0.435,
3426,-0.575,-0.44,
3427,-0.38,-0.405,
3428,-0.185,-0.32,
3429,-0.005,-0.22,
3430,0.145,-0.14,
3431,0.31,-0.165,
3432,0.48,-0.215,
3433,0.595,-0.305,
3434,0.685,-0.36,
3435,0.695,-0.41,N
3436,0.695,-0.495,
3437,0.655,-0.59,
3438,0.585,-0.66,
3439,0.53,-0.67,
3440,0.445,-0.595,
3441,0.29,-0.45,
3442,0.06,-0.345,
3443,-0.24,-0.35,
3444,-0.515,-0.46,
3445,-0.725,-0.585,
3446,-0.855,-0.68,
3447,-0.915,-0.695,
3448,-0.915,-0.675,
3449,-0.905,-0.675,
3450,-0.865,-0.705,
3451,-0.84,-0.7,
3452,-0.845,-0.665,
3453,-0.89,-0.61,
3454,-0.94,-0.575,
3455,-0.995,-0.595,
3456,-1.02,-0.65,
3457,-1.035,-0.685,
3458,-1.035,-0.67,
3459,-1.045,-0.595,
3460,-1.065,-0.585,
3461,-1.085,-0.63,
3462,-1.085,-0.675,
3463,-1.07,-0.73,
3464,-1.065,-0.695,
3465,-1.05,-0.63,
3466,-1.055,-0.565,
3467,-1.06,-0.575,
3468,-1.03,-0.62,
3469,-1.025,-0.635,
3470,-1.025,-0.605,
3471,-1.035,-0.57,
3472,-1.06,-0.575,
3473,-1.07,-0.64,
3474,-1.055,-0.67,
3475,-1.055,-0.67,
3476,-1.055,-0.61,
3477,-1.055,-0.56,
3478,-1.05,-0.56,
3479,-1.04,-0.595,
3480,-1.02,-0.625,
3481,-1.02,-0.6,
3482,-1.01,-0.55,
3483,-1.02,-0.545,
3484,-1.03,-0.565,
3485,-1.025,-0.62,
3486,-1.025,-0.635,
3487,-1.025,-0.6,
3488,-1.03,-0.54,
3489,-1.025,-0.495,
3490,-1.01,-0.51,
3491,-1.0,-0.53,
3492,-0.975,-0.56,
3493,-0.97,-0.535,
3494,-0.985,-0.48,
3495,-1.005,-0.455,
3496,-1.025,-0.5,
3497,-1.005,-0.55,
3498,-1.01,-0.575,
3499,-0.995,-0.555,
3500,-0.995,-0.485,
3501,-1.0,-0.435,
3502,-0.985,-0.46,
3503,-0.965,-0.505,
3504,-0.955,-0.52,
3505,-0.95,-0.51,
3506,-0.95,-0.435,
3507,-0.96,-0.41,
3508,-0.97,-0.45,
3509,-0.98,-0.515,
3510,-0.97,-0.555,
3511,-0.97,-0.545,
3512,-0.975,-0.5,
3513,-0.97,-0.425,
3514,-0.96,-0.425,
3515,-0.95,-0.45,
3516,-0.935,-0.51,
3517,-0.905,-0.535,
3518,-0.905,-0.51,
3519,-0.91,-0.46,
3520,-0.935,-0.465,
3521,-0.935,-0.515,
3522,-0.96,-0.565,
3523,-0.94,-0.58,
3524,-0.93,-0.55,
3525,-0.925,-0.485,
3526,-0.92,-0.465,
3527,-0.93,-0.505,
3528,-0.89,-0.565,
3529,-0.88,-0.6,
3530,-0.88,-0.58,
3531,-0.895,-0.52,
3532,-0.91,-0.53,
3533,-0.915,-0.57,
3534,-0.94,-0.635,
3535,-0.935,-0.685,
3536,-0.92,-0.665,
3537,-0.905,-0.595,
3538,-0.92,-0.545,
3539,-0.93,-0.535,
3540,-0.925,-0.57,
3541,-0.915,-0.66,
3542,-0.92,-0.66,
3543,-0.92,-0.62,
3544,-0.935,-0.575,
3545,-0.95,-0.595,
3546,-0.985,-0.65,
3547,-0.965,-0.705,
3548,-0.94,-0.695,
3549,-0.94,-0.64,
3550,-0.93,-0.585,
3551,-0.94,-0.57,
3552,-0.925,-0.62,
3553,-0.925,-0.67,
3554,-0.92,-0.675,
3555,-0.925,-0.645,
3556,-0.94,-0.61,
3557,-0.955,-0.63,
3558,-0.965,-0.675,
3559,-0.945,-0.695,
3560,-0.95,-0.695,
3561,-0.955,-0.615,
3562,-0.965,-0.585,
3563,-0.975,-0.595,
3564,-0.975,-0.63,
3565,-0.955,-0.69,
3566,-0.945,-0.695,
3567,-0.945,-0.635,
3568,-0.985,-0.61,
3569,-1.005,-0.605,
3570,-1.02,-0.645,
3571,-1.01,-0.73,
3572,-1.015,-0.725,
3573,-1.0,-0.685,
3574,-1.01,-0.615,
3575,-1.025,-0.59,
3576,-1.025,-0.65,
3577,-1.02,-0.705,
3578,-1.02,-0.73,
3579,-1.025,-0.7,
3580,-1.045,-0.67,
3581,-1.06,-0.665,
3582,-1.075,-0.7,
3583,-1.055,-0.765,
3584,-1.035,-0.765,
3585,-1.035,-0.7,
3586,-1.04,-0.62,
3587,-1.045,-0.61,
3588,-1.04,-0.635,
3589,-1.025,-0.695,
3590,-1.02,-0.73,
3591,-1.02,-0.705,
3592,-1.03,-0.65,
3593,-1.045,-0.63,
3594,-1.06,-0.655,
3595,-1.045,-0.715,
3596,-1.035,-0.725,
3597,-1.005,-0.685,
3598,-1.0,-0.625,
3599,-1.01,-0.59,
3600,-0.995,-0.625,
3601,-0.985,-0.685,
3602,-0.985,-0.705,
3603,-0.99,-0.67,
3604,-1.0,-0.635,
3605,-1.02,-0.625,
3606,-1.035,-0.665,
3607,-1.03,-0.72,
3608,-1.01,-0.75,
3609,-0.965,-0.715,
3610,-0.96,-0.625,
3611,-0.97,-0.59,
3612,-0.95,-0.6,
3613,-0.93,-0.67,
3614,-0.91,-0.725,
3615,-0.9,-0.685,
3616,-0.915,-0.65,
3617,-0.915,-0.61,
3618,-0.915,-0.63,
3619,-0.89,-0.695,
3620,-0.855,-0.705,
3621,-0.82,-0.67,
3622,-0.8,-0.6,
3623,-0.78,-0.58,
3624,-0.78,-0.59,
3625,-0.775,-0.63,
3626,-0.735,-0.625,
3627,-0.73,-0.575,
3628,-0.75,-0.525,
3629,-0.765,-0.54,
3630,-0.785,-0.605,
3631,-0.79,-0.645,
3632,-0.79,-0.655,
3633,-0.79,-0.585,
3634,-0.81,-0.535,
3635,-0.815,-0.51,
3636,-0.82,-0.555,
3637,-0.81,-0.625,
3638,-0.795,-0.65,
3639,-0.8,-0.625,
3640,-0.825,-0.575,
3641,-0.865,-0.565,
3642,-0.89,-0.61,
3643,-0.905,-0.69,
3644,-0.92,-0.735,
3645,-0.925,-0.71,
3646,-0.945,-0.645,
3647,-0.955,-0.61,
3648,-0.955,-0.605,
3649,-0.975,-0.65,
3650,-0.96,-0.705,
3651,-0.975,-0.68,
3652,-1.0,-0.65,
3653,-1.01,-0.635,
3654,-1.025,-0.625,
3655,-1.035,-0.695,
3656,-1.03,-0.745,
3657,-1.01,-0.72,
3658,-0.99,-0.67,
3659,-0.99,-0.595,
3660,-1.005,-0.57,
3661,-1.005,-0.63,
3662,-0.99,-0.71,
3663,-0.99,-0.74,
3664,-1.005,-0.69,
3665,-1.04,-0.64,
3666,-1.075,-0.63,
3667,-1.125,-0.66,
3668,-1.155,-0.715,
3669,-1.17,-0.74,
3670,-1.185,-0.7,
3671,-1.185,-0.61,
3672,-1.15,-0.56,
3673,-1.085,-0.535,
3674,-0.945,-0.535,
3675,-0.775,-0.525,
3676,-0.59,-0.475,
3677,-0.395,-0.365,
3678,-0.23,-0.27,
3679,-0.075,-0.245,
3680,0.085,-0.245,
3681,0.22,-0.295,
3682,0.405,-0.295,
3683,0.535,-0.27,
3684,0.615,-0.26,
3685,0.665,-0.34,
3686,0.675,-0.48,N
3687,0.67,-0.645,
3688,0.61,-0.72,
3689,0.54,-0.705,
3690,0.465,-0.575,
3691,0.315,-0.465,
3692,0.105,-0.42,
3693,-0.175,-0.465,
3694,-0.445,-0.525,
3695,-0.68,-0.575,
3696,-0.85,-0.61,
3697,-0.94,-0.665,
3698,-0.94,-0.725,
3699,-0.89,-0.755,
3700,-0.86,-0.74,
3701,-0.83,-0.655,
3702,-0.85,-0.615,
3703,-0.9,-0.61,
3704,-0.95,-0.645,
3705,-0.995,-0.715,
3706,-1.005,-0.74,
3707,-1.015,-0.685,
3708,-1.035,-0.615,
3709,-1.065,-0.585,
3710,-1.065,-0.625,
3711,-1.07,-0.675,
3712,-1.075,-0.745,
3713,-1.065,-0.735,
3714,-1.075,-0.685,
3715,-1.08,-0.62,
3716,-1.085,-0.595,
3717,-1.1,-0.65,
3718,-1.05,-0.695,
3719,-1.045,-0.705,
3720,-1.02,-0.655,
3721,-1.025,-0.59,
3722,-1.035,-0.555,
3723,-1.055,-0.6,
3724,-1.075,-0.675,
3725,-1.08,-0.72,
3726,-1.055,-0.7,
3727,-1.06,-0.64,
3728,-1.07,-0.585,
3729,-1.075,-0.59,
3730,-1.06,-0.62,
3731,-1.04,-0.665,
3732,-1.02,-0.64,
3733,-1.035,-0.58,
3734,-1.03,-0.54,
3735,-1.05,-0.545,
3736,-1.06,-0.58,
3737,-1.065,-0.645,
3738,-1.04,-0.665,
3739,-1.03,-0.605,
3740,-1.04,-0.545,
3741,-1.045,-0.49,
3742,-1.03,-0.51,
3743,-1.045,-0.56,
3744,-1.01,-0.58,
3745,-0.99,-0.575,
3746,-0.985,-0.505,
3747,-1.005,-0.46,
3748,-1.025,-0.47,
3749,-1.035,-0.535,
3750,-1.035,-0.6,
3751,-1.03,-0.6,
3752,-1.015,-0.535,
3753,-1.01,-0.46,
3754,-1.015,-0.425,
3755,-1.01,-0.435,
3756,-0.975,-0.49,
3757,-0.975,-0.54,
3758,-0.955,-0.535,
3759,-0.97,-0.47,
3760,-0.98,-0.43,
3761,-0.985,-0.435,
3762,-0.98,-0.485,
3763,-0.96,-0.53,
3764,-0.965,-0.51,
3765,-0.955,-0.475,
3766,-0.98,-0.435,
3767,-0.965,-0.455,
3768,-0.945,-0.5,
3769,-0.93,-0.51,
3770,-0.92,-0.485,
3771,-0.94,-0.45,
3772,-0.955,-0.465,
3773,-0.955,-0.52,
3774,-0.95,-0.57,
3775,-0.94,-0.565,
3776,-0.93,-0.535,
3777,-0.925,-0.465,
3778,-0.925,-0.475,
3779,-0.92,-0.53,
3780,-0.895,-0.575,
3781,-0.885,-0.555,
3782,-0.91,-0.53,
3783,-0.91,-0.51,
3784,-0.92,-0.535,
3785,-0.95,-0.605,
3786,-0.925,-0.655,
3787,-0.93,-0.645,
3788,-0.91,-0.6,
3789,-0.93,-0.535,
3790,-0.945,-0.545,
3791,-0.93,-0.605,
3792,-0.91,-0.635,
3793,-0.9,-0.645,
3794,-0.905,-0.59,
3795,-0.935,-0.565,
3796,-0.935,-0.575,
3797,-0.955,-0.635,
3798,-0.975,-0.7,
3799,-0.955,-0.695,
3800,-0.955,-0.65,
3801,-0.96,-0.585,
3802,-0.965,-0.57,
3803,-0.965,-0.62,
3804,-0.94,-0.66,
3805,-0.915,-0.67,
3806,-0.925,-0.62,
3807,-0.94,-0.59,
3808,-0.96,-0.58,
3809,-0.975,-0.635,
3810,-0.98,-0.695,
3811,-0.96,-0.705,
3812,-0.955,-0.695,
3813,-0.97,-0.61,
3814,-0.975,-0.575,
3815,-0.98,-0.6,
3816,-0.96,-0.655,
3817,-0.945,-0.685,
3818,-0.95,-0.665,
3819,-0.95,-0.605,
3820,-0.98,-0.59,
3821,-0.99,-0.625,
3822,-1.0,-0.7,
3823,-1.01,-0.74,
3824,-1.015,-0.695,
3825,-1.015,-0.635,
3826,-1.025,-0.605,
3827,-1.03,-0.63,
3828,-1.025,-0.685,
3829,-1.015,-0.7,
3830,-1.015,-0.685,
3831,-1.01,-0.63,
3832,-1.04,-0.62,
3833,-1.06,-0.65,
3834,-1.06,-0.7,
3835,-1.055,-0.74,
3836,-1.035,-0.7,
3837,-1.055,-0.655,
3838,-1.055,-0.615,
3839,-1.06,-0.635,
3840,-1.045,-0.67,
3841,-1.025,-0.69,
3842,-1.025,-0.66,
3843,-1.035,-0.635,
3844,-1.055,-0.64,
3845,-1.055,-0.7,
3846,-1.045,-0.72,
3847,-1.045,-0.69,
3848,-1.045,-0.665,
3849,-1.035,-0.655,
3850,-1.04,-0.675,
3851,-1.005,-0.705,
3852,-1.0,-0.675,
3853,-1.0,-0.635,
3854,-0.995,-0.605,
3855,-1.02,-0.62,
3856,-1.01,-0.705,
3857,-1.0,-0.74,
3858,-0.985,-0.745,
3859,-0.985,-0.69,
3860,-0.99,-0.63,
3861,-0.995,-0.625,
3862,-1.0,-0.66,
3863,-0.97,-0.7,
3864,-0.94,-0.695,
3865,-0.925,-0.66,
3866,-0.945,-0.61,
3867,-0.945,-0.6,
3868,-0.94,-0.635,
3869,-0.935,-0.7,
3870,-0.895,-0.72,
3871,-0.87,-0.67,
3872,-0.865,-0.615,
3873,-0.845,-0.615,
3874,-0.83,-0.615,
3875,-0.79,-0.65,
3876,-0.77,-0.635,
3877,-0.75,-0.57,
3878,-0.75,-0.51,
3879,-0.77,-0.51,
3880,-0.78,-0.565,
3881,-0.785,-0.64,
3882,-0.78,-0.655,
3883,-0.785,-0.625,
3884,-0.8,-0.56,
3885,-0.815,-0.535,
3886,-0.825,-0.565,
3887,-0.815,-0.605,
3888,-0.8,-0.62,
3889,-0.79,-0.605,
3890,-0.81,-0.55,
3891,-0.825,-0.545,
3892,-0.88,-0.615,
3893,-0.89,-0.67,
3894,-0.895,-0.725,
3895,-0.91,-0.705,
3896,-0.95,-0.665,
3897,-0.965,-0.625,
3898,-0.975,-0.67,
3899,-0.965,-0.715,
3900,-0.965,-0.735,
3901,-0.955,-0.705,
3902,-0.965,-0.64,
3903,-0.985,-0.585,
3904,-1.005,-0.585,
3905,-1.01,-0.65,
3906,-1.02,-0.715,
3907,-1.015,-0.725,
3908,-1.02,-0.685,
3909,-1.015,-0.62,
3910,-1.03,-0.6,
3911,-1.01,-0.625,
3912,-0.995,-0.68,
3913,-0.99,-0.68,
3914,-0.99,-0.645,
3915,-1.015,-0.625,
3916,-1.05,-0.645,
3917,-1.095,-0.715,
3918,-1.125,-0.735,
3919,-1.16,-0.72,
3920,-1.21,-0.64,
3921,-1.21,-0.625,
3922,-1.15,-0.62,
3923,-1.045,-0.585,
3924,-0.865,-0.525,
3925,-0.665,-0.415,
3926,-0.465,-0.305,
3927,-0.28,-0.255,
3928,-0.08,-0.28,
3929,0.1,-0.3,
3930,0.27,-0.3,
3931,0.41,-0.255,
3932,0.52,-0.22,
3933,0.6,-0.275,
3934,0.655,-0.405,
3935,0.695,-0.565,N
3936,0.69,-0.64,
3937,0.64,-0.64,
3938,0.57,-0.565,
3939,0.455,-0.495,
3940,0.285,-0.48,
3941,0.04,-0.48,
3942,-0.245,-0.505,
3943,-0.53,-0.53,
3944,-0.77,-0.585,
3945,-0.925,-0.66,
3946,-0.965,-0.73,
3947,-0.955,-0.77,
3948,-0.89,-0.73,
3949,-0.845,-0.645,
3950,-0.845,-0.59,
3951,-0.86,-0.575,
3952,-0.94,-0.635,
3953,-0.975,-0.705,
3954,-1.015,-0.695,
3955,-1.045,-0.665,
3956,-1.1,-0.635,
3957,-1.105,-0.625,
3958,-1.105,-0.67,
3959,-1.085,-0.7,
3960,-1.055,-0.665,
3961,-1.065,-0.6,
3962,-1.07,-0.575,
3963,-1.095,-0.605,
3964,-1.09,-0.645,
3965,-1.08,-0.685,
3966,-1.075,-0.65,
3967,-1.08,-0.61,
3968,-1.09,-0.57,
3969,-1.1,-0.6,
3970,-1.08,-0.63,
3971,-1.055,-0.65,
3972,-1.06,-0.61,
3973,-1.055,-0.55,
3974,-1.075,-0.52,
3975,-1.085,-0.54,
3976,-1.085,-0.625,
3977,-1.075,-0.645,
3978,-1.065,-0.64,
3979,-1.08,-0.58,
3980,-1.09,-0.56,
3981,-1.095,-0.56,
3982,-1.075,-0.605,
3983,-1.06,-0.615,
3984,-1.035,-0.575,
3985,-1.03,-0.5,
3986,-1.045,-0.485,
3987,-1.045,-0.525,
3988,-1.045,-0.575,
3989,-1.035,-0.59,
3990,-1.03,-0.535,
3991,-1.02,-0.5,
3992,-1.07,-0.505,
3993,-1.05,-0.56,
3994,-1.035,-0.55,
3995,-1.015,-0.525,
3996,-1.01,-0.46,
3997,-1.02,-0.425,
3998,-1.03,-0.44,
3999,-1.015,-0.49,
4000,-1.02,-0.55,
4001,-1.0,-0.545,
4002,-0.995,-0.49,
4003,-1.005,-0.435,
4004,-1.03,-0.43,
4005,-1.02,-0.465,
4006,-1.005,-0.515,
4007,-0.96,-0.53,
4008,-0.97,-0.47,
4009,-0.955,-0.41,
4010,-0.97,-0.41,
4011,-0.98,-0.455,
4012,-0.985,-0.525,
4013,-0.985,-0.555,
4014,-0.97,-0.55,
4015,-0.965,-0.49,
4016,-0.995,-0.435,
4017,-0.99,-0.45,
4018,-0.975,-0.5,
4019,-0.95,-0.535,
4020,-0.945,-0.54,
4021,-0.94,-0.49,
4022,-0.95,-0.45,
4023,-0.955,-0.455,
4024,-0.965,-0.515,
4025,-0.95,-0.59,
4026,-0.945,-0.615,
4027,-0.94,-0.57,
4028,-0.935,-0.53,
4029,-0.965,-0.515,
4030,-0.965,-0.545,
4031,-0.94,-0.59,
4032,-0.915,-0.61,
4033,-0.91,-0.575,
4034,-0.92,-0.535,
4035,-0.965,-0.52,
4036,-0.96,-0.58,
4037,-0.97,-0.65,
4038,-0.955,-0.68,
4039,-0.945,-0.645,
4040,-0.96,-0.59,
4041,-0.965,-0.56,
4042,-0.985,-0.605,
4043,-0.975,-0.655,
4044,-0.95,-0.655,
4045,-0.93,-0.625,
4046,-0.94,-0.57,
4047,-0.955,-0.56,
4048,-0.965,-0.595,
4049,-0.97,-0.67,
4050,-0.955,-0.72,
4051,-0.945,-0.66,
4052,-0.96,-0.615,
4053,-0.97,-0.585,
4054,-0.98,-0.605,
4055,-0.975,-0.665,
4056,-0.95,-0.675,
4057,-0.94,-0.63,
4058,-0.955,-0.6,
4059,-0.98,-0.59,
4060,-0.99,-0.63,
4061,-0.995,-0.69,
4062,-1.0,-0.695,
4063,-0.99,-0.665,
4064,-0.995,-0.635,
4065,-1.015,-0.625,
4066,-1.02,-0.65,
4067,-1.005,-0.67,
4068,-0.995,-0.645,
4069,-0.99,-0.6,
4070,-1.025,-0.61,
4071,-1.035,-0.645,
4072,-1.015,-0.71,
4073,-1.03,-0.7,
4074,-1.045,-0.68,
4075,-1.055,-0.63,
4076,-1.075,-0.63,
4077,-1.085,-0.68,
4078,-1.08,-0.71,
4079,-1.06,-0.69,
4080,-1.04,-0.64,
4081,-1.04,-0.605,
4082,-1.06,-0.605,
4083,-1.055,-0.64,
4084,-1.075,-0.715,
4085,-1.06,-0.745,
4086,-1.06,-0.7,
4087,-1.055,-0.675,
4088,-1.065,-0.65,
4089,-1.08,-0.66,
4090,-1.06,-0.71,
4091,-1.045,-0.71,
4092,-1.005,-0.66,
4093,-1.0,-0.605,
4094,-1.025,-0.6,
4095,-1.02,-0.65,
4096,-1.03,-0.71,
4097,-1.04,-0.725,
4098,-1.04,-0.7,
4099,-1.03,-0.62,
4100,-1.045,-0.61,
4101,-1.035,-0.64,
4102,-1.015,-0.685,
4103,-0.99,-0.71,
4104,-0.975,-0.67,
4105,-0.975,-0.61,
4106,-0.98,-0.575,
4107,-0.995,-0.6,
4108,-1.0,-0.66,
4109,-1.0,-0.7,
4110,-0.98,-0.7,
4111,-0.98,-0.655,
4112,-0.985,-0.61,
4113,-0.99,-0.625,
4114,-0.96,-0.66,
4115,-0.945,-0.67,
4116,-0.925,-0.65,
4117,-0.89,-0.59,
4118,-0.885,-0.585,
4119,-0.88,-0.605,
4120,-0.845,-0.66,
4121,-0.83,-0.705,
4122,-0.805,-0.695,
4123,-0.815,-0.625,
4124,-0.81,-0.55,
4125,-0.805,-0.55,
4126,-0.79,-0.575,
4127,-0.765,-0.595,
4128,-0.755,-0.575,
4129,-0.75,-0.53,
4130,-0.765,-0.505,
4131,-0.8,-0.54,
4132,-0.815,-0.62,
4133,-0.83,-0.655,
4134,-0.84,-0.62,
4135,-0.845,-0.575,
4136,-0.87,-0.565,
4137,-0.87,-0.6,
4138,-0.85,-0.63,
4139,-0.845,-0.635,
4140,-0.85,-0.6,
4141,-0.875,-0.56,
4142,-0.915,-0.585,
4143,-0.94,-0.645,
4144,-0.955,-0.72,
4145,-0.965,-0.715,
4146,-0.98,-0.675,
4147,-0.99,-0.63,
4148,-1.015,-0.605,
4149,-1.015,-0.66,
4150,-1.015,-0.7,
4151,-1.01,-0.71,
4152,-1.005,-0.65,
4153,-1.015,-0.6,
4154,-1.035,-0.58,
4155,-1.045,-0.62,
4156,-1.05,-0.685,
4157,-1.045,-0.73,
4158,-1.035,-0.705,
4159,-1.045,-0.665,
4160,-1.065,-0.625,
4161,-1.075,-0.67,
4162,-1.065,-0.705,
4163,-1.06,-0.7,
4164,-1.08,-0.66,
4165,-1.115,-0.62,
4166,-1.17,-0.62,
4167,-1.23,-0.655,
4168,-1.24,-0.715,
4169,-1.22,-0.725,
4170,-1.16,-0.63,
4171,-1.035,-0.52,
4172,-0.905,-0.425,
4173,-0.715,-0.4,
4174,-0.505,-0.405,
4175,-0.315,-0.37,
4176,-0.135,-0.285,
4177,0.055,-0.2,
4178,0.19,-0.145,
4179,0.34,-0.185,
4180,0.475,-0.3,
4181,0.585,-0.405,
4182,0.64,-0.48,N
4183,0.66,-0.55,
4184,0.615,-0.615,
4185,0.555,-0.66,
4186,0.5,-0.67,
4187,0.395,-0.585,
4188,0.215,-0.45,
4189,-0.035,-0.365,
4190,-0.34,-0.38,
4191,-0.63,-0.5,
4192,-0.825,-0.67,
4193,-0.925,-0.755,
4194,-0.955,-0.76,
4195,-0.95,-0.715,
4196,-0.93,-0.66,
4197,-0.905,-0.66,
4198,-0.87,-0.685,
4199,-0.88,-0.665,
4200,-0.93,-0.63,
4201,-0.985,-0.59,
4202,-1.055,-0.61,
4203,-1.085,-0.66,
4204,-1.1,-0.715,
4205,-1.1,-0.735,
4206,-1.11,-0.69,
4207,-1.115,-0.655,
4208,-1.135,-0.65,
4209,-1.12,-0.675,
4210,-1.09,-0.67,
4211,-1.085,-0.625,
4212,-1.08,-0.57,
4213,-1.065,-0.54,
4214,-1.08,-0.565,
4215,-1.08,-0.66,
4216,-1.075,-0.665,
4217,-1.07,-0.655,
4218,-1.1,-0.59,
4219,-1.105,-0.59,
4220,-1.115,-0.615,
4221,-1.105,-0.66,
4222,-1.085,-0.67,
4223,-1.055,-0.61,
4224,-1.065,-0.545,
4225,-1.065,-0.5,
4226,-1.075,-0.535,
4227,-1.085,-0.595,
4228,-1.07,-0.635,
4229,-1.055,-0.61,
4230,-1.055,-0.565,
4231,-1.07,-0.52,
4232,-1.085,-0.535,
4233,-1.07,-0.585,
4234,-1.065,-0.605,
4235,-1.055,-0.575,
4236,-1.05,-0.52,
4237,-1.05,-0.465,
4238,-1.06,-0.46,
4239,-1.07,-0.525,
4240,-1.05,-0.585,
4241,-1.045,-0.565,
4242,-1.06,-0.515,
4243,-1.06,-0.455,
4244,-1.07,-0.455,
4245,-1.075,-0.49,
4246,-1.035,-0.52,
4247,-1.015,-0.525,
4248,-0.985,-0.44,
4249,-0.995,-0.405,
4250,-1.02,-0.4,
4251,-1.02,-0.44,
4252,-1.025,-0.505,
4253,-1.015,-0.52,
4254,-0.99,-0.48,
4255,-0.99,-0.43,
4256,-1.0,-0.41,
4257,-1.005,-0.435,
4258,-0.99,-0.48,
4259,-0.97,-0.51,
4260,-0.955,-0.465,
4261,-0.95,-0.425,
4262,-0.96,-0.395,
4263,-0.96,-0.455,
4264,-0.975,-0.54,
4265,-0.975,-0.565,
4266,-0.965,-0.55,
4267,-0.97,-0.48,
4268,-0.98,-0.46,
4269,-0.98,-0.465,
4270,-0.955,-0.53,
4271,-0.94,-0.56,
4272,-0.91,-0.525,
4273,-0.9,-0.48,
4274,-0.91,-0.43,
4275,-0.93,-0.47,
4276,-0.935,-0.55,
4277,-0.93,-0.595,
4278,-0.935,-0.61,
4279,-0.935,-0.56,
4280,-0.955,-0.52,
4281,-0.96,-0.535,
4282,-0.94,-0.59,
4283,-0.925,-0.615,
4284,-0.92,-0.575,
4285,-0.905,-0.525,
4286,-0.93,-0.515,
4287,-0.935,-0.545,
4288,-0.945,-0.62,
4289,-0.935,-0.645,
4290,-0.935,-0.635,
4291,-0.935,-0.595,
4292,-0.955,-0.565,
4293,-0.96,-0.6,
4294,-0.95,-0.66,
4295,-0.94,-0.685,
4296,-0.925,-0.64,
4297,-0.93,-0.58,
4298,-0.93,-0.55,
4299,-0.965,-0.55,
4300,-0.95,-0.62,
4301,-0.96,-0.695,
4302,-0.94,-0.71,
4303,-0.945,-0.645,
4304,-0.97,-0.595,
4305,-0.955,-0.585,
4306,-0.97,-0.645,
4307,-0.955,-0.67,
4308,-0.945,-0.65,
4309,-0.95,-0.6,
4310,-0.955,-0.575,
4311,-0.97,-0.59,
4312,-0.975,-0.645,
4313,-0.98,-0.685,
4314,-0.97,-0.66,
4315,-0.995,-0.625,
4316,-1.02,-0.59,
4317,-1.025,-0.58,
4318,-1.01,-0.63,
4319,-0.99,-0.66,
4320,-0.985,-0.63,
4321,-0.965,-0.575,
4322,-0.995,-0.55,
4323,-1.025,-0.56,
4324,-1.03,-0.635,
4325,-1.035,-0.685,
4326,-1.035,-0.67,
4327,-1.035,-0.625,
4328,-1.07,-0.6,
4329,-1.075,-0.605,
4330,-1.07,-0.645,
4331,-1.045,-0.66,
4332,-1.03,-0.615,
4333,-1.03,-0.585,
4334,-1.035,-0.575,
4335,-1.035,-0.615,
4336,-1.025,-0.67,
4337,-1.04,-0.68,
4338,-1.03,-0.645,
4339,-1.035,-0.6,
4340,-1.045,-0.58,
4341,-1.035,-0.62,
4342,-1.025,-0.665,
4343,-1.005,-0.665,
4344,-0.985,-0.605,
4345,-0.99,-0.56,
4346,-0.995,-0.555,
4347,-1.005,-0.605,
4348,-1.0,-0.655,
4349,-0.98,-0.645,
4350,-0.985,-0.605,
4351,-1.01,-0.59,
4352,-1.005,-0.6,
4353,-0.975,-0.635,
4354,-0.945,-0.625,
4355,-0.925,-0.605,
4356,-0.925,-0.55,
4357,-0.92,-0.565,
4358,-0.91,-0.595,
4359,-0.915,-0.62,
4360,-0.905,-0.63,
4361,-0.895,-0.57,
4362,-0.885,-0.575,
4363,-0.88,-0.61,
4364,-0.86,-0.64,
4365,-0.84,-0.645,
4366,-0.8,-0.575,
4367,-0.775,-0.53,
4368,-0.76,-0.495,
4369,-0.765,-0.51,
4370,-0.735,-0.56,
4371,-0.74,-0.555,
4372,-0.725,-0.535,
4373,-0.725,-0.495,
4374,-0.775,-0.495,
4375,-0.78,-0.545,
4376,-0.785,-0.595,
4377,-0.775,-0.58,
4378,-0.78,-0.54,
4379,-0.785,-0.495,
4380,-0.795,-0.465,
4381,-0.78,-0.505,
4382,-0.785,-0.55,
4383,-0.78,-0.56,
4384,-0.795,-0.545,
4385,-0.83,-0.52,
4386,-0.875,-0.525,
4387,-0.905,-0.59,
4388,-0.945,-0.66,
4389,-0.925,-0.69,
4390,-0.935,-0.635,
4391,-0.94,-0.56,
4392,-0.96,-0.53,
4393,-0.965,-0.545,
4394,-0.95,-0.6,
4395,-0.94,-0.615,
4396,-0.945,-0.6,
4397,-0.96,-0.57,
4398,-0.995,-0.545,
4399,-1.005,-0.58,
4400,-1.015,-0.63,
4401,-0.995,-0.64,
4402,-1.0,-0.59,
4403,-0.98,-0.57,
4404,-0.985,-0.54,
4405,-0.99,-0.565,
4406,-0.98,-0.61,
4407,-0.985,-0.625,
4408,-1.01,-0.585,
4409,-1.05,-0.555,
4410,-1.105,-0.565,
4411,-1.165,-0.635,
4412,-1.21,-0.69,
4413,-1.2,-0.675,
4414,-1.16,-0.59,
4415,-1.085,-0.485,
4416,-0.995,-0.395,
4417,-0.835,-0.365,
4418,-0.625,-0.34,
4419,-0.415,-0.305,
4420,-0.215,-0.22,
4421,-0.045,-0.135,
4422,0.135,-0.115,
4423,0.31,-0.16,
4424,0.47,-0.23,
4425,0.605,-0.255,
4426,0.71,-0.305,
4427,0.755,-0.39,N
4428,0.76,-0.51,
4429,0.735,-0.59,
4430,0.685,-0.6,
4431,0.575,-0.49,
4432,0.39,-0.37,
4433,0.115,-0.305,
4434,-0.205,-0.365,
4435,-0.495,-0.48,
4436,-0.715,-0.575,
4437,-0.86,-0.585,
4438,-0.915,-0.58,
4439,-0.89,-0.58,
4440,-0.835,-0.585,
4441,-0.775,-0.605,
4442,-0.775,-0.585,
4443,-0.785,-0.54,
4444,-0.84,-0.505,
4445,-0.93,-0.515,
4446,-0.985,-0.575,
4447,-1.03,-0.625,
4448,-1.04,-0.62,
4449,-1.045,-0.57,
4450,-1.05,-0.5,
4451,-1.05,-0.49,
4452,-1.055,-0.515,
4453,-1.04,-0.565,
4454,-1.025,-0.575,
4455,-1.025,-0.53,
4456,-1.035,-0.5,
4457,-1.04,-0.49,
4458,-1.03,-0.53,
4459,-1.035,-0.575,
4460,-1.025,-0.585,
4461,-1.01,-0.545,
4462,-1.03,-0.47,
4463,-1.02,-0.445,
4464,-1.025,-0.465,
4465,-1.03,-0.51,
4466,-1.0,-0.55,
4467,-1.0,-0.51,
4468,-1.005,-0.46,
4469,-1.02,-0.45,
4470,-1.055,-0.495,
4471,-1.04,-0.55,
4472,-1.03,-0.565,
4473,-1.005,-0.53,
4474,-1.005,-0.46,
4475,-1.0,-0.41,
4476,-1.02,-0.41,
4477,-1.0,-0.465,
4478,-0.985,-0.505,
4479,-0.965,-0.475,
4480,-0.99,-0.435,
4481,-1.015,-0.4,
4482,-1.02,-0.435,
4483,-1.01,-0.475,
4484,-0.995,-0.5,
4485,-0.98,-0.5,
4486,-0.98,-0.41,
4487,-0.99,-0.36,
4488,-0.995,-0.34,
4489,-0.99,-0.39,
4490,-0.965,-0.435,
4491,-0.945,-0.45,
4492,-0.945,-0.415,
4493,-0.96,-0.365,
4494,-0.985,-0.37,
4495,-0.975,-0.4,
4496,-0.975,-0.45,
4497,-0.945,-0.445,
4498,-0.955,-0.41,
4499,-0.945,-0.34,
4500,-0.945,-0.325,
4501,-0.925,-0.365,
4502,-0.92,-0.39,
4503,-0.9,-0.4,
4504,-0.91,-0.37,
4505,-0.935,-0.345,
4506,-0.94,-0.38,
4507,-0.955,-0.425,
4508,-0.93,-0.455,
4509,-0.915,-0.46,
4510,-0.905,-0.39,
4511,-0.905,-0.36,
4512,-0.925,-0.345,
4513,-0.91,-0.41,
4514,-0.895,-0.465,
4515,-0.865,-0.48,
4516,-0.855,-0.44,
4517,-0.88,-0.41,
4518,-0.9,-0.385,
4519,-0.92,-0.465,
4520,-0.925,-0.52,
4521,-0.895,-0.55,
4522,-0.885,-0.495,
4523,-0.865,-0.435,
4524,-0.87,-0.4,
4525,-0.875,-0.435,
4526,-0.86,-0.5,
4527,-0.87,-0.525,
4528,-0.855,-0.53,
4529,-0.87,-0.49,
4530,-0.885,-0.47,
4531,-0.89,-0.505,
4532,-0.91,-0.575,
4533,-0.905,-0.58,
4534,-0.895,-0.54,
4535,-0.89,-0.48,
4536,-0.89,-0.455,
4537,-0.895,-0.465,
4538,-0.885,-0.545,
4539,-0.885,-0.585,
4540,-0.87,-0.575,
4541,-0.875,-0.53,
4542,-0.89,-0.495,
4543,-0.92,-0.51,
4544,-0.915,-0.57,
4545,-0.895,-0.575,
4546,-0.895,-0.57,
4547,-0.88,-0.5,
4548,-0.88,-0.49,
4549,-0.89,-0.49,
4550,-0.88,-0.555,
4551,-0.88,-0.585,
4552,-0.9,-0.56,
4553,-0.91,-0.53,
4554,-0.935,-0.52,
4555,-0.95,-0.55,
4556,-0.945,-0.615,
4557,-0.94,-0.62,
4558,-0.94,-0.585,
4559,-0.935,-0.535,
4560,-0.94,-0.475,
4561,-0.955,-0.475,
4562,-0.96,-0.54,
4563,-0.965,-0.615,
4564,-0.945,-0.63,
4565,-0.94,-0.595,
4566,-0.965,-0.535,
4567,-1.005,-0.535,
4568,-1.01,-0.575,
4569,-1.0,-0.625,
4570,-0.995,-0.64,
4571,-0.995,-0.6,
4572,-0.975,-0.53,
4573,-0.995,-0.52,
4574,-1.01,-0.535,
4575,-1.02,-0.59,
4576,-1.015,-0.63,
4577,-1.01,-0.6,
4578,-1.035,-0.575,
4579,-1.025,-0.55,
4580,-1.025,-0.585,
4581,-1.025,-0.655,
4582,-1.005,-0.65,
4583,-0.99,-0.62,
4584,-0.98,-0.53,
4585,-0.985,-0.51,
4586,-0.985,-0.565,
4587,-0.985,-0.63,
4588,-0.985,-0.68,
4589,-0.97,-0.665,
4590,-0.97,-0.605,
4591,-0.98,-0.54,
4592,-1.005,-0.555,
4593,-1.0,-0.61,
4594,-0.995,-0.65,
4595,-0.96,-0.655,
4596,-0.96,-0.615,
4597,-0.94,-0.535,
4598,-0.945,-0.515,
4599,-0.965,-0.565,
4600,-0.955,-0.61,
4601,-0.95,-0.64,
4602,-0.95,-0.605,
4603,-0.945,-0.565,
4604,-0.945,-0.54,
4605,-0.95,-0.555,
4606,-0.95,-0.625,
4607,-0.91,-0.65,
4608,-0.88,-0.615,
4609,-0.895,-0.545,
4610,-0.89,-0.49,
4611,-0.89,-0.505,
4612,-0.88,-0.585,
4613,-0.86,-0.645,
4614,-0.835,-0.655,
4615,-0.81,-0.605,
4616,-0.8,-0.545,
4617,-0.805,-0.495,
4618,-0.795,-0.51,
4619,-0.765,-0.565,
4620,-0.745,-0.575,
4621,-0.715,-0.54,
4622,-0.705,-0.48,
4623,-0.71,-0.45,
4624,-0.735,-0.47,
4625,-0.735,-0.53,
4626,-0.745,-0.595,
4627,-0.75,-0.575,
4628,-0.755,-0.52,
4629,-0.77,-0.48,
4630,-0.79,-0.47,
4631,-0.78,-0.51,
4632,-0.78,-0.57,
4633,-0.785,-0.58,
4634,-0.785,-0.545,
4635,-0.79,-0.46,
4636,-0.8,-0.455,
4637,-0.84,-0.49,
4638,-0.85,-0.6,
4639,-0.875,-0.665,
4640,-0.895,-0.68,
4641,-0.9,-0.625,
4642,-0.93,-0.585,
4643,-0.935,-0.575,
4644,-0.95,-0.605,
4645,-0.935,-0.62,
4646,-0.93,-0.63,
4647,-0.94,-0.565,
4648,-0.95,-0.545,
4649,-0.975,-0.57,
4650,-0.985,-0.625,
4651,-0.975,-0.675,
4652,-0.985,-0.65,
4653,-0.99,-0.6,
4654,-1.0,-0.57,
4655,-0.995,-0.585,
4656,-1.005,-0.625,
4657,-0.975,-0.65,
4658,-0.97,-0.63,
4659,-0.975,-0.57,
4660,-1.005,-0.55,
4661,-1.025,-0.58,
4662,-1.065,-0.645,
4663,-1.105,-0.71,
4664,-1.115,-0.735,
4665,-1.145,-0.685,
4666,-1.185,-0.605,
4667,-1.21,-0.56,
4668,-1.17,-0.565,
4669,-1.075,-0.575,
4670,-0.95,-0.545,
4671,-0.79,-0.47,
4672,-0.59,-0.375,
4673,-0.4,-0.285,
4674,-0.24,-0.265,
4675,-0.06,-0.26,
4676,0.125,-0.27,
4677,0.3,-0.225,
4678,0.465,-0.175,
4679,0.585,-0.195,
4680,0.67,-0.31,
4681,0.715,-0.475,
4682,0.73,-0.605,N
4683,0.71,-0.655,
4684,0.64,-0.61,
4685,0.53,-0.53,
4686,0.43,-0.48,
4687,0.265,-0.455,
4688,0.045,-0.475,
4689,-0.23,-0.47,
4690,-0.49,-0.475,
4691,-0.715,-0.5,
4692,-0.855,-0.56,
4693,-0.915,-0.66,
4694,-0.9,-0.72,
4695,-0.855,-0.72,
4696,-0.82,-0.66,
4697,-0.805,-0.575,
4698,-0.845,-0.565,
4699,-0.9,-0.6,
4700,-0.95,-0.67,
4701,-0.985,-0.69,
4702,-0.985,-0.675,
4703,-1.005,-0.585,
4704,-1.035,-0.54,
4705,-1.05,-0.555,
4706,-1.035,-0.625,
4707,-1.025,-0.68,
4708,-1.02,-0.675,
4709,-1.03,-0.635,
4710,-1.055,-0.585,
4711,-1.07,-0.555,
4712,-1.065,-0.605,
4713,-1.055,-0.65,
4714,-1.035,-0.675,
4715,-1.015,-0.615,
4716,-1.015,-0.56,
4717,-1.015,-0.51,
4718,-1.04,-0.55,
4719,-1.025,-0.6,
4720,-1.03,-0.64,
4721,-1.015,-0.62,
4722,-1.015,-0.575,
4723,-1.045,-0.55,
4724,-1.045,-0.595,
4725,-1.05,-0.635,
4726,-1.045,-0.63,
4727,-1.035,-0.57,
4728,-1.02,-0.515,
4729,-1.025,-0.485,
4730,-1.025,-0.54,
4731,-0.995,-0.595,
4732,-1.005,-0.605,
4733,-1.01,-0.55,
4734,-1.03,-0.505,
4735,-1.04,-0.505,
4736,-1.055,-0.54,
4737,-1.05,-0.585,
4738,-1.02,-0.6,
4739,-1.005,-0.555,
4740,-1.005,-0.475,
4741,-1.02,-0.42,
4742,-1.005,-0.465,
4743,-1.01,-0.515,
4744,-0.99,-0.575,
4745,-0.99,-0.55,
4746,-0.985,-0.51,
4747,-0.995,-0.45,
4748,-1.015,-0.475,
4749,-1.0,-0.515,
4750,-0.99,-0.535,
4751,-0.98,-0.5,
4752,-0.965,-0.44,
4753,-0.985,-0.405,
4754,-0.98,-0.43,
4755,-0.98,-0.475,
4756,-0.94,-0.535,
4757,-0.935,-0.52,
4758,-0.965,-0.47,
4759,-0.965,-0.43,
4760,-0.975,-0.43,
4761,-0.96,-0.505,
4762,-0.94,-0.55,
4763,-0.93,-0.555,
4764,-0.905,-0.515,
4765,-0.915,-0.425,
4766,-0.915,-0.4,
4767,-0.945,-0.44,
4768,-0.93,-0.53,
4769,-0.92,-0.575,
4770,-0.905,-0.565,
4771,-0.92,-0.515,
4772,-0.92,-0.485,
4773,-0.925,-0.485,
4774,-0.92,-0.55,
4775,-0.9,-0.595,
4776,-0.885,-0.59,
4777,-0.87,-0.52,
4778,-0.875,-0.475,
4779,-0.91,-0.5,
4780,-0.92,-0.565,
4781,-0.905,-0.64,
4782,-0.89,-0.655,
4783,-0.895,-0.62,
4784,-0.91,-0.565,
4785,-0.925,-0.565,
4786,-0.93,-0.595,
4787,-0.91,-0.64,
4788,-0.9,-0.635,
4789,-0.885,-0.595,
4790,-0.895,-0.55,
4791,-0.915,-0.545,
4792,-0.93,-0.6,
4793,-0.925,-0.68,
4794,-0.925,-0.68,
4795,-0.93,-0.635,
4796,-0.95,-0.6,
4797,-0.945,-0.62,
4798,-0.95,-0.65,
4799,-0.925,-0.66,
4800,-0.92,-0.625,
4801,-0.93,-0.565,
4802,-0.92,-0.575,
4803,-0.925,-0.615,
4804,-0.93,-0.675,
4805,-0.935,-0.69,
4806,-0.96,-0.63,
4807,-0.97,-0.605,
4808,-0.99,-0.615,
4809,-0.985,-0.675,
4810,-0.97,-0.7,
4811,-0.955,-0.69,
4812,-0.95,-0.62,
4813,-0.955,-0.555,
4814,-0.97,-0.565,
4815,-1.005,-0.63,
4816,-0.985,-0.695,
4817,-0.985,-0.735,
4818,-0.975,-0.68,
4819,-1.0,-0.635,
4820,-1.025,-0.62,
4821,-1.035,-0.675,
4822,-1.025,-0.71,
4823,-1.02,-0.71,
4824,-1.025,-0.665,
4825,-1.035,-0.615,
4826,-1.035,-0.595,
4827,-1.035,-0.66,
4828,-1.045,-0.7,
4829,-1.035,-0.725,
4830,-1.035,-0.69,
4831,-1.055,-0.65,
4832,-1.07,-0.65,
4833,-1.075,-0.69,
4834,-1.055,-0.75,
4835,-1.055,-0.74,
4836,-1.03,-0.7,
4837,-1.03,-0.62,
4838,-1.03,-0.61,
4839,-1.055,-0.645,
4840,-1.035,-0.715,
4841,-1.035,-0.755,
4842,-1.04,-0.76,
4843,-1.04,-0.69,
4844,-1.055,-0.675,
4845,-1.065,-0.68,
4846,-1.055,-0.72,
4847,-1.025,-0.75,
4848,-0.99,-0.705,
4849,-1.005,-0.65,
4850,-1.0,-0.625,
4851,-1.01,-0.645,
4852,-1.015,-0.69,
4853,-1.01,-0.755,
4854,-1.025,-0.76,
4855,-1.015,-0.71,
4856,-1.02,-0.65,
4857,-1.03,-0.625,
4858,-1.02,-0.635,
4859,-0.995,-0.695,
4860,-0.96,-0.74,
4861,-0.94,-0.695,
4862,-0.935,-0.64,
4863,-0.955,-0.61,
4864,-0.97,-0.615,
4865,-0.965,-0.7,
4866,-0.94,-0.735,
4867,-0.93,-0.72,
4868,-0.905,-0.675,
4869,-0.9,-0.655,
4870,-0.885,-0.68,
4871,-0.835,-0.685,
4872,-0.81,-0.68,
4873,-0.78,-0.61,
4874,-0.78,-0.58,
4875,-0.78,-0.565,
4876,-0.78,-0.63,
4877,-0.77,-0.65,
4878,-0.775,-0.625,
4879,-0.775,-0.57,
4880,-0.8,-0.575,
4881,-0.815,-0.61,
4882,-0.815,-0.65,
4883,-0.795,-0.675,
4884,-0.785,-0.625,
4885,-0.805,-0.55,
4886,-0.81,-0.515,
4887,-0.845,-0.555,
4888,-0.85,-0.615,
4889,-0.835,-0.675,
4890,-0.86,-0.68,
4891,-0.895,-0.65,
4892,-0.925,-0.64,
4893,-0.95,-0.66,
4894,-0.97,-0.73,
4895,-0.945,-0.73,
4896,-0.96,-0.7,
4897,-0.98,-0.63,
4898,-0.975,-0.61,
4899,-1.005,-0.67,
4900,-0.99,-0.71,
4901,-1.005,-0.74,
4902,-1.015,-0.68,
4903,-1.02,-0.64,
4904,-1.04,-0.635,
4905,-1.04,-0.675,
4906,-1.025,-0.735,
4907,-1.01,-0.735,
4908,-0.995,-0.7,
4909,-1.015,-0.635,
4910,-1.005,-0.595,
4911,-1.02,-0.64,
4912,-1.025,-0.705,
4913,-1.03,-0.735,
4914,-1.055,-0.705,
4915,-1.095,-0.68,
4916,-1.18,-0.655,
4917,-1.225,-0.705,
4918,-1.23,-0.73,
4919,-1.215,-0.705,
4920,-1.145,-0.61,
4921,-1.04,-0.505,
4922,-0.9,-0.445,
4923,-0.71,-0.44,
4924,-0.51,-0.45,
4925,-0.325,-0.435,
4926,-0.145,-0.36,
4927,0.015,-0.25,
4928,0.175,-0.215,
4929,0.315,-0.245,
4930,0.475,-0.32,
4931,0.605,-0.385,
4932,0.675,-0.45,
4933,0.705,-0.5,N
4934,0.69,-0.585,
4935,0.635,-0.66,
4936,0.575,-0.685,
4937,0.455,-0.595,
4938,0.255,-0.5,
4939,-0.025,-0.46,
4940,-0.375,-0.51,
4941,-0.66,-0.62,
4942,-0.865,-0.685,
4943,-0.97,-0.7,
4944,-0.995,-0.675,
4945,-0.96,-0.685,
4946,-0.925,-0.71,
4947,-0.885,-0.73,
4948,-0.9,-0.69,
4949,-0.955,-0.65,
4950,-0.995,-0.65,
4951,-1.055,-0.7,
4952,-1.085,-0.765,
4953,-1.095,-0.765,
4954,-1.1,-0.695,
4955,-1.115,-0.625,
4956,-1.105,-0.6,
4957,-1.1,-0.62,
4958,-1.095,-0.68,
4959,-1.085,-0.69,
4960,-1.065,-0.665,
4961,-1.075,-0.625,
4962,-1.1,-0.605,
4963,-1.1,-0.65,
4964,-1.105,-0.69,
4965,-1.09,-0.73,
4966,-1.08,-0.68,
4967,-1.07,-0.61,
4968,-1.09,-0.58,
4969,-1.085,-0.6,
4970,-1.07,-0.655,
4971,-1.065,-0.675,
4972,-1.07,-0.635,
4973,-1.085,-0.58,
4974,-1.095,-0.585,
4975,-1.1,-0.615,
4976,-1.095,-0.67,
4977,-1.075,-0.685,
4978,-1.05,-0.66,
4979,-1.075,-0.585,
4980,-1.085,-0.535,
4981,-1.07,-0.53,
4982,-1.065,-0.585,
4983,-1.045,-0.63,
4984,-1.045,-0.64,
4985,-1.035,-0.6,
4986,-1.05,-0.545,
4987,-1.07,-0.545,
4988,-1.075,-0.605,
4989,-1.085,-0.64,
4990,-1.065,-0.64,
4991,-1.04,-0.575,
4992,-1.04,-0.485,
4993,-1.055,-0.455,
4994,-1.045,-0.5,
4995,-1.045,-0.57,
4996,-1.03,-0.62,
4997,-1.025,-0.58,
4998,-1.02,-0.525,
4999,-1.05,-0.485,
5000,-1.055,-0.49,
5001,-1.05,-0.545,
5002,-1.03,-0.6,
5003,-1.0,-0.575,
5004,-0.98,-0.53,
5005,-0.98,-0.45,
5006,-0.99,-0.42,
5007,-0.99,-0.475,
5008,-0.985,-0.545,
5009,-0.975,-0.585,
5010,-0.965,-0.565,
5011,-0.975,-0.5,
5012,-0.995,-0.49,
5013,-1.015,-0.51,
5014,-0.985,-0.57,
5015,-0.965,-0.585,
5016,-0.945,-0.53,
5017,-0.945,-0.5,
5018,-0.945,-0.51,
5019,-0.94,-0.555,
5020,-0.935,-0.59,
5021,-0.93,-0.59,
5022,-0.95,-0.565,
5023,-0.96,-0.55,
5024,-0.955,-0.59,
5025,-0.97,-0.635,
5026,-0.94,-0.67,
5027,-0.93,-0.63,
5028,-0.93,-0.56,
5029,-0.94,-0.535,
5030,-0.93,-0.565,
5031,-0.945,-0.65,
5032,-0.945,-0.685,
5033,-0.94,-0.675,
5034,-0.935,-0.635,
5035,-0.965,-0.615,
5036,-0.985,-0.635,
5037,-0.985,-0.685,
5038,-0.97,-0.725,
5039,-0.95,-0.71,
5040,-0.935,-0.655,
5041,-0.94,-0.6,
5042,-0.96,-0.605,
5043,-0.96,-0.675,
5044,-0.95,-0.715,
5045,-0.955,-0.7,
5046,-0.98,-0.665,
5047,-1.0,-0.64,
5048,-1.005,-0.66,
5049,-0.99,-0.725,
5050,-0.98,-0.75,
5051,-0.965,-0.725,
5052,-0.96,-0.67,
5053,-0.96,-0.615,
5054,-0.975,-0.64,
5055,-0.96,-0.705,
5056,-0.96,-0.76,
5057,-0.955,-0.735,
5058,-0.965,-0.7,
5059,-0.985,-0.66,
5060,-1.0,-0.665,
5061,-1.01,-0.71,
5062,-1.02,-0.75,
5063,-1.005,-0.755,
5064,-0.99,-0.705,
5065,-1.0,-0.62,
5066,-1.015,-0.64,
5067,-1.015,-0.69,
5068,-1.01,-0.75,
5069,-1.005,-0.76,
5070,-1.025,-0.715,
5071,-1.055,-0.675,
5072,-1.075,-0.68,
5073,-1.085,-0.73,
5074,-1.07,-0.77,
5075,-1.04,-0.77,
5076,-1.04,-0.72,
5077,-1.035,-0.65,
5078,-1.05,-0.635,
5079,-1.06,-0.685,
5080,-1.07,-0.74,
5081,-1.065,-0.785,
5082,-1.055,-0.745,
5083,-1.06,-0.695,
5084,-1.085,-0.695,
5085,-1.085,-0.715,
5086,-1.085,-0.74,
5087,-1.055,-0.75,
5088,-1.045,-0.69,
5089,-1.04,-0.66,
5090,-1.05,-0.655,
5091,-1.05,-0.705,
5092,-1.06,-0.73,
5093,-1.055,-0.735,
5094,-1.06,-0.695,
5095,-1.055,-0.69,
5096,-1.07,-0.72,
5097,-1.06,-0.76,
5098,-1.055,-0.78,
5099,-1.015,-0.735,
5100,-1.015,-0.69,
5101,-1.025,-0.635,
5102,-1.01,-0.66,
5103,-1.025,-0.735,
5104,-1.015,-0.775,
5105,-0.99,-0.765,
5106,-1.01,-0.71,
5107,-1.015,-0.685,
5108,-1.02,-0.7,
5109,-1.01,-0.755,
5110,-0.985,-0.785,
5111,-0.96,-0.755,
5112,-0.96,-0.7,
5113,-0.955,-0.65,
5114,-0.94,-0.67,
5115,-0.92,-0.7,
5116,-0.915,-0.735,
5117,-0.905,-0.725,
5118,-0.89,-0.7,
5119,-0.875,-0.67,
5120,-0.855,-0.705,
5121,-0.82,-0.74,
5122,-0.8,-0.73,
5123,-0.77,-0.665,
5124,-0.785,-0.6,
5125,-0.79,-0.54,
5126,-0.78,-0.59,
5127,-0.785,-0.66,
5128,-0.765,-0.695,
5129,-0.765,-0.69,
5130,-0.775,-0.635,
5131,-0.805,-0.61,
5132,-0.83,-0.615,
5133,-0.85,-0.665,
5134,-0.845,-0.7,
5135,-0.83,-0.685,
5136,-0.83,-0.63,
5137,-0.845,-0.575,
5138,-0.84,-0.58,
5139,-0.85,-0.645,
5140,-0.875,-0.73,
5141,-0.895,-0.745,
5142,-0.915,-0.73,
5143,-0.95,-0.685,
5144,-0.99,-0.665,
5145,-1.01,-0.71,
5146,-1.015,-0.775,
5147,-0.99,-0.78,
5148,-0.96,-0.745,
5149,-0.97,-0.665,
5150,-0.985,-0.63,
5151,-1.01,-0.635,
5152,-1.015,-0.7,
5153,-1.02,-0.75,
5154,-1.015,-0.755,
5155,-1.03,-0.725,
5156,-1.05,-0.685,
5157,-1.055,-0.69,
5158,-1.04,-0.72,
5159,-1.02,-0.74,
5160,-1.01,-0.715,
5161,-1.01,-0.66,
5162,-1.03,-0.65,
5163,-1.03,-0.685,
5164,-1.065,-0.74,
5165,-1.1,-0.75,
5166,-1.16,-0.73,
5167,-1.22,-0.7,
5168,-1.25,-0.69,
5169,-1.23,-0.715,
5170,-1.14,-0.705,
5171,-0.98,-0.615,
5172,-0.815,-0.49,
5173,-0.62,-0.395,
5174,-0.41,-0.36,
5175,-0.23,-0.365,
5176,-0.045,-0.38,
5177,0.125,-0.36,
5178,0.275,-0.295,
5179,0.41,-0.28,
5180,0.51,-0.325,
5181,0.575,-0.44,
5182,0.645,-0.57,
5183,0.685,-0.675,N
5184,0.685,-0.68,
5185,0.655,-0.665,
5186,0.57,-0.615,
5187,0.475,-0.58,
5188,0.33,-0.57,
5189,0.1,-0.55,
5190,-0.205,-0.52,
5191,-0.52,-0.56,
5192,-0.77,-0.635,
5193,-0.935,-0.745,
5194,-0.99,-0.825,
5195,-0.965,-0.835,
5196,-0.91,-0.78,
5197,-0.865,-0.685,
5198,-0.855,-0.635,
5199,-0.885,-0.675,
5200,-0.915,-0.725,
5201,-0.95,-0.775,
5202,-1.0,-0.765,
5203,-1.03,-0.735,
5204,-1.08,-0.685,
5205,-1.11,-0.695,
5206,-1.12,-0.745,
5207,-1.095,-0.765,
5208,-1.065,-0.745,
5209,-1.075,-0.695,
5210,-1.075,-0.63,
5211,-1.1,-0.64,
5212,-1.1,-0.685,
5213,-1.11,-0.755,
5214,-1.105,-0.77,
5215,-1.1,-0.735,
5216,-1.095,-0.675,
5217,-1.12,-0.625,
5218,-1.095,-0.655,
5219,-1.1,-0.68,
5220,-1.06,-0.72,
5221,-1.05,-0.705,
5222,-1.04,-0.65,
5223,-1.075,-0.615,
5224,-1.08,-0.635,
5225,-1.08,-0.675,
5226,-1.075,-0.715,
5227,-1.07,-0.705,
5228,-1.09,-0.65,
5229,-1.11,-0.63,
5230,-1.105,-0.64,
5231,-1.09,-0.675,
5232,-1.06,-0.675,
5233,-1.055,-0.615,
5234,-1.04,-0.57,
5235,-1.06,-0.555,
5236,-1.055,-0.6,
5237,-1.065,-0.655,
5238,-1.065,-0.63,
5239,-1.07,-0.6,
5240,-1.075,-0.58,
5241,-1.07,-0.605,
5242,-1.07,-0.625,
5243,-1.035,-0.615,
5244,-1.03,-0.575,
5245,-1.03,-0.52,
5246,-1.025,-0.51,
5247,-1.025,-0.555,
5248,-1.01,-0.6,
5249,-1.005,-0.61,
5250,-0.995,-0.565,
5251,-1.02,-0.515,
5252,-1.02,-0.525,
5253,-1.035,-0.565,
5254,-1.02,-0.625,
5255,-0.985,-0.615,
5256,-0.97,-0.57,
5257,-0.97,-0.52,
5258,-0.98,-0.515,
5259,-0.985,-0.535,
5260,-0.97,-0.58,
5261,-0.96,-0.615,
5262,-0.97,-0.575,
5263,-0.98,-0.565,
5264,-0.975,-0.58,
5265,-0.975,-0.605,
5266,-0.965,-0.61,
5267,-0.945,-0.575,
5268,-0.95,-0.545,
5269,-0.95,-0.545,
5270,-0.95,-0.58,
5271,-0.94,-0.64,
5272,-0.925,-0.645,
5273,-0.915,-0.61,
5274,-0.935,-0.575,
5275,-0.96,-0.59,
5276,-0.97,-0.63,
5277,-0.955,-0.705,
5278,-0.95,-0.71,
5279,-0.94,-0.665,
5280,-0.93,-0.61,
5281,-0.94,-0.59,
5282,-0.935,-0.63,
5283,-0.935,-0.695,
5284,-0.93,-0.705,
5285,-0.94,-0.695,
5286,-0.955,-0.665,
5287,-0.965,-0.66,
5288,-0.97,-0.69,
5289,-0.965,-0.755,
5290,-0.96,-0.74,
5291,-0.94,-0.695,
5292,-0.95,-0.655,
5293,-0.945,-0.64,
5294,-0.96,-0.675,
5295,-0.945,-0.725,
5296,-0.935,-0.76,
5297,-0.93,-0.715,
5298,-0.955,-0.67,
5299,-0.975,-0.67,
5300,-0.98,-0.71,
5301,-0.975,-0.765,
5302,-0.965,-0.77,
5303,-0.955,-0.715,
5304,-0.965,-0.665,
5305,-0.97,-0.68,
5306,-0.96,-0.72,
5307,-0.96,-0.73,
5308,-0.97,-0.715,
5309,-0.985,-0.69,
5310,-1.0,-0.7,
5311,-1.0,-0.74,
5312,-0.995,-0.765,
5313,-1.005,-0.76,
5314,-1.015,-0.7,
5315,-1.025,-0.685,
5316,-1.03,-0.71,
5317,-1.01,-0.75,
5318,-1.01,-0.74,
5319,-1.015,-0.71,
5320,-1.025,-0.675,
5321,-1.045,-0.705,
5322,-1.06,-0.735,
5323,-1.065,-0.79,
5324,-1.06,-0.81,
5325,-1.055,-0.755,
5326,-1.065,-0.725,
5327,-1.08,-0.705,
5328,-1.075,-0.73,
5329,-1.07,-0.76,
5330,-1.05,-0.76,
5331,-1.05,-0.715,
5332,-1.055,-0.675,
5333,-1.07,-0.715,
5334,-1.075,-0.77,
5335,-1.06,-0.8,
5336,-1.05,-0.785,
5337,-1.06,-0.745,
5338,-1.065,-0.715,
5339,-1.06,-0.72,
5340,-1.035,-0.76,
5341,-1.02,-0.76,
5342,-1.005,-0.745,
5343,-1.0,-0.695,
5344,-1.005,-0.65,
5345,-1.03,-0.71,
5346,-1.04,-0.75,
5347,-1.02,-0.805,
5348,-1.02,-0.79,
5349,-1.015,-0.725,
5350,-1.015,-0.69,
5351,-1.015,-0.71,
5352,-1.0,-0.75,
5353,-0.975,-0.76,
5354,-0.945,-0.725,
5355,-0.955,-0.685,
5356,-0.97,-0.68,
5357,-0.985,-0.72,
5358,-0.955,-0.775,
5359,-0.955,-0.79,
5360,-0.945,-0.755,
5361,-0.94,-0.71,
5362,-0.95,-0.685,
5363,-0.925,-0.72,
5364,-0.9,-0.735,
5365,-0.825,-0.75,
5366,-0.805,-0.695,
5367,-0.795,-0.64,
5368,-0.785,-0.63,
5369,-0.785,-0.67,
5370,-0.78,-0.7,
5371,-0.78,-0.68,
5372,-0.765,-0.645,
5373,-0.795,-0.61,
5374,-0.805,-0.625,
5375,-0.785,-0.69,
5376,-0.77,-0.685,
5377,-0.77,-0.655,
5378,-0.79,-0.61,
5379,-0.79,-0.62,
5380,-0.82,-0.655,
5381,-0.83,-0.695,
5382,-0.84,-0.69,
5383,-0.84,-0.655,
5384,-0.875,-0.67,
5385,-0.915,-0.715,
5386,-0.92,-0.76,
5387,-0.935,-0.75,
5388,-0.95,-0.71,
5389,-0.965,-0.68,
5390,-0.97,-0.695,
5391,-0.975,-0.74,
5392,-0.99,-0.775,
5393,-1.0,-0.75,
5394,-1.0,-0.695,
5395,-1.015,-0.685,
5396,-1.025,-0.725,
5397,-1.035,-0.78,
5398,-1.035,-0.81,
5399,-1.005,-0.77,
5400,-1.01,-0.7,
5401,-0.995,-0.685,
5402,-0.99,-0.7,
5403,-0.985,-0.735,
5404,-0.99,-0.755,
5405,-0.995,-0.745,
5406,-1.015,-0.71,
5407,-1.055,-0.71,
5408,-1.11,-0.765,
5409,-1.15,-0.79,
5410,-1.2,-0.795,
5411,-1.195,-0.75,
5412,-1.18,-0.655,
5413,-1.135,-0.625,
5414,-1.005,-0.61,
5415,-0.85,-0.595,
5416,-0.65,-0.525,
5417,-0.46,-0.44,
5418,-0.265,-0.36,
5419,-0.08,-0.345,
5420,0.085,-0.37,
5421,0.255,-0.395,
5422,0.43,-0.385,
5423,0.56,-0.37,
5424,0.66,-0.415,
5425,0.7,-0.51,N
5426,0.735,-0.67,
5427,0.72,-0.75,
5428,0.665,-0.74,
5429,0.585,-0.645,
5430,0.425,-0.555,
5431,0.22,-0.525,
5432,-0.075,-0.535,
5433,-0.365,-0.595,
5434,-0.625,-0.645,
5435,-0.815,-0.675,
5436,-0.925,-0.715,
5437,-0.955,-0.735,
5438,-0.905,-0.785,
5439,-0.85,-0.8,
5440,-0.81,-0.745,
5441,-0.83,-0.69,
5442,-0.87,-0.645,
5443,-0.935,-0.69,
5444,-0.985,-0.755,
5445,-1.025,-0.79,
5446,-1.05,-0.76,
5447,-1.07,-0.7,
5448,-1.09,-0.685,
5449,-1.08,-0.68,
5450,-1.055,-0.715,
5451,-1.06,-0.72,
5452,-1.07,-0.665,
5453,-1.07,-0.665,
5454,-1.095,-0.67,
5455,-1.085,-0.72,
5456,-1.065,-0.735,
5457,-1.045,-0.72,
5458,-1.06,-0.675,
5459,-1.05,-0.65,
5460,-1.06,-0.645,
5461,-1.06,-0.695,
5462,-1.045,-0.695,
5463,-1.05,-0.675,
5464,-1.045,-0.635,
5465,-1.05,-0.625,
5466,-1.065,-0.66,
5467,-1.06,-0.71,
5468,-1.05,-0.755,
5469,-1.045,-0.695,
5470,-1.055,-0.655,
5471,-1.065,-0.59,
5472,-1.06,-0.61,
5473,-1.05,-0.63,
5474,-1.04,-0.665,
5475,-1.02,-0.67,
5476,-1.02,-0.605,
5477,-1.045,-0.585,
5478,-1.06,-0.595,
5479,-1.06,-0.655,
5480,-1.04,-0.685,
5481,-1.045,-0.66,
5482,-1.035,-0.595,
5483,-1.03,-0.565,
5484,-1.04,-0.56,
5485,-1.03,-0.61,
5486,-1.01,-0.615,
5487,-1.0,-0.6,
5488,-0.985,-0.565,
5489,-1.005,-0.52,
5490,-1.03,-0.53,
5491,-1.01,-0.565,
5492,-1.015,-0.635,
5493,-0.995,-0.625,
5494,-0.985,-0.575,
5495,-1.0,-0.52,
5496,-0.985,-0.495,
5497,-0.97,-0.54,
5498,-0.96,-0.575,
5499,-0.95,-0.57,
5500,-0.945,-0.54,
5501,-0.945,-0.495,
5502,-0.965,-0.525,
5503,-0.975,-0.61,
5504,-0.965,-0.635,
5505,-0.945,-0.61,
5506,-0.955,-0.555,
5507,-0.95,-0.52,
5508,-0.955,-0.53,
5509,-0.94,-0.565,
5510,-0.925,-0.605,
5511,-0.915,-0.605,
5512,-0.905,-0.57,
5513,-0.92,-0.53,
5514,-0.945,-0.545,
5515,-0.94,-0.595,
5516,-0.935,-0.655,
5517,-0.935,-0.66,
5518,-0.91,-0.64,
5519,-0.92,-0.59,
5520,-0.93,-0.585,
5521,-0.925,-0.62,
5522,-0.885,-0.66,
5523,-0.875,-0.675,
5524,-0.88,-0.64,
5525,-0.925,-0.63,
5526,-0.925,-0.645,
5527,-0.935,-0.7,
5528,-0.92,-0.755,
5529,-0.925,-0.735,
5530,-0.935,-0.695,
5531,-0.945,-0.635,
5532,-0.95,-0.65,
5533,-0.935,-0.705,
5534,-0.915,-0.725,
5535,-0.9,-0.695,
5536,-0.9,-0.65,
5537,-0.93,-0.645,
5538,-0.955,-0.66,
5539,-0.96,-0.735,
5540,-0.935,-0.765,
5541,-0.945,-0.75,
5542,-0.95,-0.705,
5543,-0.955,-0.65,
5544,-0.96,-0.655,
5545,-0.945,-0.675,
5546,-0.925,-0.725,
5547,-0.915,-0.72,
5548,-0.915,-0.68,
5549,-0.93,-0.645,
5550,-0.955,-0.66,
5551,-0.97,-0.7,
5552,-0.97,-0.765,
5553,-0.945,-0.78,
5554,-0.96,-0.725,
5555,-0.96,-0.645,
5556,-0.985,-0.625,
5557,-0.97,-0.665,
5558,-0.945,-0.72,
5559,-0.945,-0.745,
5560,-0.93,-0.74,
5561,-0.945,-0.68,
5562,-0.985,-0.65,
5563,-0.995,-0.66,
5564,-1.0,-0.705,
5565,-1.01,-0.77,
5566,-0.995,-0.765,
5567,-1.0,-0.72,
5568,-1.0,-0.66,
5569,-1.015,-0.645,
5570,-1.02,-0.67,
5571,-1.015,-0.735,
5572,-1.015,-0.755,
5573,-1.01,-0.76,
5574,-1.02,-0.7,
5575,-1.035,-0.675,
5576,-1.055,-0.69,
5577,-1.05,-0.76,
5578,-1.04,-0.785,
5579,-1.015,-0.75,
5580,-1.0,-0.685,
5581,-1.005,-0.64,
5582,-1.01,-0.645,
5583,-1.005,-0.695,
5584,-1.005,-0.755,
5585,-1.0,-0.76,
5586,-1.005,-0.74,
5587,-1.005,-0.69,
5588,-1.01,-0.66,
5589,-1.01,-0.695,
5590,-1.01,-0.75,
5591,-0.99,-0.755,
5592,-0.975,-0.73,
5593,-0.97,-0.655,
5594,-0.98,-0.63,
5595,-0.99,-0.67,
5596,-0.98,-0.725,
5597,-0.985,-0.76,
5598,-0.98,-0.75,
5599,-0.98,-0.705,
5600,-1.01,-0.685,
5601,-1.01,-0.705,
5602,-0.975,-0.745,
5603,-0.96,-0.75,
5604,-0.925,-0.705,
5605,-0.92,-0.665,
5606,-0.915,-0.65,
5607,-0.915,-0.655,
5608,-0.9,-0.73,
5609,-0.885,-0.745,
5610,-0.885,-0.715,
5611,-0.88,-0.66,
5612,-0.875,-0.65,
5613,-0.86,-0.695,
5614,-0.84,-0.735,
5615,-0.805,-0.73,
5616,-0.78,-0.69,
5617,-0.77,-0.625,
5618,-0.77,-0.565,
5619,-0.77,-0.57,
5620,-0.745,-0.64,
5621,-0.74,-0.67,
5622,-0.735,-0.66,
5623,-0.75,-0.62,
5624,-0.77,-0.575,
5625,-0.78,-0.595,
5626,-0.8,-0.635,
5627,-0.775,-0.67,
5628,-0.785,-0.66,
5629,-0.78,-0.615,
5630,-0.805,-0.545,
5631,-0.805,-0.575,
5632,-0.82,-0.64,
5633,-0.795,-0.69,
5634,-0.805,-0.705,
5635,-0.83,-0.66,
5636,-0.87,-0.64,
5637,-0.91,-0.67,
5638,-0.92,-0.705,
5639,-0.92,-0.765,
5640,-0.92,-0.745,
5641,-0.93,-0.685,
5642,-0.935,-0.655,
5643,-0.955,-0.65,
5644,-0.955,-0.7,
5645,-0.955,-0.75,
5646,-0.95,-0.78,
5647,-0.965,-0.73,
5648,-0.99,-0.69,
5649,-1.03,-0.685,
5650,-1.025,-0.725,
5651,-1.025,-0.745,
5652,-0.995,-0.73,
5653,-0.985,-0.67,
5654,-0.99,-0.635,
5655,-1.0,-0.65,
5656,-1.0,-0.68,
5657,-1.01,-0.74,
5658,-1.005,-0.765,
5659,-0.995,-0.735,
5660,-1.045,-0.68,
5661,-1.115,-0.66,
5662,-1.15,-0.7,
5663,-1.21,-0.745,
5664,-1.185,-0.75,
5665,-1.175,-0.71,
5666,-1.12,-0.605,
5667,-1.03,-0.545,
5668,-0.905,-0.515,
5669,-0.715,-0.505,
5670,-0.505,-0.495,
5671,-0.32,-0.415,
5672,-0.125,-0.335,
5673,0.05,-0.285,
5674,0.235,-0.305,
5675,0.41,-0.345,
5676,0.58,-0.38,
5677,0.675,-0.4,
5678,0.74,-0.455,N
5679,0.755,-0.585,
5680,0.735,-0.685,
5681,0.675,-0.725,
5682,0.565,-0.695,
5683,0.44,-0.57,
5684,0.245,-0.46,
5685,-0.045,-0.46,
5686,-0.34,-0.53,
5687,-0.59,-0.63,
5688,-0.77,-0.71,
5689,-0.86,-0.715,
5690,-0.89,-0.68,
5691,-0.895,-0.685,
5692,-0.86,-0.7,
5693,-0.82,-0.73,
5694,-0.8,-0.75,
5695,-0.81,-0.72,
5696,-0.875,-0.66,
5697,-0.97,-0.63,
5698,-1.015,-0.675,
5699,-1.04,-0.735,
5700,-1.04,-0.745,
5701,-1.02,-0.715,
5702,-1.03,-0.675,
5703,-1.035,-0.63,
5704,-1.055,-0.65,
5705,-1.065,-0.71,
5706,-1.045,-0.735,
5707,-1.045,-0.715,
5708,-1.055,-0.655,
5709,-1.075,-0.61,
5710,-1.08,-0.61,
5711,-1.08,-0.665,
5712,-1.06,-0.71,
5713,-1.02,-0.705,
5714,-1.01,-0.65,
5715,-1.025,-0.595,
5716,-1.045,-0.555,
5717,-1.055,-0.605,
5718,-1.065,-0.675,
5719,-1.055,-0.71,
5720,-1.05,-0.705,
5721,-1.045,-0.635,
5722,-1.06,-0.59,
5723,-1.065,-0.59,
5724,-1.04,-0.635,
5725,-1.02,-0.645,
5726,-1.0,-0.635,
5727,-0.99,-0.575,
5728,-1.005,-0.54,
5729,-1.04,-0.565,
5730,-1.055,-0.62,
5731,-1.03,-0.67,
5732,-1.02,-0.66,
5733,-1.01,-0.6,
5734,-1.03,-0.545,
5735,-1.03,-0.52,
5736,-1.02,-0.555,
5737,-1.01,-0.6,
5738,-0.975,-0.58,
5739,-0.98,-0.54,
5740,-1.0,-0.495,
5741,-1.005,-0.515,
5742,-1.005,-0.55,
5743,-1.005,-0.6,
5744,-0.995,-0.58,
5745,-0.99,-0.55,
5746,-1.005,-0.505,
5747,-1.015,-0.53,
5748,-1.01,-0.545,
5749,-0.965,-0.545,
5750,-0.945,-0.495,
5751,-0.94,-0.44,
5752,-0.95,-0.46,
5753,-0.945,-0.51,
5754,-0.935,-0.565,
5755,-0.945,-0.565,
5756,-0.955,-0.52,
5757,-0.96,-0.47,
5758,-0.975,-0.475,
5759,-0.97,-0.52,
5760,-0.945,-0.57,
5761,-0.91,-0.585,
5762,-0.89,-0.52,
5763,-0.905,-0.485,
5764,-0.91,-0.47,
5765,-0.925,-0.495,
5766,-0.91,-0.565,
5767,-0.91,-0.615,
5768,-0.89,-0.6,
5769,-0.905,-0.535,
5770,-0.915,-0.53,
5771,-0.905,-0.56,
5772,-0.905,-0.605,
5773,-0.87,-0.62,
5774,-0.85,-0.58,
5775,-0.855,-0.535,
5776,-0.885,-0.54,
5777,-0.915,-0.59,
5778,-0.91,-0.66,
5779,-0.9,-0.695,
5780,-0.9,-0.655,
5781,-0.915,-0.6,
5782,-0.915,-0.59,
5783,-0.9,-0.61,
5784,-0.89,-0.655,
5785,-0.875,-0.685,
5786,-0.865,-0.645,
5787,-0.875,-0.595,
5788,-0.895,-0.575,
5789,-0.91,-0.615,
5790,-0.915,-0.69,
5791,-0.91,-0.7,
5792,-0.915,-0.68,
5793,-0.93,-0.64,
5794,-0.945,-0.62,
5795,-0.955,-0.62,
5796,-0.925,-0.655,
5797,-0.91,-0.685,
5798,-0.89,-0.625,
5799,-0.895,-0.6,
5800,-0.91,-0.58,
5801,-0.925,-0.63,
5802,-0.945,-0.685,
5803,-0.93,-0.72,
5804,-0.945,-0.69,
5805,-0.94,-0.625,
5806,-0.96,-0.61,
5807,-0.96,-0.625,
5808,-0.955,-0.66,
5809,-0.925,-0.68,
5810,-0.92,-0.635,
5811,-0.925,-0.595,
5812,-0.94,-0.595,
5813,-0.95,-0.635,
5814,-0.945,-0.695,
5815,-0.95,-0.7,
5816,-0.97,-0.67,
5817,-1.005,-0.635,
5818,-1.005,-0.665,
5819,-1.005,-0.69,
5820,-1.0,-0.705,
5821,-0.985,-0.67,
5822,-0.985,-0.615,
5823,-1.005,-0.61,
5824,-1.02,-0.65,
5825,-1.0,-0.705,
5826,-1.03,-0.7,
5827,-1.025,-0.66,
5828,-1.05,-0.635,
5829,-1.055,-0.645,
5830,-1.045,-0.705,
5831,-1.025,-0.705,
5832,-1.015,-0.68,
5833,-1.015,-0.61,
5834,-1.025,-0.565,
5835,-1.01,-0.6,
5836,-1.005,-0.675,
5837,-0.99,-0.685,
5838,-0.995,-0.69,
5839,-0.985,-0.625,
5840,-1.005,-0.59,
5841,-1.01,-0.635,
5842,-1.02,-0.665,
5843,-0.99,-0.695,
5844,-0.99,-0.675,
5845,-0.975,-0.605,
5846,-0.98,-0.55,
5847,-0.97,-0.59,
5848,-0.98,-0.65,
5849,-0.985,-0.685,
5850,-0.965,-0.67,
5851,-0.97,-0.625,
5852,-0.985,-0.595,
5853,-0.985,-0.625,
5854,-0.98,-0.685,
5855,-0.945,-0.69,
5856,-0.91,-0.67,
5857,-0.9,-0.6,
5858,-0.93,-0.56,
5859,-0.915,-0.605,
5860,-0.905,-0.665,
5861,-0.89,-0.685,
5862,-0.86,-0.665,
5863,-0.855,-0.625,
5864,-0.86,-0.585,
5865,-0.84,-0.59,
5866,-0.825,-0.645,
5867,-0.78,-0.66,
5868,-0.745,-0.62,
5869,-0.725,-0.55,
5870,-0.72,-0.48,
5871,-0.715,-0.485,
5872,-0.75,-0.535,
5873,-0.735,-0.56,
5874,-0.74,-0.55,
5875,-0.755,-0.525,
5876,-0.775,-0.51,
5877,-0.765,-0.52,
5878,-0.76,-0.565,
5879,-0.76,-0.6,
5880,-0.755,-0.565,
5881,-0.76,-0.48,
5882,-0.775,-0.465,
5883,-0.785,-0.495,
5884,-0.785,-0.55,
5885,-0.8,-0.595,
5886,-0.795,-0.605,
5887,-0.83,-0.56,
5888,-0.88,-0.565,
5889,-0.895,-0.62,
5890,-0.91,-0.655,
5891,-0.915,-0.64,
5892,-0.93,-0.6,
5893,-0.945,-0.55,
5894,-0.945,-0.54,
5895,-0.935,-0.57,
5896,-0.945,-0.615,
5897,-0.94,-0.605,
5898,-0.96,-0.59,
5899,-0.975,-0.57,
5900,-0.98,-0.575,
5901,-0.99,-0.63,
5902,-0.97,-0.675,
5903,-0.96,-0.635,
5904,-0.96,-0.545,
5905,-0.975,-0.515,
5906,-0.97,-0.53,
5907,-0.965,-0.605,
5908,-0.96,-0.665,
5909,-0.97,-0.625,
5910,-1.01,-0.595,
5911,-1.075,-0.555,
5912,-1.15,-0.55,
5913,-1.205,-0.62,
5914,-1.195,-0.65,
5915,-1.135,-0.64,
5916,-1.05,-0.545,
5917,-0.925,-0.405,
5918,-0.785,-0.35,
5919,-0.595,-0.32,
5920,-0.405,-0.31,
5921,-0.175,-0.29,
5922,-0.015,-0.205,
5923,0.16,-0.135,
5924,0.31,-0.155,
5925,0.435,-0.21,
5926,0.575,-0.275,
5927,0.665,-0.345,
5928,0.735,-0.39,
5929,0.775,-0.415,N
5930,0.79,-0.44,
5931,0.755,-0.495,
5932,0.695,-0.53,
5933,0.605,-0.51,
5934,0.44,-0.44,
5935,0.185,-0.345,
5936,-0.12,-0.31,
5937,-0.435,-0.4,
5938,-0.67,-0.53,
5939,-0.81,-0.605,
5940,-0.865,-0.615,
5941,-0.855,-0.57,
5942,-0.82,-0.525,
5943,-0.795,-0.535,
5944,-0.775,-0.565,
5945,-0.78,-0.6,
5946,-0.835,-0.58,
5947,-0.89,-0.525,
5948,-0.97,-0.5,
5949,-1.0,-0.53,
5950,-1.04,-0.59,
5951,-1.015,-0.62,
5952,-1.01,-0.595,
5953,-1.01,-0.535,
5954,-0.995,-0.475,
5955,-1.0,-0.45,
5956,-1.02,-0.505,
5957,-1.02,-0.55,
5958,-1.005,-0.585,
5959,-1.015,-0.54,
5960,-1.03,-0.48,
5961,-1.05,-0.485,
5962,-1.045,-0.525,
5963,-1.01,-0.56,
5964,-0.995,-0.545,
5965,-1.0,-0.48,
5966,-1.0,-0.45,
5967,-1.005,-0.465,
5968,-1.015,-0.5,
5969,-1.005,-0.515,
5970,-0.995,-0.505,
5971,-0.995,-0.46,
5972,-1.01,-0.465,
5973,-1.01,-0.5,
5974,-0.99,-0.535,
5975,-0.985,-0.515,
5976,-0.99,-0.455,
5977,-0.975,-0.4,
5978,-0.99,-0.39,
5979,-0.995,-0.43,
5980,-0.975,-0.47,
5981,-0.965,-0.5,
5982,-0.96,-0.46,
5983,-0.98,-0.41,
5984,-0.985,-0.395,
5985,-0.995,-0.44,
5986,-1.01,-0.475,
5987,-0.99,-0.49,
5988,-0.985,-0.445,
5989,-0.96,-0.385,
5990,-0.975,-0.34,
5991,-0.97,-0.36,
5992,-0.96,-0.415,
5993,-0.94,-0.45,
5994,-0.93,-0.435,
5995,-0.935,-0.395,
5996,-0.94,-0.35,
5997,-0.96,-0.355,
5998,-0.945,-0.39,
5999,-0.935,-0.44,
6000,-0.92,-0.405,
6001,-0.92,-0.35,
6002,-0.93,-0.295,
6003,-0.93,-0.285,
6004,-0.93,-0.35,
6005,-0.905,-0.4,
6006,-0.91,-0.415,
6007,-0.91,-0.38,
6008,-0.92,-0.345,
6009,-0.93,-0.355,
6010,-0.935,-0.41,
6011,-0.925,-0.44,
6012,-0.91,-0.415,
6013,-0.905,-0.35,
6014,-0.905,-0.31,
6015,-0.885,-0.35,
6016,-0.865,-0.415,
6017,-0.845,-0.435,
6018,-0.84,-0.415,
6019,-0.84,-0.38,
6020,-0.865,-0.365,
6021,-0.87,-0.415,
6022,-0.89,-0.475,
6023,-0.875,-0.49,
6024,-0.855,-0.445,
6025,-0.85,-0.39,
6026,-0.86,-0.355,
6027,-0.865,-0.375,
6028,-0.86,-0.45,
6029,-0.845,-0.48,
6030,-0.845,-0.47,
6031,-0.86,-0.43,
6032,-0.885,-0.44,
6033,-0.89,-0.47,
6034,-0.9,-0.52,
6035,-0.885,-0.525,
6036,-0.875,-0.485,
6037,-0.875,-0.425,
6038,-0.875,-0.405,
6039,-0.865,-0.455,
6040,-0.865,-0.5,
6041,-0.855,-0.51,
6042,-0.875,-0.47,
6043,-0.885,-0.44,
6044,-0.91,-0.48,
6045,-0.905,-0.51,
6046,-0.9,-0.525,
6047,-0.885,-0.52,
6048,-0.905,-0.45,
6049,-0.9,-0.42,
6050,-0.905,-0.44,
6051,-0.895,-0.485,
6052,-0.87,-0.525,
6053,-0.885,-0.52,
6054,-0.895,-0.475,
6055,-0.905,-0.435,
6056,-0.915,-0.465,
6057,-0.93,-0.52,
6058,-0.905,-0.55,
6059,-0.915,-0.545,
6060,-0.89,-0.475,
6061,-0.91,-0.425,
6062,-0.93,-0.395,
6063,-0.915,-0.45,
6064,-0.925,-0.53,
6065,-0.91,-0.535,
6066,-0.91,-0.505,
6067,-0.94,-0.465,
6068,-0.94,-0.46,
6069,-0.945,-0.485,
6070,-0.965,-0.54,
6071,-0.95,-0.54,
6072,-0.94,-0.485,
6073,-0.94,-0.425,
6074,-0.955,-0.4,
6075,-0.94,-0.445,
6076,-0.94,-0.515,
6077,-0.935,-0.54,
6078,-0.945,-0.55,
6079,-0.955,-0.485,
6080,-0.995,-0.465,
6081,-1.01,-0.485,
6082,-1.0,-0.53,
6083,-0.985,-0.56,
6084,-0.95,-0.51,
6085,-0.945,-0.455,
6086,-0.965,-0.43,
6087,-0.96,-0.445,
6088,-0.96,-0.5,
6089,-0.96,-0.525,
6090,-0.935,-0.515,
6091,-0.945,-0.48,
6092,-0.96,-0.455,
6093,-0.965,-0.485,
6094,-0.96,-0.54,
6095,-0.93,-0.535,
6096,-0.9,-0.485,
6097,-0.885,-0.425,
6098,-0.89,-0.395,
6099,-0.9,-0.435,
6100,-0.91,-0.495,
6101,-0.895,-0.505,
6102,-0.89,-0.5,
6103,-0.905,-0.45,
6104,-0.915,-0.475,
6105,-0.925,-0.485,
6106,-0.895,-0.535,
6107,-0.865,-0.54,
6108,-0.845,-0.465,
6109,-0.845,-0.405,
6110,-0.84,-0.41,
6111,-0.82,-0.45,
6112,-0.79,-0.49,
6113,-0.8,-0.495,
6114,-0.79,-0.46,
6115,-0.785,-0.445,
6116,-0.785,-0.46,
6117,-0.75,-0.5,
6118,-0.725,-0.51,
6119,-0.71,-0.44,
6120,-0.7,-0.36,
6121,-0.7,-0.35,
6122,-0.685,-0.4,
6123,-0.66,-0.42,
6124,-0.67,-0.405,
6125,-0.665,-0.365,
6126,-0.69,-0.33,
6127,-0.725,-0.34,
6128,-0.74,-0.415,
6129,-0.74,-0.465,
6130,-0.73,-0.49,
6131,-0.74,-0.44,
6132,-0.745,-0.375,
6133,-0.77,-0.355,
6134,-0.775,-0.405,
6135,-0.795,-0.475,
6136,-0.805,-0.515,
6137,-0.83,-0.49,
6138,-0.865,-0.475,
6139,-0.885,-0.45,
6140,-0.89,-0.505,
6141,-0.9,-0.55,
6142,-0.89,-0.54,
6143,-0.9,-0.475,
6144,-0.91,-0.42,
6145,-0.925,-0.37,
6146,-0.94,-0.425,
6147,-0.92,-0.465,
6148,-0.92,-0.52,
6149,-0.92,-0.505,
6150,-0.92,-0.475,
6151,-0.925,-0.42,
6152,-0.925,-0.465,
6153,-0.94,-0.505,
6154,-0.925,-0.52,
6155,-0.94,-0.495,
6156,-0.925,-0.43,
6157,-0.95,-0.385,
6158,-0.96,-0.405,
6159,-0.985,-0.475,
6160,-1.015,-0.5,
6161,-1.055,-0.505,
6162,-1.085,-0.465,
6163,-1.145,-0.44,
6164,-1.165,-0.465,
6165,-1.145,-0.5,
6166,-1.055,-0.475,
6167,-0.92,-0.385,
6168,-0.73,-0.24,
6169,-0.535,-0.16,
6170,-0.325,-0.11,
6171,-0.115,-0.115,
6172,0.04,-0.115,
6173,0.2,-0.08,
6174,0.335,-0.035,
6175,0.465,-0.04,
6176,0.57,-0.15,
6177,0.65,-0.285,
6178,0.71,-0.445,N
6179,0.755,-0.55,
6180,0.765,-0.54,
6181,0.72,-0.505,
6182,0.625,-0.47,
6183,0.46,-0.44,
6184,0.255,-0.39,
6185,-0.075,-0.325,
6186,-0.405,-0.305,
6187,-0.685,-0.355,
6188,-0.85,-0.445,
6189,-0.915,-0.55,
6190,-0.9,-0.54,
6191,-0.835,-0.505,
6192,-0.795,-0.43,
6193,-0.76,-0.38,
6194,-0.79,-0.405,
6195,-0.805,-0.44,
6196,-0.855,-0.43,
6197,-0.91,-0.39,
6198,-0.965,-0.38,
6199,-1.0,-0.42,
6200,-0.995,-0.47,
6201,-0.985,-0.5,
6202,-0.97,-0.47,
6203,-0.97,-0.42,
6204,-0.985,-0.36,
6205,-1.005,-0.36,
6206,-1.005,-0.385,
6207,-0.995,-0.425,
6208,-0.96,-0.42,
6209,-0.955,-0.36,
6210,-0.965,-0.35,
6211,-0.975,-0.36,
6212,-0.985,-0.43,
6213,-0.965,-0.46,
6214,-0.96,-0.42,
6215,-0.96,-0.365,
6216,-0.965,-0.31,
6217,-0.985,-0.315,
6218,-0.97,-0.375,
6219,-0.975,-0.41,
6220,-0.96,-0.395,
6221,-0.965,-0.355,
6222,-0.98,-0.32,
6223,-0.995,-0.325,
6224,-1.005,-0.38,
6225,-0.975,-0.415,
6226,-0.955,-0.405,
6227,-0.97,-0.33,
6228,-0.95,-0.285,
6229,-0.955,-0.29,
6230,-0.945,-0.335,
6231,-0.94,-0.37,
6232,-0.915,-0.335,
6233,-0.92,-0.28,
6234,-0.94,-0.255,
6235,-0.96,-0.275,
6236,-0.95,-0.34,
6237,-0.96,-0.4,
6238,-0.955,-0.375,
6239,-0.97,-0.295,
6240,-0.96,-0.245,
6241,-0.945,-0.235,
6242,-0.925,-0.265,
6243,-0.895,-0.31,
6244,-0.88,-0.3,
6245,-0.895,-0.255,
6246,-0.91,-0.215,
6247,-0.93,-0.235,
6248,-0.93,-0.28,
6249,-0.93,-0.33,
6250,-0.89,-0.33,
6251,-0.87,-0.255,
6252,-0.875,-0.21,
6253,-0.88,-0.22,
6254,-0.875,-0.255,
6255,-0.865,-0.315,
6256,-0.87,-0.305,
6257,-0.88,-0.25,
6258,-0.885,-0.235,
6259,-0.9,-0.25,
6260,-0.91,-0.335,
6261,-0.885,-0.37,
6262,-0.875,-0.355,
6263,-0.87,-0.27,
6264,-0.865,-0.235,
6265,-0.865,-0.245,
6266,-0.855,-0.3,
6267,-0.84,-0.34,
6268,-0.82,-0.335,
6269,-0.815,-0.285,
6270,-0.84,-0.265,
6271,-0.865,-0.28,
6272,-0.865,-0.355,
6273,-0.865,-0.405,
6274,-0.855,-0.425,
6275,-0.85,-0.35,
6276,-0.865,-0.295,
6277,-0.87,-0.28,
6278,-0.87,-0.31,
6279,-0.85,-0.375,
6280,-0.84,-0.425,
6281,-0.845,-0.395,
6282,-0.85,-0.345,
6283,-0.86,-0.3,
6284,-0.89,-0.34,
6285,-0.895,-0.41,
6286,-0.885,-0.465,
6287,-0.87,-0.43,
6288,-0.87,-0.36,
6289,-0.86,-0.32,
6290,-0.855,-0.33,
6291,-0.865,-0.38,
6292,-0.84,-0.435,
6293,-0.84,-0.42,
6294,-0.845,-0.385,
6295,-0.855,-0.335,
6296,-0.885,-0.345,
6297,-0.895,-0.395,
6298,-0.905,-0.44,
6299,-0.87,-0.46,
6300,-0.88,-0.42,
6301,-0.87,-0.34,
6302,-0.885,-0.295,
6303,-0.885,-0.33,
6304,-0.89,-0.415,
6305,-0.895,-0.44,
6306,-0.89,-0.425,
6307,-0.895,-0.375,
6308,-0.895,-0.36,
6309,-0.895,-0.39,
6310,-0.895,-0.43,
6311,-0.865,-0.445,
6312,-0.875,-0.41,
6313,-0.88,-0.35,
6314,-0.885,-0.305,
6315,-0.885,-0.33,
6316,-0.89,-0.41,
6317,-0.87,-0.44,
6318,-0.865,-0.44,
6319,-0.9,-0.385,
6320,-0.925,-0.355,
6321,-0.91,-0.385,
6322,-0.93,-0.435,
6323,-0.91,-0.455,
6324,-0.895,-0.43,
6325,-0.885,-0.355,
6326,-0.905,-0.32,
6327,-0.91,-0.34,
6328,-0.91,-0.405,
6329,-0.895,-0.43,
6330,-0.905,-0.415,
6331,-0.905,-0.365,
6332,-0.915,-0.36,
6333,-0.905,-0.4,
6334,-0.915,-0.435,
6335,-0.885,-0.44,
6336,-0.89,-0.4,
6337,-0.895,-0.345,
6338,-0.895,-0.335,
6339,-0.895,-0.375,
6340,-0.885,-0.43,
6341,-0.86,-0.43,
6342,-0.865,-0.4,
6343,-0.885,-0.365,
6344,-0.88,-0.365,
6345,-0.88,-0.425,
6346,-0.865,-0.48,
6347,-0.845,-0.47,
6348,-0.805,-0.405,
6349,-0.81,-0.33,
6350,-0.81,-0.31,
6351,-0.8,-0.33,
6352,-0.78,-0.385,
6353,-0.75,-0.435,
6354,-0.74,-0.39,
6355,-0.74,-0.355,
6356,-0.735,-0.34,
6357,-0.725,-0.375,
6358,-0.705,-0.405,
6359,-0.685,-0.4,
6360,-0.675,-0.36,
6361,-0.68,-0.275,
6362,-0.665,-0.265,
6363,-0.66,-0.3,
6364,-0.65,-0.35,
6365,-0.635,-0.35,
6366,-0.64,-0.335,
6367,-0.68,-0.265,
6368,-0.72,-0.3,
6369,-0.735,-0.34,
6370,-0.735,-0.385,
6371,-0.73,-0.39,
6372,-0.725,-0.34,
6373,-0.72,-0.285,
6374,-0.715,-0.27,
6375,-0.73,-0.335,
6376,-0.725,-0.39,
6377,-0.755,-0.415,
6378,-0.795,-0.405,
6379,-0.82,-0.385,
6380,-0.835,-0.4,
6381,-0.84,-0.45,
6382,-0.87,-0.455,
6383,-0.865,-0.43,
6384,-0.87,-0.36,
6385,-0.88,-0.34,
6386,-0.905,-0.355,
6387,-0.895,-0.415,
6388,-0.88,-0.445,
6389,-0.88,-0.415,
6390,-0.885,-0.365,
6391,-0.895,-0.34,
6392,-0.915,-0.395,
6393,-0.91,-0.445,
6394,-0.9,-0.47,
6395,-0.885,-0.44,
6396,-0.89,-0.385,
6397,-0.89,-0.34,
6398,-0.915,-0.37,
6399,-0.925,-0.42,
6400,-0.965,-0.45,
6401,-1.005,-0.44,
6402,-1.07,-0.405,
6403,-1.105,-0.42,
6404,-1.095,-0.43,
6405,-1.03,-0.415,
6406,-0.91,-0.355,
6407,-0.745,-0.24,
6408,-0.545,-0.125,
6409,-0.34,-0.065,
6410,-0.125,-0.075,
6411,0.09,-0.075,
6412,0.265,-0.085,
6413,0.425,-0.06,
6414,0.54,-0.09,
6415,0.62,-0.185,
6416,0.665,-0.335,
6417,0.69,-0.52,N
6418,0.705,-0.605,
6419,0.685,-0.61,
6420,0.63,-0.53,
6421,0.575,-0.455,
6422,0.485,-0.41,
6423,0.345,-0.355,
6424,0.12,-0.335,
6425,-0.17,-0.27,
