,MLII,V5,symbol
0,-0.805,-0.455,
1,-0.805,-0.455,
2,-0.805,-0.455,
3,-0.805,-0.455,
4,-0.805,-0.455,
5,-0.805,-0.455,
6,-0.805,-0.455,
7,-0.82,-0.455,
8,-0.835,-0.455,
9,-0.84,-0.43,
10,-0.835,-0.435,
11,-0.845,-0.415,
12,-0.84,-0.42,
13,-0.84,-0.405,
14,-0.855,-0.4,
15,-0.88,-0.415,
16,-0.905,-0.42,
17,-0.94,-0.44,
18,-0.95,-0.475,
19,-0.985,-0.485,
20,-0.98,-0.495,
21,-1.02,-0.49,
22,-1.015,-0.495,
23,-1.02,-0.49,
24,-1.015,-0.49,
25,-1.01,-0.475,+
26,-0.99,-0.465,
27,-0.995,-0.47,
28,-0.995,-0.485,
29,-1.01,-0.49,
30,-1.02,-0.505,
31,-1.03,-0.515,
32,-1.04,-0.515,
33,-1.035,-0.505,
34,-1.035,-0.515,
35,-1.04,-0.49,
36,-1.025,-0.495,
37,-1.025,-0.47,
38,-1.005,-0.455,
39,-1.01,-0.47,
40,-1.005,-0.455,
41,-1.01,-0.47,
42,-1.01,-0.485,
43,-1.025,-0.48,
44,-1.03,-0.505,
45,-1.045,-0.49,
46,-1.035,-0.495,
47,-1.035,-0.48,
48,-1.02,-0.48,
49,-1.01,-0.47,
50,-0.995,-0.455,
51,-0.995,-0.465,
52,-0.98,-0.455,
53,-0.965,-0.47,
54,-0.98,-0.465,
55,-0.985,-0.495,
56,-0.98,-0.495,
57,-0.97,-0.475,
58,-0.96,-0.48,
59,-0.935,-0.445,
60,-0.91,-0.41,
61,-0.86,-0.335,
62,-0.745,-0.265,
63,-0.58,-0.13,
64,-0.36,0.03,
65,-0.095,0.185,
66,0.165,0.305,
67,0.435,0.385,
68,0.71,0.405,
69,0.975,0.445,
70,1.16,0.46,N
71,1.2,0.46,
72,1.07,0.415,
73,0.735,0.305,
74,0.255,0.14,
75,-0.31,-0.135,
76,-0.91,-0.455,
77,-1.395,-0.815,
78,-1.66,-1.085,
79,-1.7,-1.22,
80,-1.59,-1.17,
81,-1.395,-1.02,
82,-1.23,-0.845,
83,-1.105,-0.72,
84,-1.065,-0.595,
85,-1.03,-0.545,
86,-1.05,-0.545,
87,-1.05,-0.54,
88,-1.035,-0.545,
89,-1.02,-0.54,
90,-1.02,-0.53,
91,-0.995,-0.51,
92,-0.995,-0.505,
93,-1.0,-0.505,
94,-1.01,-0.475,
95,-1.02,-0.49,
96,-1.005,-0.45,
97,-1.01,-0.46,
98,-1.0,-0.44,
99,-0.99,-0.455,
100,-0.985,-0.45,
101,-1.0,-0.475,
102,-1.0,-0.455,
103,-0.995,-0.465,
104,-1.01,-0.475,
105,-1.01,-0.47,
106,-1.02,-0.475,
107,-1.02,-0.455,
108,-0.99,-0.44,
109,-0.99,-0.44,
110,-0.98,-0.435,
111,-0.97,-0.43,
112,-0.97,-0.44,
113,-0.975,-0.44,
114,-0.99,-0.455,
115,-0.99,-0.45,
116,-0.99,-0.46,
117,-1.01,-0.46,
118,-1.015,-0.45,
119,-1.02,-0.425,
120,-1.005,-0.42,
121,-1.0,-0.435,
122,-0.975,-0.415,
123,-0.98,-0.425,
124,-0.98,-0.415,
125,-0.975,-0.42,
126,-0.99,-0.43,
127,-0.99,-0.435,
128,-1.005,-0.43,
129,-1.0,-0.425,
130,-1.005,-0.435,
131,-0.995,-0.41,
132,-1.0,-0.42,
133,-0.975,-0.41,
134,-0.965,-0.41,
135,-0.96,-0.41,
136,-0.965,-0.415,
137,-0.96,-0.42,
138,-0.96,-0.42,
139,-0.96,-0.425,
140,-0.98,-0.415,
141,-0.975,-0.41,
142,-0.97,-0.4,
143,-0.96,-0.385,
144,-0.945,-0.38,
145,-0.93,-0.365,
146,-0.91,-0.345,
147,-0.91,-0.335,
148,-0.925,-0.345,
149,-0.905,-0.33,
150,-0.91,-0.33,
151,-0.9,-0.355,
152,-0.915,-0.36,
153,-0.91,-0.34,
154,-0.895,-0.305,
155,-0.885,-0.315,
156,-0.865,-0.305,
157,-0.845,-0.28,
158,-0.83,-0.265,
159,-0.81,-0.26,
160,-0.79,-0.265,
161,-0.785,-0.265,
162,-0.77,-0.26,
163,-0.77,-0.27,
164,-0.77,-0.28,
165,-0.76,-0.255,
166,-0.73,-0.24,
167,-0.715,-0.215,
168,-0.69,-0.18,
169,-0.675,-0.17,
170,-0.64,-0.15,
171,-0.625,-0.15,
172,-0.61,-0.135,
173,-0.595,-0.135,
174,-0.585,-0.14,
175,-0.58,-0.135,
176,-0.575,-0.13,
177,-0.565,-0.13,
178,-0.57,-0.105,
179,-0.55,-0.11,
180,-0.54,-0.085,
181,-0.52,-0.075,
182,-0.5,-0.07,
183,-0.495,-0.09,
184,-0.5,-0.095,
185,-0.51,-0.095,
186,-0.545,-0.135,
187,-0.575,-0.16,
188,-0.595,-0.165,
189,-0.62,-0.17,
190,-0.645,-0.195,
191,-0.655,-0.21,
192,-0.67,-0.205,
193,-0.67,-0.21,
194,-0.72,-0.225,
195,-0.725,-0.235,
196,-0.75,-0.23,
197,-0.765,-0.275,
198,-0.785,-0.28,
199,-0.815,-0.32,
200,-0.83,-0.35,
201,-0.87,-0.345,
202,-0.885,-0.375,
203,-0.905,-0.37,
204,-0.91,-0.365,
205,-0.905,-0.365,
206,-0.925,-0.37,
207,-0.91,-0.38,
208,-0.91,-0.39,
209,-0.92,-0.415,
210,-0.94,-0.415,
211,-0.945,-0.43,
212,-0.975,-0.445,
213,-0.98,-0.445,
214,-0.985,-0.43,
215,-0.985,-0.44,
216,-0.965,-0.45,
217,-0.955,-0.42,
218,-0.945,-0.43,
219,-0.94,-0.435,
220,-0.94,-0.44,
221,-0.95,-0.42,
222,-0.96,-0.43,
223,-0.97,-0.435,
224,-0.975,-0.45,
225,-0.97,-0.445,
226,-0.985,-0.44,
227,-0.99,-0.435,
228,-0.99,-0.43,
229,-0.975,-0.415,
230,-0.97,-0.4,
231,-0.945,-0.405,
232,-0.95,-0.41,
233,-0.965,-0.415,
234,-0.965,-0.425,
235,-0.975,-0.44,
236,-0.985,-0.445,
237,-0.985,-0.44,
238,-0.98,-0.445,
239,-0.96,-0.435,
240,-0.96,-0.43,
241,-0.945,-0.415,
242,-0.95,-0.39,
243,-0.935,-0.425,
244,-0.94,-0.42,
245,-0.95,-0.41,
246,-0.955,-0.41,
247,-0.945,-0.435,
248,-0.96,-0.435,
249,-0.965,-0.41,
250,-0.97,-0.41,
251,-0.98,-0.415,
252,-0.965,-0.415,
253,-0.96,-0.385,
254,-0.955,-0.38,
255,-0.93,-0.385,
256,-0.95,-0.39,
257,-0.94,-0.4,
258,-0.95,-0.4,
259,-0.96,-0.41,
260,-0.985,-0.415,
261,-0.99,-0.405,
262,-0.985,-0.415,
263,-0.97,-0.41,
264,-0.96,-0.395,
265,-0.96,-0.385,
266,-0.94,-0.395,
267,-0.94,-0.395,
268,-0.945,-0.4,
269,-0.955,-0.42,
270,-0.965,-0.43,
271,-0.975,-0.445,
272,-0.985,-0.445,
273,-0.99,-0.43,
274,-0.99,-0.425,
275,-1.0,-0.415,
276,-0.995,-0.4,
277,-0.965,-0.405,
278,-0.97,-0.39,
279,-0.955,-0.395,
280,-0.96,-0.39,
281,-0.97,-0.4,
282,-0.985,-0.42,
283,-0.99,-0.425,
284,-0.995,-0.435,
285,-1.01,-0.44,
286,-1.025,-0.44,
287,-1.0,-0.42,
288,-0.99,-0.425,
289,-0.98,-0.425,
290,-0.97,-0.395,
291,-0.98,-0.405,
292,-0.98,-0.41,
293,-0.985,-0.45,
294,-1.015,-0.43,
295,-1.025,-0.46,
296,-1.04,-0.465,
297,-1.035,-0.475,
298,-1.025,-0.465,
299,-1.015,-0.455,
300,-1.02,-0.44,
301,-1.01,-0.42,
302,-0.985,-0.405,
303,-0.98,-0.425,
304,-0.99,-0.4,
305,-0.995,-0.42,
306,-1.015,-0.44,
307,-1.03,-0.435,
308,-1.045,-0.46,
309,-1.045,-0.46,
310,-1.05,-0.465,
311,-1.055,-0.445,
312,-1.04,-0.445,
313,-1.005,-0.43,
314,-0.995,-0.415,
315,-1.01,-0.4,
316,-1.015,-0.41,
317,-1.025,-0.43,
318,-1.035,-0.44,
319,-1.03,-0.455,
320,-1.035,-0.455,
321,-1.025,-0.475,
322,-1.035,-0.47,
323,-1.025,-0.45,
324,-1.03,-0.44,
325,-1.035,-0.44,
326,-1.025,-0.43,
327,-1.005,-0.44,
328,-1.015,-0.43,
329,-1.0,-0.43,
330,-1.015,-0.435,
331,-1.025,-0.45,
332,-1.015,-0.44,
333,-1.02,-0.45,
334,-1.04,-0.44,
335,-1.035,-0.44,
336,-1.025,-0.435,
337,-1.015,-0.42,
338,-1.01,-0.425,
339,-1.0,-0.415,
340,-1.02,-0.41,
341,-1.0,-0.42,
342,-1.02,-0.42,
343,-1.02,-0.435,
344,-1.01,-0.44,
345,-1.03,-0.455,
346,-1.02,-0.445,
347,-1.045,-0.445,
348,-1.045,-0.425,
349,-1.035,-0.435,
350,-1.015,-0.425,
351,-1.015,-0.425,
352,-1.015,-0.43,
353,-1.01,-0.435,
354,-1.0,-0.465,
355,-1.02,-0.455,
356,-1.035,-0.485,
357,-1.04,-0.465,
358,-1.035,-0.45,
359,-1.02,-0.445,
360,-1.01,-0.43,
361,-1.01,-0.415,
362,-1.01,-0.41,
363,-1.005,-0.405,
364,-1.01,-0.4,
365,-1.005,-0.42,
366,-1.015,-0.44,
367,-1.03,-0.455,
368,-1.025,-0.435,
369,-1.04,-0.445,
370,-1.035,-0.45,
371,-1.025,-0.435,
372,-1.025,-0.42,
373,-1.02,-0.415,
374,-0.995,-0.4,
375,-0.985,-0.42,
376,-0.99,-0.425,
377,-0.985,-0.42,
378,-1.005,-0.425,
379,-1.02,-0.43,
380,-1.025,-0.45,
381,-1.03,-0.455,
382,-1.03,-0.465,
383,-1.04,-0.45,
384,-1.015,-0.42,
385,-1.005,-0.43,
386,-1.0,-0.405,
387,-0.98,-0.41,
388,-0.995,-0.42,
389,-1.01,-0.42,
390,-1.03,-0.43,
391,-1.02,-0.44,
392,-1.035,-0.43,
393,-1.05,-0.435,
394,-1.06,-0.43,
395,-1.03,-0.425,
396,-1.025,-0.41,
397,-1.015,-0.415,
398,-1.015,-0.415,
399,-1.015,-0.4,
400,-1.015,-0.41,
401,-1.02,-0.42,
402,-1.02,-0.425,
403,-1.03,-0.42,
404,-1.03,-0.445,
405,-1.035,-0.46,
406,-1.04,-0.43,
407,-1.025,-0.425,
408,-1.025,-0.415,
409,-1.02,-0.41,
410,-0.99,-0.4,
411,-1.005,-0.415,
412,-0.99,-0.41,
413,-0.995,-0.405,
414,-1.01,-0.41,
415,-1.02,-0.42,
416,-1.025,-0.43,
417,-1.025,-0.43,
418,-1.03,-0.435,
419,-1.03,-0.42,
420,-1.03,-0.41,
421,-1.015,-0.41,
422,-1.0,-0.375,
423,-0.995,-0.385,
424,-1.0,-0.385,
425,-0.99,-0.4,
426,-0.995,-0.4,
427,-1.01,-0.415,
428,-1.005,-0.415,
429,-1.005,-0.415,
430,-1.01,-0.42,
431,-1.01,-0.42,
432,-1.01,-0.41,
433,-1.0,-0.405,
434,-0.98,-0.405,
435,-0.965,-0.405,
436,-0.99,-0.395,
437,-0.99,-0.405,
438,-0.99,-0.415,
439,-0.995,-0.425,
440,-1.015,-0.43,
441,-1.01,-0.43,
442,-1.01,-0.42,
443,-1.02,-0.405,
444,-1.005,-0.395,
445,-0.98,-0.38,
446,-0.99,-0.375,
447,-0.97,-0.37,
448,-0.97,-0.365,
449,-0.985,-0.38,
450,-1.005,-0.4,
451,-0.995,-0.4,
452,-1.02,-0.395,
453,-1.03,-0.415,
454,-1.025,-0.42,
455,-1.015,-0.41,
456,-1.01,-0.425,
457,-0.985,-0.395,
458,-0.985,-0.385,
459,-0.97,-0.38,
460,-0.96,-0.39,
461,-0.945,-0.395,
462,-0.96,-0.4,
463,-0.96,-0.405,
464,-0.96,-0.405,
465,-0.945,-0.41,
466,-0.945,-0.41,
467,-0.915,-0.41,
468,-0.9,-0.385,
469,-0.885,-0.365,
470,-0.895,-0.35,
471,-0.885,-0.335,
472,-0.895,-0.365,
473,-0.87,-0.365,
474,-0.845,-0.385,
475,-0.825,-0.385,
476,-0.81,-0.385,
477,-0.785,-0.375,
478,-0.785,-0.36,
479,-0.77,-0.345,
480,-0.78,-0.32,
481,-0.78,-0.305,
482,-0.78,-0.31,
483,-0.805,-0.32,
484,-0.82,-0.31,
485,-0.82,-0.305,
486,-0.83,-0.33,
487,-0.835,-0.34,
488,-0.84,-0.345,
489,-0.86,-0.355,
490,-0.86,-0.365,
491,-0.88,-0.335,
492,-0.91,-0.345,
493,-0.925,-0.34,
494,-0.95,-0.33,
495,-0.955,-0.345,
496,-0.985,-0.355,
497,-0.985,-0.38,
498,-0.995,-0.39,
499,-1.02,-0.39,
500,-1.03,-0.415,
501,-1.055,-0.405,
502,-1.06,-0.4,
503,-1.06,-0.4,
504,-1.045,-0.395,
505,-1.035,-0.37,
506,-1.04,-0.37,
507,-1.025,-0.365,
508,-1.025,-0.37,
509,-1.02,-0.385,
510,-1.035,-0.38,
511,-1.04,-0.4,
512,-1.07,-0.415,
513,-1.065,-0.4,
514,-1.07,-0.39,
515,-1.07,-0.385,
516,-1.06,-0.39,
517,-1.045,-0.385,
518,-1.035,-0.375,
519,-1.04,-0.38,
520,-1.05,-0.39,
521,-1.02,-0.39,
522,-1.02,-0.39,
523,-1.045,-0.405,
524,-1.02,-0.4,
525,-1.05,-0.4,
526,-1.035,-0.395,
527,-1.045,-0.385,
528,-1.02,-0.39,
529,-1.005,-0.37,
530,-1.005,-0.365,
531,-0.975,-0.355,
532,-0.985,-0.37,
533,-0.98,-0.37,
534,-0.98,-0.37,
535,-0.99,-0.375,
536,-0.99,-0.365,
537,-0.995,-0.345,
538,-0.995,-0.35,
539,-0.99,-0.315,
540,-0.975,-0.29,
541,-0.92,-0.24,
542,-0.82,-0.165,
543,-0.665,-0.06,
544,-0.43,0.095,
545,-0.16,0.265,
546,0.1,0.415,
547,0.37,0.525,
548,0.65,0.59,
549,0.895,0.605,
550,1.1,0.595,N
551,1.13,0.56,
552,0.97,0.465,
553,0.63,0.315,
554,0.155,0.11,
555,-0.415,-0.185,
556,-1.005,-0.52,
557,-1.455,-0.85,
558,-1.73,-1.08,
559,-1.805,-1.205,
560,-1.74,-1.205,
561,-1.585,-1.085,
562,-1.43,-0.925,
563,-1.315,-0.76,
564,-1.235,-0.64,
565,-1.19,-0.555,
566,-1.145,-0.495,
567,-1.1,-0.465,
568,-1.07,-0.45,
569,-1.035,-0.45,
570,-0.985,-0.445,
571,-0.985,-0.455,
572,-1.01,-0.425,
573,-1.025,-0.425,
574,-1.025,-0.41,
575,-1.035,-0.405,
576,-1.035,-0.38,
577,-1.02,-0.37,
578,-1.01,-0.36,
579,-0.985,-0.335,
580,-0.985,-0.345,
581,-0.985,-0.335,
582,-0.99,-0.36,
583,-0.995,-0.365,
584,-1.005,-0.37,
585,-1.03,-0.37,
586,-1.02,-0.355,
587,-1.02,-0.355,
588,-1.015,-0.34,
589,-1.005,-0.33,
590,-1.005,-0.31,
591,-1.005,-0.31,
592,-0.995,-0.31,
593,-0.995,-0.32,
594,-1.005,-0.325,
595,-1.02,-0.335,
596,-1.025,-0.355,
597,-1.03,-0.36,
598,-1.03,-0.36,
599,-1.015,-0.355,
600,-1.0,-0.345,
601,-0.98,-0.335,
602,-0.99,-0.32,
603,-0.985,-0.305,
604,-0.995,-0.315,
605,-0.985,-0.32,
606,-0.985,-0.31,
607,-1.005,-0.33,
608,-1.005,-0.32,
609,-1.02,-0.33,
610,-1.025,-0.325,
611,-1.015,-0.32,
612,-1.015,-0.305,
613,-1.0,-0.29,
614,-1.0,-0.285,
615,-1.0,-0.28,
616,-0.985,-0.29,
617,-0.965,-0.3,
618,-0.985,-0.31,
619,-0.995,-0.325,
620,-0.995,-0.31,
621,-0.985,-0.32,
622,-0.985,-0.305,
623,-0.985,-0.3,
624,-0.975,-0.295,
625,-0.96,-0.27,
626,-0.95,-0.27,
627,-0.94,-0.27,
628,-0.94,-0.29,
629,-0.935,-0.265,
630,-0.94,-0.275,
631,-0.93,-0.275,
632,-0.935,-0.275,
633,-0.93,-0.27,
634,-0.92,-0.25,
635,-0.915,-0.24,
636,-0.885,-0.225,
637,-0.895,-0.22,
638,-0.88,-0.205,
639,-0.865,-0.19,
640,-0.87,-0.19,
641,-0.835,-0.185,
642,-0.82,-0.195,
643,-0.82,-0.22,
644,-0.83,-0.205,
645,-0.815,-0.2,
646,-0.84,-0.19,
647,-0.805,-0.17,
648,-0.795,-0.16,
649,-0.755,-0.15,
650,-0.725,-0.135,
651,-0.71,-0.115,
652,-0.695,-0.13,
653,-0.675,-0.125,
654,-0.675,-0.12,
655,-0.68,-0.125,
656,-0.675,-0.13,
657,-0.68,-0.135,
658,-0.655,-0.11,
659,-0.64,-0.1,
660,-0.63,-0.07,
661,-0.61,-0.065,
662,-0.59,-0.055,
663,-0.575,-0.05,
664,-0.57,-0.06,
665,-0.57,-0.065,
666,-0.585,-0.08,
667,-0.595,-0.095,
668,-0.605,-0.11,
669,-0.635,-0.12,
670,-0.645,-0.115,
671,-0.65,-0.15,
672,-0.65,-0.135,
673,-0.65,-0.14,
674,-0.67,-0.13,
675,-0.68,-0.15,
676,-0.71,-0.19,
677,-0.705,-0.19,
678,-0.735,-0.215,
679,-0.765,-0.25,
680,-0.795,-0.27,
681,-0.82,-0.29,
682,-0.825,-0.29,
683,-0.845,-0.295,
684,-0.85,-0.31,
685,-0.86,-0.295,
686,-0.87,-0.295,
687,-0.88,-0.295,
688,-0.875,-0.32,
689,-0.88,-0.31,
690,-0.915,-0.33,
691,-0.925,-0.335,
692,-0.945,-0.355,
693,-0.945,-0.365,
694,-0.975,-0.38,
695,-0.97,-0.37,
696,-0.98,-0.365,
697,-0.965,-0.36,
698,-0.935,-0.35,
699,-0.93,-0.355,
700,-0.935,-0.375,
701,-0.94,-0.365,
702,-0.945,-0.38,
703,-0.945,-0.385,
704,-0.965,-0.4,
705,-0.985,-0.405,
706,-0.99,-0.385,
707,-0.98,-0.395,
708,-0.975,-0.4,
709,-0.96,-0.39,
710,-0.96,-0.385,
711,-0.945,-0.38,
712,-0.945,-0.39,
713,-0.945,-0.395,
714,-0.945,-0.405,
715,-0.96,-0.4,
716,-0.97,-0.405,
717,-0.97,-0.4,
718,-0.98,-0.385,
719,-0.97,-0.395,
720,-0.965,-0.39,
721,-0.945,-0.385,
722,-0.94,-0.37,
723,-0.925,-0.37,
724,-0.925,-0.36,
725,-0.925,-0.365,
726,-0.935,-0.395,
727,-0.95,-0.385,
728,-0.955,-0.395,
729,-0.965,-0.4,
730,-0.955,-0.395,
731,-0.955,-0.395,
732,-0.955,-0.39,
733,-0.95,-0.37,
734,-0.925,-0.38,
735,-0.92,-0.355,
736,-0.9,-0.36,
737,-0.92,-0.365,
738,-0.925,-0.395,
739,-0.925,-0.39,
740,-0.93,-0.405,
741,-0.93,-0.39,
742,-0.94,-0.38,
743,-0.92,-0.385,
744,-0.905,-0.375,
745,-0.9,-0.365,
746,-0.915,-0.33,
747,-0.9,-0.33,
748,-0.89,-0.335,
749,-0.885,-0.34,
750,-0.9,-0.355,
751,-0.905,-0.37,
752,-0.9,-0.375,
753,-0.905,-0.375,
754,-0.92,-0.37,
755,-0.925,-0.37,
756,-0.925,-0.355,
757,-0.915,-0.34,
758,-0.905,-0.33,
759,-0.895,-0.335,
760,-0.9,-0.34,
761,-0.895,-0.36,
762,-0.895,-0.37,
763,-0.9,-0.385,
764,-0.915,-0.4,
765,-0.92,-0.41,
766,-0.935,-0.4,
767,-0.94,-0.39,
768,-0.945,-0.39,
769,-0.935,-0.38,
770,-0.92,-0.37,
771,-0.92,-0.355,
772,-0.925,-0.375,
773,-0.92,-0.375,
774,-0.93,-0.385,
775,-0.935,-0.405,
776,-0.96,-0.42,
777,-0.96,-0.41,
778,-0.965,-0.4,
779,-0.945,-0.4,
780,-0.96,-0.39,
781,-0.95,-0.38,
782,-0.95,-0.375,
783,-0.955,-0.38,
784,-0.95,-0.385,
785,-0.94,-0.385,
786,-0.95,-0.405,
787,-0.97,-0.41,
788,-0.97,-0.44,
789,-0.98,-0.43,
790,-0.98,-0.425,
791,-0.98,-0.44,
792,-0.97,-0.435,
793,-0.965,-0.435,
794,-0.975,-0.405,
795,-0.965,-0.41,
796,-0.975,-0.415,
797,-0.965,-0.415,
798,-0.975,-0.43,
799,-0.98,-0.44,
800,-0.99,-0.47,
801,-1.0,-0.465,
802,-1.015,-0.46,
803,-1.01,-0.455,
804,-0.995,-0.44,
805,-0.975,-0.445,
806,-0.975,-0.425,
807,-0.965,-0.425,
808,-0.96,-0.425,
809,-0.97,-0.43,
810,-0.975,-0.445,
811,-0.97,-0.45,
812,-1.005,-0.465,
813,-0.995,-0.48,
814,-1.005,-0.47,
815,-1.0,-0.465,
816,-0.995,-0.475,
817,-0.97,-0.46,
818,-0.98,-0.445,
819,-0.965,-0.435,
820,-0.965,-0.44,
821,-0.965,-0.46,
822,-0.975,-0.455,
823,-0.99,-0.465,
824,-1.005,-0.465,
825,-1.01,-0.47,
826,-1.015,-0.45,
827,-1.015,-0.455,
828,-1.015,-0.44,
829,-0.985,-0.455,
830,-0.97,-0.45,
831,-0.98,-0.445,
832,-0.98,-0.455,
833,-0.965,-0.46,
834,-0.99,-0.465,
835,-0.985,-0.475,
836,-1.0,-0.48,
837,-1.005,-0.48,
838,-1.0,-0.485,
839,-1.0,-0.47,
840,-1.01,-0.46,
841,-1.005,-0.46,
842,-0.995,-0.47,
843,-0.99,-0.455,
844,-0.965,-0.465,
845,-0.97,-0.46,
846,-0.985,-0.475,
847,-0.98,-0.49,
848,-1.005,-0.49,
849,-1.005,-0.495,
850,-1.015,-0.5,
851,-1.01,-0.475,
852,-1.005,-0.465,
853,-1.0,-0.47,
854,-0.98,-0.435,
855,-0.985,-0.44,
856,-0.985,-0.455,
857,-0.975,-0.46,
858,-0.98,-0.47,
859,-0.99,-0.475,
860,-0.99,-0.475,
861,-0.995,-0.495,
862,-1.005,-0.49,
863,-1.01,-0.48,
864,-1.01,-0.47,
865,-0.995,-0.45,
866,-1.0,-0.47,
867,-0.98,-0.45,
868,-0.97,-0.465,
869,-0.965,-0.48,
870,-0.975,-0.465,
871,-0.995,-0.49,
872,-1.005,-0.51,
873,-1.0,-0.5,
874,-1.0,-0.505,
875,-1.005,-0.485,
876,-0.99,-0.48,
877,-0.985,-0.48,
878,-0.99,-0.46,
879,-0.97,-0.445,
880,-0.98,-0.445,
881,-0.98,-0.45,
882,-0.97,-0.47,
883,-0.995,-0.47,
884,-1.005,-0.475,
885,-0.995,-0.49,
886,-1.01,-0.49,
887,-1.0,-0.48,
888,-1.005,-0.47,
889,-0.995,-0.47,
890,-0.985,-0.445,
891,-0.965,-0.445,
892,-0.97,-0.445,
893,-0.96,-0.46,
894,-0.98,-0.47,
895,-0.985,-0.48,
896,-0.995,-0.48,
897,-1.005,-0.505,
898,-1.0,-0.505,
899,-1.0,-0.49,
900,-0.99,-0.48,
901,-0.975,-0.47,
902,-0.95,-0.47,
903,-0.95,-0.45,
904,-0.955,-0.465,
905,-0.965,-0.46,
906,-0.98,-0.46,
907,-0.98,-0.47,
908,-0.98,-0.48,
909,-0.985,-0.485,
910,-0.995,-0.485,
911,-0.99,-0.465,
912,-0.985,-0.465,
913,-0.96,-0.47,
914,-0.955,-0.46,
915,-0.95,-0.435,
916,-0.955,-0.445,
917,-0.965,-0.45,
918,-0.965,-0.46,
919,-0.965,-0.47,
920,-0.98,-0.485,
921,-0.97,-0.475,
922,-0.985,-0.49,
923,-0.985,-0.47,
924,-0.97,-0.475,
925,-0.96,-0.47,
926,-0.955,-0.455,
927,-0.94,-0.445,
928,-0.94,-0.455,
929,-0.945,-0.47,
930,-0.94,-0.465,
931,-0.95,-0.465,
932,-0.95,-0.48,
933,-0.96,-0.475,
934,-0.97,-0.47,
935,-0.955,-0.465,
936,-0.96,-0.46,
937,-0.93,-0.45,
938,-0.88,-0.44,
939,-0.855,-0.43,
940,-0.85,-0.44,
941,-0.85,-0.445,
942,-0.86,-0.45,
943,-0.875,-0.47,
944,-0.855,-0.465,
945,-0.84,-0.47,
946,-0.84,-0.475,
947,-0.81,-0.44,
948,-0.78,-0.43,
949,-0.745,-0.425,
950,-0.74,-0.395,
951,-0.72,-0.4,
952,-0.74,-0.4,
953,-0.75,-0.41,
954,-0.77,-0.42,
955,-0.795,-0.435,
956,-0.805,-0.435,
957,-0.83,-0.415,
958,-0.82,-0.415,
959,-0.815,-0.395,
960,-0.85,-0.385,
961,-0.82,-0.365,
962,-0.835,-0.375,
963,-0.835,-0.365,
964,-0.85,-0.39,
965,-0.895,-0.42,
966,-0.935,-0.43,
967,-0.965,-0.43,
968,-0.98,-0.465,
969,-1.0,-0.47,
970,-1.005,-0.465,
971,-1.015,-0.465,
972,-1.02,-0.46,
973,-1.025,-0.45,
974,-1.01,-0.465,
975,-1.0,-0.455,
976,-1.005,-0.465,
977,-1.0,-0.465,
978,-1.01,-0.47,
979,-1.005,-0.485,
980,-1.035,-0.5,
981,-1.03,-0.505,
982,-1.035,-0.485,
983,-1.04,-0.48,
984,-1.04,-0.47,
985,-1.035,-0.455,
986,-1.025,-0.44,
987,-1.0,-0.45,
988,-1.015,-0.44,
989,-0.995,-0.45,
990,-1.005,-0.45,
991,-1.025,-0.45,
992,-1.015,-0.475,
993,-1.02,-0.485,
994,-1.025,-0.465,
995,-1.02,-0.46,
996,-1.01,-0.465,
997,-1.0,-0.44,
998,-0.985,-0.43,
999,-0.965,-0.44,
1000,-0.97,-0.425,
1001,-0.97,-0.445,
1002,-0.965,-0.465,
1003,-0.975,-0.465,
1004,-0.98,-0.47,
1005,-0.97,-0.47,
1006,-0.97,-0.46,
1007,-0.955,-0.445,
1008,-0.93,-0.44,
1009,-0.915,-0.39,
1010,-0.9,-0.36,
1011,-0.87,-0.33,
1012,-0.795,-0.27,
1013,-0.69,-0.175,
1014,-0.5,-0.06,
1015,-0.29,0.1,
1016,-0.035,0.245,
1017,0.24,0.375,
1018,0.52,0.44,
1019,0.81,0.47,
1020,1.1,0.485,
1021,1.295,0.49,N
1022,1.32,0.48,
1023,1.17,0.415,
1024,0.825,0.31,
1025,0.32,0.12,
1026,-0.295,-0.16,
1027,-0.87,-0.5,
1028,-1.34,-0.835,
1029,-1.635,-1.115,
1030,-1.69,-1.23,
1031,-1.585,-1.185,
1032,-1.38,-1.035,
1033,-1.175,-0.85,
1034,-1.055,-0.675,
1035,-0.995,-0.585,
1036,-0.99,-0.525,
1037,-1.015,-0.52,
1038,-1.03,-0.535,
1039,-1.03,-0.53,
1040,-1.03,-0.535,
1041,-1.01,-0.52,
1042,-0.995,-0.495,
1043,-0.98,-0.46,
1044,-0.96,-0.445,
1045,-0.96,-0.43,
1046,-0.965,-0.415,
1047,-0.975,-0.43,
1048,-0.96,-0.415,
1049,-0.96,-0.44,
1050,-0.975,-0.46,
1051,-0.97,-0.435,
1052,-0.965,-0.455,
1053,-0.98,-0.445,
1054,-0.975,-0.45,
1055,-0.955,-0.43,
1056,-0.96,-0.435,
1057,-0.955,-0.425,
1058,-0.94,-0.415,
1059,-0.935,-0.42,
1060,-0.935,-0.415,
1061,-0.945,-0.425,
1062,-0.96,-0.42,
1063,-0.965,-0.43,
1064,-0.975,-0.445,
1065,-0.98,-0.435,
1066,-0.975,-0.425,
1067,-0.975,-0.41,
1068,-0.965,-0.41,
1069,-0.945,-0.395,
1070,-0.96,-0.4,
1071,-0.925,-0.405,
1072,-0.935,-0.405,
1073,-0.935,-0.415,
1074,-0.935,-0.405,
1075,-0.955,-0.405,
1076,-0.96,-0.415,
1077,-0.945,-0.415,
1078,-0.975,-0.415,
1079,-0.96,-0.405,
1080,-0.955,-0.375,
1081,-0.95,-0.385,
1082,-0.925,-0.355,
1083,-0.925,-0.375,
1084,-0.935,-0.38,
1085,-0.925,-0.405,
1086,-0.945,-0.375,
1087,-0.94,-0.4,
1088,-0.93,-0.395,
1089,-0.93,-0.4,
1090,-0.93,-0.395,
1091,-0.92,-0.37,
1092,-0.905,-0.385,
1093,-0.9,-0.345,
1094,-0.885,-0.35,
1095,-0.875,-0.335,
1096,-0.87,-0.33,
1097,-0.87,-0.335,
1098,-0.885,-0.325,
1099,-0.875,-0.34,
1100,-0.87,-0.345,
1101,-0.87,-0.33,
1102,-0.865,-0.34,
1103,-0.855,-0.315,
1104,-0.835,-0.295,
1105,-0.815,-0.29,
1106,-0.79,-0.27,
1107,-0.78,-0.255,
1108,-0.77,-0.265,
1109,-0.77,-0.275,
1110,-0.765,-0.275,
1111,-0.765,-0.29,
1112,-0.75,-0.275,
1113,-0.735,-0.265,
1114,-0.735,-0.245,
1115,-0.72,-0.235,
1116,-0.685,-0.225,
1117,-0.655,-0.2,
1118,-0.635,-0.175,
1119,-0.615,-0.155,
1120,-0.595,-0.16,
1121,-0.59,-0.165,
1122,-0.585,-0.14,
1123,-0.575,-0.16,
1124,-0.565,-0.155,
1125,-0.565,-0.15,
1126,-0.55,-0.12,
1127,-0.535,-0.125,
1128,-0.51,-0.095,
1129,-0.475,-0.085,
1130,-0.465,-0.075,
1131,-0.43,-0.09,
1132,-0.45,-0.075,
1133,-0.435,-0.07,
1134,-0.455,-0.095,
1135,-0.45,-0.095,
1136,-0.455,-0.12,
1137,-0.475,-0.115,
1138,-0.485,-0.12,
1139,-0.495,-0.115,
1140,-0.485,-0.12,
1141,-0.485,-0.14,
1142,-0.49,-0.155,
1143,-0.515,-0.16,
1144,-0.545,-0.17,
1145,-0.58,-0.185,
1146,-0.61,-0.22,
1147,-0.63,-0.265,
1148,-0.665,-0.275,
1149,-0.685,-0.285,
1150,-0.71,-0.29,
1151,-0.725,-0.295,
1152,-0.725,-0.31,
1153,-0.74,-0.32,
1154,-0.74,-0.325,
1155,-0.76,-0.33,
1156,-0.775,-0.355,
1157,-0.785,-0.37,
1158,-0.8,-0.395,
1159,-0.83,-0.41,
1160,-0.855,-0.415,
1161,-0.86,-0.425,
1162,-0.865,-0.425,
1163,-0.86,-0.43,
1164,-0.86,-0.42,
1165,-0.86,-0.425,
1166,-0.845,-0.41,
1167,-0.845,-0.43,
1168,-0.86,-0.43,
1169,-0.87,-0.45,
1170,-0.87,-0.45,
1171,-0.87,-0.47,
1172,-0.88,-0.47,
1173,-0.885,-0.47,
1174,-0.89,-0.465,
1175,-0.89,-0.445,
1176,-0.885,-0.425,
1177,-0.875,-0.425,
1178,-0.865,-0.425,
1179,-0.88,-0.435,
1180,-0.875,-0.435,
1181,-0.88,-0.44,
1182,-0.875,-0.455,
1183,-0.89,-0.455,
1184,-0.89,-0.465,
1185,-0.89,-0.465,
1186,-0.895,-0.45,
1187,-0.89,-0.455,
1188,-0.865,-0.445,
1189,-0.875,-0.44,
1190,-0.86,-0.43,
1191,-0.865,-0.455,
1192,-0.87,-0.435,
1193,-0.86,-0.44,
1194,-0.86,-0.465,
1195,-0.865,-0.47,
1196,-0.865,-0.465,
1197,-0.875,-0.475,
1198,-0.89,-0.46,
1199,-0.885,-0.445,
1200,-0.87,-0.44,
1201,-0.855,-0.44,
1202,-0.845,-0.415,
1203,-0.845,-0.425,
1204,-0.84,-0.415,
1205,-0.855,-0.42,
1206,-0.865,-0.44,
1207,-0.875,-0.46,
1208,-0.875,-0.45,
1209,-0.865,-0.45,
1210,-0.855,-0.45,
1211,-0.86,-0.435,
1212,-0.845,-0.43,
1213,-0.845,-0.41,
1214,-0.835,-0.4,
1215,-0.835,-0.41,
1216,-0.84,-0.405,
1217,-0.835,-0.42,
1218,-0.845,-0.44,
1219,-0.855,-0.445,
1220,-0.86,-0.46,
1221,-0.87,-0.46,
1222,-0.875,-0.455,
1223,-0.865,-0.44,
1224,-0.855,-0.425,
1225,-0.865,-0.425,
1226,-0.86,-0.405,
1227,-0.855,-0.42,
1228,-0.855,-0.415,
1229,-0.855,-0.43,
1230,-0.875,-0.435,
1231,-0.885,-0.44,
1232,-0.895,-0.455,
1233,-0.89,-0.445,
1234,-0.895,-0.445,
1235,-0.895,-0.44,
1236,-0.87,-0.43,
1237,-0.875,-0.41,
1238,-0.865,-0.415,
1239,-0.87,-0.42,
1240,-0.865,-0.415,
1241,-0.875,-0.435,
1242,-0.885,-0.455,
1243,-0.885,-0.465,
1244,-0.915,-0.48,
1245,-0.91,-0.485,
1246,-0.915,-0.47,
1247,-0.915,-0.475,
1248,-0.895,-0.475,
1249,-0.9,-0.45,
1250,-0.885,-0.455,
1251,-0.88,-0.455,
1252,-0.87,-0.455,
1253,-0.89,-0.455,
1254,-0.9,-0.485,
1255,-0.91,-0.49,
1256,-0.91,-0.485,
1257,-0.915,-0.5,
1258,-0.925,-0.505,
1259,-0.92,-0.485,
1260,-0.91,-0.46,
1261,-0.9,-0.445,
1262,-0.895,-0.44,
1263,-0.895,-0.45,
1264,-0.895,-0.455,
1265,-0.89,-0.46,
1266,-0.89,-0.455,
1267,-0.905,-0.46,
1268,-0.92,-0.485,
1269,-0.94,-0.48,
1270,-0.935,-0.48,
1271,-0.95,-0.465,
1272,-0.945,-0.475,
1273,-0.905,-0.455,
1274,-0.9,-0.45,
1275,-0.91,-0.47,
1276,-0.895,-0.465,
1277,-0.905,-0.475,
1278,-0.935,-0.475,
1279,-0.935,-0.5,
1280,-0.93,-0.5,
1281,-0.945,-0.495,
1282,-0.945,-0.475,
1283,-0.93,-0.47,
1284,-0.925,-0.46,
1285,-0.925,-0.455,
1286,-0.905,-0.45,
1287,-0.905,-0.445,
1288,-0.9,-0.455,
1289,-0.905,-0.45,
1290,-0.915,-0.46,
1291,-0.915,-0.47,
1292,-0.925,-0.465,
1293,-0.935,-0.49,
1294,-0.93,-0.475,
1295,-0.94,-0.455,
1296,-0.925,-0.47,
1297,-0.92,-0.465,
1298,-0.915,-0.465,
1299,-0.915,-0.47,
1300,-0.905,-0.465,
1301,-0.91,-0.475,
1302,-0.91,-0.485,
1303,-0.925,-0.49,
1304,-0.925,-0.505,
1305,-0.94,-0.485,
1306,-0.95,-0.49,
1307,-0.925,-0.485,
1308,-0.93,-0.47,
1309,-0.905,-0.465,
1310,-0.905,-0.455,
1311,-0.905,-0.455,
1312,-0.905,-0.465,
1313,-0.9,-0.46,
1314,-0.92,-0.455,
1315,-0.92,-0.47,
1316,-0.93,-0.47,
1317,-0.935,-0.46,
1318,-0.94,-0.465,
1319,-0.93,-0.465,
1320,-0.925,-0.46,
1321,-0.925,-0.46,
1322,-0.92,-0.455,
1323,-0.91,-0.45,
1324,-0.905,-0.45,
1325,-0.905,-0.46,
1326,-0.915,-0.47,
1327,-0.935,-0.475,
1328,-0.93,-0.505,
1329,-0.94,-0.48,
1330,-0.945,-0.495,
1331,-0.94,-0.485,
1332,-0.95,-0.47,
1333,-0.94,-0.465,
1334,-0.94,-0.455,
1335,-0.93,-0.47,
1336,-0.945,-0.45,
1337,-0.92,-0.47,
1338,-0.945,-0.475,
1339,-0.955,-0.48,
1340,-0.955,-0.49,
1341,-0.955,-0.485,
1342,-0.955,-0.47,
1343,-0.955,-0.465,
1344,-0.94,-0.47,
1345,-0.94,-0.455,
1346,-0.935,-0.445,
1347,-0.94,-0.445,
1348,-0.93,-0.455,
1349,-0.92,-0.465,
1350,-0.925,-0.46,
1351,-0.935,-0.485,
1352,-0.935,-0.495,
1353,-0.935,-0.48,
1354,-0.935,-0.495,
1355,-0.945,-0.465,
1356,-0.945,-0.465,
1357,-0.935,-0.47,
1358,-0.93,-0.45,
1359,-0.905,-0.475,
1360,-0.915,-0.465,
1361,-0.915,-0.48,
1362,-0.935,-0.5,
1363,-0.935,-0.51,
1364,-0.945,-0.5,
1365,-0.945,-0.505,
1366,-0.95,-0.49,
1367,-0.955,-0.465,
1368,-0.95,-0.485,
1369,-0.93,-0.455,
1370,-0.905,-0.45,
1371,-0.915,-0.445,
1372,-0.925,-0.455,
1373,-0.925,-0.46,
1374,-0.93,-0.47,
1375,-0.935,-0.475,
1376,-0.95,-0.485,
1377,-0.94,-0.485,
1378,-0.945,-0.49,
1379,-0.955,-0.465,
1380,-0.925,-0.46,
1381,-0.93,-0.46,
1382,-0.915,-0.435,
1383,-0.915,-0.45,
1384,-0.93,-0.46,
1385,-0.915,-0.49,
1386,-0.93,-0.47,
1387,-0.93,-0.51,
1388,-0.935,-0.505,
1389,-0.94,-0.495,
1390,-0.94,-0.51,
1391,-0.93,-0.48,
1392,-0.925,-0.48,
1393,-0.91,-0.45,
1394,-0.91,-0.445,
1395,-0.895,-0.435,
1396,-0.9,-0.44,
1397,-0.91,-0.47,
1398,-0.915,-0.455,
1399,-0.925,-0.465,
1400,-0.94,-0.485,
1401,-0.94,-0.48,
1402,-0.94,-0.47,
1403,-0.93,-0.46,
1404,-0.94,-0.47,
1405,-0.905,-0.44,
1406,-0.895,-0.435,
1407,-0.88,-0.45,
1408,-0.875,-0.46,
1409,-0.89,-0.46,
1410,-0.895,-0.475,
1411,-0.9,-0.48,
1412,-0.895,-0.485,
1413,-0.885,-0.475,
1414,-0.855,-0.48,
1415,-0.835,-0.475,
1416,-0.82,-0.455,
1417,-0.81,-0.46,
1418,-0.795,-0.45,
1419,-0.79,-0.445,
1420,-0.79,-0.435,
1421,-0.785,-0.45,
1422,-0.77,-0.435,
1423,-0.755,-0.45,
1424,-0.73,-0.435,
1425,-0.71,-0.435,
1426,-0.705,-0.41,
1427,-0.695,-0.41,
1428,-0.685,-0.4,
1429,-0.69,-0.38,
1430,-0.695,-0.37,
1431,-0.695,-0.38,
1432,-0.72,-0.375,
1433,-0.735,-0.395,
1434,-0.75,-0.39,
1435,-0.75,-0.405,
1436,-0.765,-0.395,
1437,-0.755,-0.39,
1438,-0.765,-0.375,
1439,-0.77,-0.39,
1440,-0.785,-0.365,
1441,-0.81,-0.395,
1442,-0.84,-0.39,
1443,-0.865,-0.405,
1444,-0.87,-0.42,
1445,-0.895,-0.435,
1446,-0.92,-0.45,
1447,-0.93,-0.47,
1448,-0.94,-0.47,
1449,-0.955,-0.47,
1450,-0.97,-0.465,
1451,-0.97,-0.46,
1452,-0.97,-0.455,
1453,-0.97,-0.425,
1454,-0.95,-0.445,
1455,-0.935,-0.435,
1456,-0.95,-0.445,
1457,-0.95,-0.445,
1458,-0.96,-0.445,
1459,-0.975,-0.47,
1460,-0.98,-0.455,
1461,-0.99,-0.485,
1462,-0.995,-0.45,
1463,-0.975,-0.46,
1464,-0.985,-0.455,
1465,-0.965,-0.455,
1466,-0.95,-0.435,
1467,-0.94,-0.435,
1468,-0.945,-0.455,
1469,-0.955,-0.46,
1470,-0.95,-0.465,
1471,-0.97,-0.47,
1472,-0.975,-0.47,
1473,-0.97,-0.485,
1474,-0.965,-0.46,
1475,-0.985,-0.45,
1476,-0.955,-0.455,
1477,-0.95,-0.44,
1478,-0.945,-0.42,
1479,-0.935,-0.43,
1480,-0.925,-0.41,
1481,-0.92,-0.43,
1482,-0.93,-0.435,
1483,-0.92,-0.44,
1484,-0.91,-0.45,
1485,-0.915,-0.44,
1486,-0.915,-0.425,
1487,-0.905,-0.405,
1488,-0.875,-0.38,
1489,-0.84,-0.36,
1490,-0.805,-0.3,
1491,-0.705,-0.215,
1492,-0.545,-0.1,
1493,-0.32,0.05,
1494,-0.025,0.245,
1495,0.265,0.365,
1496,0.58,0.45,
1497,0.895,0.51,
1498,1.18,0.53,N
1499,1.315,0.52,
1500,1.26,0.47,
1501,0.99,0.35,
1502,0.53,0.19,
1503,-0.075,-0.085,
1504,-0.71,-0.43,
1505,-1.22,-0.775,
1506,-1.555,-1.065,
1507,-1.655,-1.215,
1508,-1.57,-1.2,
1509,-1.4,-1.085,
1510,-1.21,-0.895,
1511,-1.095,-0.73,
1512,-1.035,-0.61,
1513,-1.01,-0.555,
1514,-1.01,-0.515,
1515,-1.01,-0.52,
1516,-0.985,-0.52,
1517,-0.965,-0.52,
1518,-0.93,-0.51,
1519,-0.925,-0.505,
1520,-0.94,-0.49,
1521,-0.945,-0.495,
1522,-0.96,-0.485,
1523,-0.965,-0.475,
1524,-0.955,-0.465,
1525,-0.935,-0.44,
1526,-0.925,-0.455,
1527,-0.935,-0.43,
1528,-0.92,-0.43,
1529,-0.93,-0.425,
1530,-0.935,-0.435,
1531,-0.93,-0.435,
1532,-0.935,-0.45,
1533,-0.95,-0.44,
1534,-0.945,-0.44,
1535,-0.935,-0.425,
1536,-0.945,-0.435,
1537,-0.935,-0.41,
1538,-0.93,-0.395,
1539,-0.92,-0.39,
1540,-0.925,-0.375,
1541,-0.91,-0.395,
1542,-0.925,-0.39,
1543,-0.94,-0.415,
1544,-0.93,-0.425,
1545,-0.945,-0.42,
1546,-0.945,-0.425,
1547,-0.945,-0.42,
1548,-0.935,-0.425,
1549,-0.92,-0.405,
1550,-0.92,-0.39,
1551,-0.91,-0.4,
1552,-0.91,-0.385,
1553,-0.91,-0.4,
1554,-0.925,-0.405,
1555,-0.94,-0.405,
1556,-0.95,-0.405,
1557,-0.96,-0.405,
1558,-0.95,-0.4,
1559,-0.92,-0.385,
1560,-0.92,-0.37,
1561,-0.91,-0.38,
1562,-0.885,-0.36,
1563,-0.875,-0.355,
1564,-0.88,-0.37,
1565,-0.885,-0.37,
1566,-0.885,-0.38,
1567,-0.895,-0.395,
1568,-0.89,-0.385,
1569,-0.9,-0.39,
1570,-0.895,-0.38,
1571,-0.88,-0.36,
1572,-0.885,-0.35,
1573,-0.865,-0.35,
1574,-0.855,-0.345,
1575,-0.845,-0.345,
1576,-0.835,-0.345,
1577,-0.835,-0.36,
1578,-0.84,-0.34,
1579,-0.82,-0.345,
1580,-0.81,-0.355,
1581,-0.82,-0.34,
1582,-0.81,-0.315,
1583,-0.8,-0.305,
1584,-0.785,-0.29,
1585,-0.77,-0.285,
1586,-0.755,-0.255,
1587,-0.73,-0.265,
1588,-0.72,-0.255,
1589,-0.7,-0.24,
1590,-0.69,-0.245,
1591,-0.685,-0.255,
1592,-0.685,-0.25,
1593,-0.675,-0.235,
1594,-0.67,-0.23,
1595,-0.645,-0.21,
1596,-0.64,-0.19,
1597,-0.62,-0.165,
1598,-0.595,-0.165,
1599,-0.575,-0.165,
1600,-0.555,-0.15,
1601,-0.53,-0.15,
1602,-0.545,-0.155,
1603,-0.53,-0.16,
1604,-0.52,-0.16,
1605,-0.53,-0.17,
1606,-0.52,-0.145,
1607,-0.495,-0.13,
1608,-0.48,-0.12,
1609,-0.46,-0.115,
1610,-0.455,-0.105,
1611,-0.455,-0.105,
1612,-0.425,-0.085,
1613,-0.42,-0.105,
1614,-0.425,-0.11,
1615,-0.45,-0.13,
1616,-0.465,-0.14,
1617,-0.47,-0.15,
1618,-0.49,-0.145,
1619,-0.495,-0.145,
1620,-0.535,-0.155,
1621,-0.545,-0.16,
1622,-0.555,-0.16,
1623,-0.545,-0.18,
1624,-0.57,-0.195,
1625,-0.59,-0.23,
1626,-0.64,-0.25,
1627,-0.67,-0.275,
1628,-0.7,-0.32,
1629,-0.72,-0.33,
1630,-0.735,-0.335,
1631,-0.75,-0.36,
1632,-0.77,-0.36,
1633,-0.8,-0.375,
1634,-0.805,-0.375,
1635,-0.8,-0.39,
1636,-0.81,-0.385,
1637,-0.825,-0.39,
1638,-0.84,-0.405,
1639,-0.845,-0.42,
1640,-0.865,-0.415,
1641,-0.88,-0.42,
1642,-0.89,-0.435,
1643,-0.9,-0.43,
1644,-0.895,-0.43,
1645,-0.9,-0.415,
1646,-0.88,-0.42,
1647,-0.875,-0.425,
1648,-0.885,-0.425,
1649,-0.895,-0.44,
1650,-0.895,-0.435,
1651,-0.91,-0.435,
1652,-0.915,-0.46,
1653,-0.925,-0.46,
1654,-0.925,-0.455,
1655,-0.92,-0.455,
1656,-0.915,-0.455,
1657,-0.905,-0.455,
1658,-0.9,-0.45,
1659,-0.88,-0.44,
1660,-0.88,-0.445,
1661,-0.885,-0.455,
1662,-0.88,-0.45,
1663,-0.9,-0.455,
1664,-0.91,-0.475,
1665,-0.915,-0.47,
1666,-0.925,-0.475,
1667,-0.915,-0.45,
1668,-0.915,-0.455,
1669,-0.895,-0.415,
1670,-0.895,-0.415,
1671,-0.875,-0.41,
1672,-0.87,-0.41,
1673,-0.875,-0.42,
1674,-0.88,-0.435,
1675,-0.9,-0.445,
1676,-0.91,-0.46,
1677,-0.9,-0.455,
1678,-0.9,-0.455,
1679,-0.9,-0.445,
1680,-0.89,-0.445,
1681,-0.885,-0.455,
1682,-0.895,-0.44,
1683,-0.865,-0.43,
1684,-0.86,-0.42,
1685,-0.87,-0.42,
1686,-0.865,-0.425,
1687,-0.88,-0.435,
1688,-0.89,-0.445,
1689,-0.9,-0.45,
1690,-0.9,-0.44,
1691,-0.9,-0.435,
1692,-0.89,-0.43,
1693,-0.88,-0.41,
1694,-0.865,-0.395,
1695,-0.875,-0.405,
1696,-0.875,-0.4,
1697,-0.865,-0.41,
1698,-0.875,-0.41,
1699,-0.89,-0.435,
1700,-0.905,-0.43,
1701,-0.89,-0.435,
1702,-0.9,-0.44,
1703,-0.905,-0.425,
1704,-0.9,-0.43,
1705,-0.905,-0.415,
1706,-0.895,-0.405,
1707,-0.9,-0.405,
1708,-0.9,-0.415,
1709,-0.9,-0.435,
1710,-0.91,-0.44,
1711,-0.92,-0.445,
1712,-0.915,-0.46,
1713,-0.94,-0.45,
1714,-0.945,-0.475,
1715,-0.955,-0.465,
1716,-0.95,-0.455,
1717,-0.935,-0.445,
1718,-0.93,-0.425,
1719,-0.91,-0.435,
1720,-0.91,-0.43,
1721,-0.925,-0.43,
1722,-0.945,-0.44,
1723,-0.96,-0.45,
1724,-0.955,-0.455,
1725,-0.955,-0.455,
1726,-0.96,-0.46,
1727,-0.965,-0.45,
1728,-0.95,-0.445,
1729,-0.955,-0.435,
1730,-0.935,-0.405,
1731,-0.945,-0.425,
1732,-0.925,-0.435,
1733,-0.92,-0.44,
1734,-0.925,-0.46,
1735,-0.935,-0.465,
1736,-0.95,-0.475,
1737,-0.955,-0.475,
1738,-0.96,-0.47,
1739,-0.965,-0.47,
1740,-0.955,-0.455,
1741,-0.945,-0.465,
1742,-0.93,-0.435,
1743,-0.915,-0.43,
1744,-0.92,-0.425,
1745,-0.935,-0.45,
1746,-0.945,-0.46,
1747,-0.955,-0.47,
1748,-0.97,-0.47,
1749,-0.975,-0.47,
1750,-0.965,-0.485,
1751,-0.955,-0.47,
1752,-0.94,-0.45,
1753,-0.95,-0.445,
1754,-0.945,-0.425,
1755,-0.935,-0.43,
1756,-0.935,-0.43,
1757,-0.935,-0.435,
1758,-0.96,-0.465,
1759,-0.96,-0.48,
1760,-0.955,-0.475,
1761,-0.97,-0.465,
1762,-0.965,-0.465,
1763,-0.96,-0.47,
1764,-0.96,-0.47,
1765,-0.95,-0.455,
1766,-0.945,-0.465,
1767,-0.925,-0.46,
1768,-0.93,-0.45,
1769,-0.91,-0.455,
1770,-0.925,-0.47,
1771,-0.94,-0.48,
1772,-0.94,-0.48,
1773,-0.96,-0.475,
1774,-0.96,-0.47,
1775,-0.955,-0.47,
1776,-0.95,-0.46,
1777,-0.95,-0.47,
1778,-0.94,-0.445,
1779,-0.935,-0.44,
1780,-0.935,-0.44,
1781,-0.93,-0.45,
1782,-0.935,-0.46,
1783,-0.93,-0.46,
1784,-0.945,-0.475,
1785,-0.94,-0.475,
1786,-0.95,-0.475,
1787,-0.95,-0.48,
1788,-0.95,-0.48,
1789,-0.945,-0.465,
1790,-0.925,-0.465,
1791,-0.925,-0.445,
1792,-0.925,-0.455,
1793,-0.93,-0.46,
1794,-0.945,-0.46,
1795,-0.95,-0.47,
1796,-0.955,-0.48,
1797,-0.955,-0.49,
1798,-0.96,-0.485,
1799,-0.955,-0.475,
1800,-0.955,-0.465,
1801,-0.935,-0.44,
1802,-0.93,-0.44,
1803,-0.92,-0.44,
1804,-0.905,-0.44,
1805,-0.905,-0.435,
1806,-0.915,-0.445,
1807,-0.93,-0.455,
1808,-0.95,-0.465,
1809,-0.975,-0.475,
1810,-0.96,-0.465,
1811,-0.955,-0.47,
1812,-0.96,-0.44,
1813,-0.94,-0.44,
1814,-0.92,-0.42,
1815,-0.905,-0.42,
1816,-0.91,-0.435,
1817,-0.895,-0.44,
1818,-0.92,-0.445,
1819,-0.935,-0.46,
1820,-0.95,-0.48,
1821,-0.94,-0.475,
1822,-0.94,-0.485,
1823,-0.955,-0.465,
1824,-0.94,-0.45,
1825,-0.925,-0.45,
1826,-0.91,-0.445,
1827,-0.915,-0.44,
1828,-0.92,-0.43,
1829,-0.92,-0.425,
1830,-0.93,-0.43,
1831,-0.925,-0.45,
1832,-0.93,-0.455,
1833,-0.93,-0.46,
1834,-0.93,-0.455,
1835,-0.915,-0.445,
1836,-0.92,-0.455,
1837,-0.92,-0.42,
1838,-0.88,-0.405,
1839,-0.865,-0.425,
1840,-0.845,-0.425,
1841,-0.825,-0.43,
1842,-0.81,-0.435,
1843,-0.825,-0.455,
1844,-0.83,-0.45,
1845,-0.825,-0.465,
1846,-0.825,-0.475,
1847,-0.82,-0.47,
1848,-0.8,-0.46,
1849,-0.78,-0.43,
1850,-0.73,-0.415,
1851,-0.695,-0.39,
1852,-0.68,-0.405,
1853,-0.675,-0.38,
1854,-0.67,-0.385,
1855,-0.69,-0.39,
1856,-0.71,-0.4,
1857,-0.74,-0.405,
1858,-0.76,-0.395,
1859,-0.79,-0.395,
1860,-0.77,-0.36,
1861,-0.76,-0.365,
1862,-0.74,-0.355,
1863,-0.735,-0.335,
1864,-0.745,-0.345,
1865,-0.77,-0.365,
1866,-0.8,-0.355,
1867,-0.855,-0.385,
1868,-0.895,-0.425,
1869,-0.925,-0.44,
1870,-0.94,-0.435,
1871,-0.94,-0.435,
1872,-0.945,-0.43,
1873,-0.935,-0.42,
1874,-0.945,-0.425,
1875,-0.945,-0.425,
1876,-0.95,-0.425,
1877,-0.96,-0.43,
1878,-0.97,-0.455,
1879,-0.97,-0.465,
1880,-0.985,-0.475,
1881,-0.995,-0.47,
1882,-1.01,-0.46,
1883,-0.995,-0.44,
1884,-1.005,-0.43,
1885,-0.99,-0.42,
1886,-0.985,-0.415,
1887,-0.955,-0.42,
1888,-0.955,-0.42,
1889,-0.955,-0.415,
1890,-0.97,-0.405,
1891,-0.98,-0.415,
1892,-0.995,-0.42,
1893,-0.99,-0.445,
1894,-0.995,-0.46,
1895,-1.005,-0.44,
1896,-0.985,-0.44,
1897,-0.975,-0.44,
1898,-0.955,-0.42,
1899,-0.95,-0.415,
1900,-0.935,-0.42,
1901,-0.955,-0.43,
1902,-0.945,-0.425,
1903,-0.95,-0.43,
1904,-0.955,-0.44,
1905,-0.945,-0.45,
1906,-0.965,-0.445,
1907,-0.95,-0.435,
1908,-0.93,-0.43,
1909,-0.92,-0.405,
1910,-0.895,-0.39,
1911,-0.89,-0.385,
1912,-0.87,-0.4,
1913,-0.86,-0.38,
1914,-0.86,-0.365,
1915,-0.87,-0.355,
1916,-0.875,-0.335,
1917,-0.82,-0.285,
1918,-0.685,-0.185,
1919,-0.48,-0.03,
1920,-0.19,0.18,
1921,0.11,0.355,
1922,0.425,0.51,
1923,0.75,0.6,
1924,1.06,0.625,
1925,1.285,0.62,N
1926,1.31,0.545,
1927,1.13,0.41,
1928,0.745,0.23,
1929,0.18,-0.005,
1930,-0.46,-0.315,
1931,-1.07,-0.655,
1932,-1.52,-0.985,
1933,-1.75,-1.215,
1934,-1.78,-1.3,
1935,-1.665,-1.26,
1936,-1.49,-1.115,
1937,-1.325,-0.95,
1938,-1.22,-0.815,
1939,-1.165,-0.705,
1940,-1.125,-0.63,
1941,-1.1,-0.58,
1942,-1.06,-0.55,
1943,-1.03,-0.505,
1944,-0.99,-0.505,
1945,-0.955,-0.47,
1946,-0.93,-0.45,
1947,-0.93,-0.455,
1948,-0.94,-0.45,
1949,-0.935,-0.44,
1950,-0.94,-0.445,
1951,-0.945,-0.425,
1952,-0.94,-0.425,
1953,-0.95,-0.44,
1954,-0.955,-0.425,
1955,-0.955,-0.425,
1956,-0.97,-0.415,
1957,-0.965,-0.395,
1958,-0.94,-0.385,
1959,-0.935,-0.37,
1960,-0.935,-0.39,
1961,-0.905,-0.385,
1962,-0.91,-0.395,
1963,-0.935,-0.41,
1964,-0.935,-0.415,
1965,-0.945,-0.4,
1966,-0.95,-0.4,
1967,-0.95,-0.39,
1968,-0.945,-0.38,
1969,-0.93,-0.35,
1970,-0.92,-0.345,
1971,-0.92,-0.335,
1972,-0.915,-0.36,
1973,-0.905,-0.35,
1974,-0.905,-0.375,
1975,-0.935,-0.385,
1976,-0.94,-0.38,
1977,-0.955,-0.39,
1978,-0.96,-0.395,
1979,-0.955,-0.395,
1980,-0.945,-0.385,
1981,-0.93,-0.385,
1982,-0.935,-0.37,
1983,-0.91,-0.355,
1984,-0.9,-0.355,
1985,-0.9,-0.365,
1986,-0.915,-0.36,
1987,-0.925,-0.355,
1988,-0.93,-0.37,
1989,-0.96,-0.365,
1990,-0.955,-0.355,
1991,-0.94,-0.355,
1992,-0.94,-0.36,
1993,-0.915,-0.35,
1994,-0.91,-0.335,
1995,-0.9,-0.33,
1996,-0.875,-0.33,
1997,-0.87,-0.33,
1998,-0.875,-0.345,
1999,-0.87,-0.335,
2000,-0.885,-0.34,
2001,-0.885,-0.33,
2002,-0.885,-0.34,
2003,-0.875,-0.335,
2004,-0.865,-0.31,
2005,-0.85,-0.305,
2006,-0.835,-0.29,
2007,-0.785,-0.285,
2008,-0.77,-0.285,
2009,-0.765,-0.275,
2010,-0.775,-0.275,
2011,-0.775,-0.27,
2012,-0.775,-0.275,
2013,-0.77,-0.25,
2014,-0.76,-0.23,
2015,-0.755,-0.225,
2016,-0.745,-0.21,
2017,-0.705,-0.19,
2018,-0.685,-0.165,
2019,-0.65,-0.155,
2020,-0.645,-0.16,
2021,-0.63,-0.16,
2022,-0.635,-0.16,
2023,-0.625,-0.15,
2024,-0.63,-0.16,
2025,-0.61,-0.155,
2026,-0.605,-0.14,
2027,-0.59,-0.135,
2028,-0.57,-0.115,
2029,-0.55,-0.105,
2030,-0.53,-0.095,
2031,-0.495,-0.105,
2032,-0.48,-0.11,
2033,-0.48,-0.095,
2034,-0.47,-0.105,
2035,-0.47,-0.12,
2036,-0.49,-0.12,
2037,-0.495,-0.13,
2038,-0.505,-0.125,
2039,-0.5,-0.11,
2040,-0.515,-0.1,
2041,-0.505,-0.1,
2042,-0.49,-0.105,
2043,-0.5,-0.1,
2044,-0.52,-0.125,
2045,-0.56,-0.13,
2046,-0.57,-0.16,
2047,-0.61,-0.18,
2048,-0.64,-0.24,
2049,-0.65,-0.24,
2050,-0.675,-0.26,
2051,-0.71,-0.285,
2052,-0.705,-0.275,
2053,-0.72,-0.285,
2054,-0.75,-0.285,
2055,-0.75,-0.28,
2056,-0.76,-0.305,
2057,-0.775,-0.33,
2058,-0.79,-0.345,
2059,-0.81,-0.36,
2060,-0.835,-0.385,
2061,-0.86,-0.375,
2062,-0.865,-0.395,
2063,-0.87,-0.395,
2064,-0.885,-0.39,
2065,-0.86,-0.385,
2066,-0.86,-0.39,
2067,-0.85,-0.385,
2068,-0.845,-0.38,
2069,-0.85,-0.39,
2070,-0.87,-0.385,
2071,-0.88,-0.4,
2072,-0.885,-0.415,
2073,-0.895,-0.42,
2074,-0.905,-0.42,
2075,-0.895,-0.4,
2076,-0.885,-0.395,
2077,-0.875,-0.385,
2078,-0.87,-0.385,
2079,-0.865,-0.38,
2080,-0.87,-0.375,
2081,-0.865,-0.39,
2082,-0.87,-0.405,
2083,-0.885,-0.41,
2084,-0.885,-0.425,
2085,-0.9,-0.43,
2086,-0.9,-0.42,
2087,-0.885,-0.445,
2088,-0.88,-0.42,
2089,-0.885,-0.42,
2090,-0.88,-0.4,
2091,-0.875,-0.395,
2092,-0.87,-0.395,
2093,-0.88,-0.39,
2094,-0.865,-0.39,
2095,-0.855,-0.395,
2096,-0.85,-0.385,
2097,-0.88,-0.395,
2098,-0.88,-0.395,
2099,-0.865,-0.395,
2100,-0.865,-0.39,
2101,-0.835,-0.37,
2102,-0.845,-0.36,
2103,-0.83,-0.36,
2104,-0.815,-0.36,
2105,-0.825,-0.365,
2106,-0.82,-0.355,
2107,-0.84,-0.385,
2108,-0.835,-0.375,
2109,-0.84,-0.41,
2110,-0.84,-0.375,
2111,-0.85,-0.4,
2112,-0.85,-0.385,
2113,-0.845,-0.375,
2114,-0.815,-0.375,
2115,-0.82,-0.365,
2116,-0.81,-0.37,
2117,-0.82,-0.36,
2118,-0.83,-0.36,
2119,-0.835,-0.385,
2120,-0.85,-0.38,
2121,-0.855,-0.405,
2122,-0.855,-0.395,
2123,-0.86,-0.39,
2124,-0.845,-0.38,
2125,-0.84,-0.38,
2126,-0.82,-0.355,
2127,-0.82,-0.345,
2128,-0.82,-0.365,
2129,-0.815,-0.375,
2130,-0.825,-0.37,
2131,-0.85,-0.39,
2132,-0.845,-0.4,
2133,-0.87,-0.41,
2134,-0.875,-0.395,
2135,-0.885,-0.395,
2136,-0.87,-0.4,
2137,-0.85,-0.4,
2138,-0.86,-0.38,
2139,-0.845,-0.385,
2140,-0.83,-0.38,
2141,-0.83,-0.395,
2142,-0.84,-0.42,
2143,-0.86,-0.425,
2144,-0.87,-0.445,
2145,-0.88,-0.45,
2146,-0.88,-0.435,
2147,-0.875,-0.435,
2148,-0.88,-0.43,
2149,-0.87,-0.425,
2150,-0.865,-0.4,
2151,-0.86,-0.395,
2152,-0.88,-0.415,
2153,-0.865,-0.405,
2154,-0.865,-0.415,
2155,-0.875,-0.43,
2156,-0.89,-0.43,
2157,-0.89,-0.44,
2158,-0.91,-0.435,
2159,-0.895,-0.435,
2160,-0.9,-0.43,
2161,-0.875,-0.425,
2162,-0.88,-0.43,
2163,-0.87,-0.425,
2164,-0.88,-0.425,
2165,-0.865,-0.425,
2166,-0.865,-0.425,
2167,-0.885,-0.44,
2168,-0.89,-0.46,
2169,-0.89,-0.46,
2170,-0.9,-0.47,
2171,-0.9,-0.47,
2172,-0.885,-0.45,
2173,-0.9,-0.46,
2174,-0.895,-0.455,
2175,-0.89,-0.445,
2176,-0.875,-0.455,
2177,-0.895,-0.465,
2178,-0.895,-0.46,
2179,-0.9,-0.455,
2180,-0.905,-0.47,
2181,-0.905,-0.475,
2182,-0.905,-0.475,
2183,-0.905,-0.46,
2184,-0.91,-0.45,
2185,-0.895,-0.45,
2186,-0.885,-0.46,
2187,-0.88,-0.435,
2188,-0.895,-0.455,
2189,-0.88,-0.45,
2190,-0.885,-0.465,
2191,-0.88,-0.455,
2192,-0.885,-0.47,
2193,-0.89,-0.475,
2194,-0.9,-0.485,
2195,-0.885,-0.47,
2196,-0.915,-0.475,
2197,-0.905,-0.46,
2198,-0.905,-0.45,
2199,-0.875,-0.455,
2200,-0.88,-0.48,
2201,-0.89,-0.475,
2202,-0.88,-0.485,
2203,-0.9,-0.5,
2204,-0.895,-0.51,
2205,-0.91,-0.495,
2206,-0.925,-0.495,
2207,-0.925,-0.48,
2208,-0.91,-0.47,
2209,-0.89,-0.47,
2210,-0.895,-0.465,
2211,-0.87,-0.46,
2212,-0.88,-0.47,
2213,-0.87,-0.475,
2214,-0.88,-0.485,
2215,-0.885,-0.48,
2216,-0.885,-0.49,
2217,-0.905,-0.495,
2218,-0.905,-0.5,
2219,-0.915,-0.495,
2220,-0.895,-0.48,
2221,-0.89,-0.475,
2222,-0.88,-0.47,
2223,-0.89,-0.475,
2224,-0.875,-0.485,
2225,-0.88,-0.475,
2226,-0.88,-0.505,
2227,-0.875,-0.505,
2228,-0.895,-0.52,
2229,-0.9,-0.52,
2230,-0.905,-0.52,
2231,-0.9,-0.52,
2232,-0.91,-0.505,
2233,-0.9,-0.485,
2234,-0.895,-0.485,
2235,-0.875,-0.47,
2236,-0.87,-0.495,
2237,-0.875,-0.485,
2238,-0.885,-0.49,
2239,-0.895,-0.5,
2240,-0.895,-0.51,
2241,-0.895,-0.5,
2242,-0.905,-0.515,
2243,-0.9,-0.52,
2244,-0.9,-0.495,
2245,-0.885,-0.49,
2246,-0.875,-0.475,
2247,-0.86,-0.475,
2248,-0.835,-0.485,
2249,-0.82,-0.485,
2250,-0.815,-0.505,
2251,-0.825,-0.51,
2252,-0.815,-0.52,
2253,-0.815,-0.52,
2254,-0.815,-0.515,
2255,-0.8,-0.52,
2256,-0.805,-0.49,
2257,-0.795,-0.5,
2258,-0.785,-0.505,
2259,-0.75,-0.485,
2260,-0.715,-0.485,
2261,-0.705,-0.465,
2262,-0.67,-0.47,
2263,-0.675,-0.47,
2264,-0.69,-0.46,
2265,-0.685,-0.465,
2266,-0.695,-0.485,
2267,-0.74,-0.455,
2268,-0.72,-0.47,
2269,-0.725,-0.435,
2270,-0.71,-0.43,
2271,-0.715,-0.425,
2272,-0.71,-0.415,
2273,-0.735,-0.4,
2274,-0.735,-0.415,
2275,-0.76,-0.42,
2276,-0.765,-0.445,
2277,-0.8,-0.455,
2278,-0.83,-0.465,
2279,-0.88,-0.48,
2280,-0.905,-0.48,
2281,-0.91,-0.49,
2282,-0.93,-0.5,
2283,-0.91,-0.5,
2284,-0.915,-0.495,
2285,-0.92,-0.51,
2286,-0.93,-0.515,
2287,-0.945,-0.535,
2288,-0.955,-0.54,
2289,-0.975,-0.55,
2290,-0.975,-0.535,
2291,-0.975,-0.535,
2292,-0.97,-0.515,
2293,-0.965,-0.52,
2294,-0.975,-0.495,
2295,-0.97,-0.495,
2296,-0.95,-0.495,
2297,-0.965,-0.515,
2298,-0.975,-0.51,
2299,-0.99,-0.535,
2300,-1.005,-0.54,
2301,-1.0,-0.55,
2302,-1.01,-0.535,
2303,-1.005,-0.52,
2304,-0.985,-0.52,
2305,-0.99,-0.525,
2306,-0.965,-0.505,
2307,-0.955,-0.515,
2308,-0.95,-0.52,
2309,-0.945,-0.52,
2310,-0.955,-0.53,
2311,-0.955,-0.53,
2312,-0.96,-0.545,
2313,-0.97,-0.545,
2314,-0.965,-0.555,
2315,-0.96,-0.54,
2316,-0.94,-0.54,
2317,-0.96,-0.525,
2318,-0.925,-0.515,
2319,-0.925,-0.505,
2320,-0.92,-0.505,
2321,-0.935,-0.51,
2322,-0.92,-0.495,
2323,-0.925,-0.515,
2324,-0.92,-0.525,
2325,-0.94,-0.51,
2326,-0.925,-0.51,
2327,-0.905,-0.51,
2328,-0.88,-0.475,
2329,-0.84,-0.44,
2330,-0.81,-0.415,
2331,-0.735,-0.34,
2332,-0.61,-0.255,
2333,-0.405,-0.14,
2334,-0.165,0.0,
2335,0.08,0.19,
2336,0.34,0.31,
2337,0.605,0.37,
2338,0.895,0.395,
2339,1.15,0.405,
2340,1.365,0.39,N
2341,1.4,0.385,
2342,1.255,0.33,
2343,0.945,0.22,
2344,0.47,0.035,
2345,-0.12,-0.23,
2346,-0.755,-0.555,
2347,-1.3,-0.9,
2348,-1.655,-1.21,
2349,-1.76,-1.385,
2350,-1.7,-1.395,
2351,-1.52,-1.295,
2352,-1.33,-1.115,
2353,-1.17,-0.915,
2354,-1.085,-0.79,
2355,-1.06,-0.69,
2356,-1.07,-0.655,
2357,-1.075,-0.63,
2358,-1.06,-0.645,
2359,-1.05,-0.635,
2360,-1.005,-0.62,
2361,-0.985,-0.62,
2362,-0.95,-0.585,
2363,-0.955,-0.58,
2364,-0.945,-0.56,
2365,-0.945,-0.54,
2366,-0.95,-0.525,
2367,-0.935,-0.535,
2368,-0.94,-0.52,
2369,-0.935,-0.525,
2370,-0.94,-0.505,
2371,-0.95,-0.535,
2372,-0.96,-0.545,
2373,-0.955,-0.525,
2374,-0.97,-0.52,
2375,-0.965,-0.51,
2376,-0.945,-0.51,
2377,-0.94,-0.5,
2378,-0.925,-0.47,
2379,-0.925,-0.47,
2380,-0.925,-0.475,
2381,-0.935,-0.485,
2382,-0.94,-0.49,
2383,-0.94,-0.48,
2384,-0.945,-0.49,
2385,-0.95,-0.5,
2386,-0.96,-0.505,
2387,-0.95,-0.48,
2388,-0.955,-0.495,
2389,-0.945,-0.485,
2390,-0.945,-0.47,
2391,-0.935,-0.465,
2392,-0.91,-0.47,
2393,-0.925,-0.47,
2394,-0.915,-0.485,
2395,-0.925,-0.495,
2396,-0.935,-0.515,
2397,-0.94,-0.52,
2398,-0.95,-0.515,
2399,-0.965,-0.5,
2400,-0.95,-0.495,
2401,-0.93,-0.475,
2402,-0.925,-0.455,
2403,-0.915,-0.45,
2404,-0.905,-0.445,
2405,-0.905,-0.45,
2406,-0.905,-0.455,
2407,-0.905,-0.47,
2408,-0.915,-0.47,
2409,-0.915,-0.485,
2410,-0.92,-0.465,
2411,-0.92,-0.46,
2412,-0.905,-0.455,
2413,-0.9,-0.45,
2414,-0.885,-0.44,
2415,-0.885,-0.415,
2416,-0.875,-0.42,
2417,-0.855,-0.42,
2418,-0.855,-0.43,
2419,-0.855,-0.435,
2420,-0.875,-0.445,
2421,-0.86,-0.435,
2422,-0.855,-0.44,
2423,-0.85,-0.425,
2424,-0.84,-0.42,
2425,-0.82,-0.4,
2426,-0.795,-0.385,
2427,-0.77,-0.355,
2428,-0.775,-0.35,
2429,-0.755,-0.36,
2430,-0.75,-0.33,
2431,-0.73,-0.345,
2432,-0.745,-0.34,
2433,-0.725,-0.335,
2434,-0.715,-0.325,
2435,-0.7,-0.31,
2436,-0.675,-0.285,
2437,-0.645,-0.29,
2438,-0.62,-0.255,
2439,-0.6,-0.24,
2440,-0.575,-0.23,
2441,-0.56,-0.23,
2442,-0.545,-0.22,
2443,-0.53,-0.225,
2444,-0.525,-0.23,
2445,-0.525,-0.235,
2446,-0.505,-0.23,
2447,-0.49,-0.22,
2448,-0.48,-0.2,
2449,-0.455,-0.185,
2450,-0.43,-0.18,
2451,-0.41,-0.165,
2452,-0.4,-0.17,
2453,-0.39,-0.16,
2454,-0.39,-0.17,
2455,-0.4,-0.175,
2456,-0.415,-0.175,
2457,-0.415,-0.18,
2458,-0.44,-0.19,
2459,-0.445,-0.195,
2460,-0.46,-0.21,
2461,-0.46,-0.22,
2462,-0.465,-0.225,
2463,-0.49,-0.225,
2464,-0.52,-0.255,
2465,-0.545,-0.28,
2466,-0.575,-0.29,
2467,-0.6,-0.325,
2468,-0.645,-0.36,
2469,-0.665,-0.385,
2470,-0.695,-0.405,
2471,-0.725,-0.42,
2472,-0.75,-0.425,
2473,-0.755,-0.435,
2474,-0.77,-0.455,
2475,-0.775,-0.445,
2476,-0.785,-0.465,
2477,-0.8,-0.475,
2478,-0.82,-0.495,
2479,-0.835,-0.515,
2480,-0.855,-0.535,
2481,-0.88,-0.55,
2482,-0.87,-0.545,
2483,-0.88,-0.545,
2484,-0.885,-0.53,
2485,-0.875,-0.505,
2486,-0.875,-0.52,
2487,-0.875,-0.51,
2488,-0.87,-0.53,
2489,-0.87,-0.525,
2490,-0.89,-0.545,
2491,-0.885,-0.56,
2492,-0.91,-0.57,
2493,-0.9,-0.555,
2494,-0.91,-0.565,
2495,-0.925,-0.57,
2496,-0.92,-0.56,
2497,-0.92,-0.54,
2498,-0.9,-0.53,
2499,-0.895,-0.54,
2500,-0.895,-0.54,
2501,-0.89,-0.54,
2502,-0.895,-0.555,
2503,-0.915,-0.58,
2504,-0.925,-0.565,
2505,-0.93,-0.585,
2506,-0.925,-0.575,
2507,-0.93,-0.58,
2508,-0.925,-0.57,
2509,-0.91,-0.56,
2510,-0.91,-0.55,
2511,-0.89,-0.535,
2512,-0.89,-0.54,
2513,-0.885,-0.55,
2514,-0.89,-0.56,
2515,-0.89,-0.545,
2516,-0.89,-0.56,
2517,-0.91,-0.56,
2518,-0.91,-0.56,
2519,-0.905,-0.545,
2520,-0.91,-0.55,
2521,-0.91,-0.53,
2522,-0.885,-0.52,
2523,-0.88,-0.505,
2524,-0.87,-0.535,
2525,-0.865,-0.515,
2526,-0.855,-0.53,
2527,-0.875,-0.53,
2528,-0.885,-0.56,
2529,-0.89,-0.56,
2530,-0.915,-0.555,
2531,-0.915,-0.57,
2532,-0.895,-0.535,
2533,-0.885,-0.545,
2534,-0.885,-0.525,
2535,-0.875,-0.51,
2536,-0.85,-0.5,
2537,-0.865,-0.5,
2538,-0.86,-0.495,
2539,-0.875,-0.525,
2540,-0.885,-0.525,
2541,-0.89,-0.535,
2542,-0.9,-0.535,
2543,-0.905,-0.53,
2544,-0.89,-0.535,
2545,-0.89,-0.525,
2546,-0.88,-0.515,
2547,-0.875,-0.495,
2548,-0.875,-0.52,
2549,-0.875,-0.51,
2550,-0.895,-0.515,
2551,-0.895,-0.52,
2552,-0.915,-0.545,
2553,-0.93,-0.545,
2554,-0.92,-0.55,
2555,-0.925,-0.55,
2556,-0.925,-0.555,
2557,-0.92,-0.55,
2558,-0.92,-0.525,
2559,-0.91,-0.535,
2560,-0.91,-0.545,
2561,-0.915,-0.54,
2562,-0.91,-0.545,
2563,-0.925,-0.555,
2564,-0.955,-0.555,
2565,-0.965,-0.57,
2566,-0.97,-0.575,
2567,-0.955,-0.585,
2568,-0.95,-0.57,
2569,-0.95,-0.56,
2570,-0.94,-0.56,
2571,-0.925,-0.53,
2572,-0.925,-0.57,
2573,-0.935,-0.565,
2574,-0.935,-0.57,
2575,-0.95,-0.57,
2576,-0.955,-0.59,
2577,-0.97,-0.595,
2578,-0.96,-0.59,
2579,-0.965,-0.59,
2580,-0.97,-0.575,
2581,-0.955,-0.58,
2582,-0.955,-0.58,
2583,-0.94,-0.565,
2584,-0.925,-0.58,
2585,-0.925,-0.59,
2586,-0.925,-0.59,
2587,-0.95,-0.6,
2588,-0.96,-0.61,
2589,-0.96,-0.6,
2590,-0.975,-0.615,
2591,-0.975,-0.6,
2592,-0.985,-0.59,
2593,-0.975,-0.575,
2594,-0.96,-0.57,
2595,-0.945,-0.545,
2596,-0.94,-0.575,
2597,-0.95,-0.585,
2598,-0.945,-0.585,
2599,-0.96,-0.59,
2600,-0.96,-0.62,
2601,-0.975,-0.625,
2602,-0.98,-0.61,
2603,-0.98,-0.61,
2604,-0.97,-0.595,
2605,-0.97,-0.585,
2606,-0.96,-0.58,
2607,-0.955,-0.56,
2608,-0.94,-0.585,
2609,-0.955,-0.59,
2610,-0.97,-0.595,
2611,-0.98,-0.615,
2612,-0.98,-0.625,
2613,-0.98,-0.63,
2614,-0.99,-0.625,
2615,-1.0,-0.63,
2616,-0.98,-0.615,
2617,-0.99,-0.605,
2618,-0.98,-0.6,
2619,-0.96,-0.585,
2620,-0.95,-0.585,
2621,-0.95,-0.59,
2622,-0.965,-0.6,
2623,-0.955,-0.605,
2624,-0.965,-0.61,
2625,-0.975,-0.62,
2626,-0.975,-0.615,
2627,-0.985,-0.605,
2628,-0.975,-0.59,
2629,-0.985,-0.6,
2630,-0.98,-0.57,
2631,-0.97,-0.59,
2632,-0.96,-0.6,
2633,-0.965,-0.605,
2634,-0.97,-0.605,
2635,-0.985,-0.615,
2636,-0.98,-0.615,
2637,-0.995,-0.63,
2638,-1.01,-0.63,
2639,-1.02,-0.615,
2640,-1.02,-0.62,
2641,-0.99,-0.62,
2642,-0.995,-0.605,
2643,-0.98,-0.61,
2644,-0.98,-0.6,
2645,-0.965,-0.61,
2646,-0.97,-0.61,
2647,-0.97,-0.62,
2648,-0.985,-0.64,
2649,-0.99,-0.62,
2650,-0.99,-0.63,
2651,-0.985,-0.625,
2652,-1.0,-0.615,
2653,-1.01,-0.605,
2654,-1.0,-0.595,
2655,-0.975,-0.59,
2656,-0.955,-0.58,
2657,-0.955,-0.6,
2658,-0.955,-0.605,
2659,-0.975,-0.615,
2660,-0.995,-0.625,
2661,-0.995,-0.63,
2662,-1.01,-0.625,
2663,-1.0,-0.615,
2664,-0.99,-0.615,
2665,-0.99,-0.61,
2666,-0.975,-0.6,
2667,-0.975,-0.58,
2668,-0.965,-0.585,
2669,-0.96,-0.595,
2670,-0.97,-0.62,
2671,-0.975,-0.62,
2672,-0.97,-0.63,
2673,-0.99,-0.63,
2674,-0.995,-0.62,
2675,-0.985,-0.635,
2676,-0.99,-0.625,
2677,-0.99,-0.605,
2678,-0.975,-0.595,
2679,-0.95,-0.6,
2680,-0.95,-0.585,
2681,-0.95,-0.585,
2682,-0.95,-0.605,
2683,-0.955,-0.595,
2684,-0.965,-0.625,
2685,-0.98,-0.62,
2686,-0.985,-0.62,
2687,-0.97,-0.62,
2688,-0.975,-0.615,
2689,-0.965,-0.615,
2690,-0.955,-0.605,
2691,-0.94,-0.59,
2692,-0.945,-0.605,
2693,-0.935,-0.61,
2694,-0.975,-0.61,
2695,-0.995,-0.63,
2696,-0.99,-0.615,
2697,-0.99,-0.635,
2698,-0.985,-0.65,
2699,-0.99,-0.635,
2700,-0.96,-0.61,
2701,-0.97,-0.62,
2702,-0.97,-0.605,
2703,-0.95,-0.6,
2704,-0.945,-0.575,
2705,-0.94,-0.6,
2706,-0.945,-0.6,
2707,-0.945,-0.61,
2708,-0.955,-0.62,
2709,-0.975,-0.625,
2710,-0.985,-0.625,
2711,-0.985,-0.625,
2712,-0.98,-0.615,
2713,-0.96,-0.595,
2714,-0.96,-0.58,
2715,-0.965,-0.575,
2716,-0.945,-0.585,
2717,-0.94,-0.58,
2718,-0.95,-0.59,
2719,-0.95,-0.605,
2720,-0.96,-0.615,
2721,-0.98,-0.615,
2722,-0.99,-0.62,
2723,-0.97,-0.625,
2724,-0.98,-0.625,
2725,-0.96,-0.615,
2726,-0.945,-0.6,
2727,-0.945,-0.585,
2728,-0.93,-0.575,
2729,-0.945,-0.575,
2730,-0.94,-0.585,
2731,-0.945,-0.6,
2732,-0.95,-0.59,
2733,-0.95,-0.61,
2734,-0.95,-0.615,
2735,-0.95,-0.615,
2736,-0.935,-0.59,
2737,-0.905,-0.585,
2738,-0.88,-0.58,
2739,-0.86,-0.56,
2740,-0.84,-0.575,
2741,-0.835,-0.57,
2742,-0.815,-0.57,
2743,-0.82,-0.58,
2744,-0.84,-0.585,
2745,-0.84,-0.6,
2746,-0.83,-0.615,
2747,-0.815,-0.6,
2748,-0.785,-0.585,
2749,-0.76,-0.56,
2750,-0.73,-0.565,
2751,-0.705,-0.53,
2752,-0.71,-0.525,
2753,-0.72,-0.53,
2754,-0.735,-0.54,
2755,-0.74,-0.55,
2756,-0.765,-0.575,
2757,-0.79,-0.56,
2758,-0.805,-0.55,
2759,-0.825,-0.545,
2760,-0.815,-0.53,
2761,-0.815,-0.51,
2762,-0.795,-0.49,
2763,-0.82,-0.495,
2764,-0.81,-0.495,
2765,-0.825,-0.5,
2766,-0.855,-0.505,
2767,-0.88,-0.54,
2768,-0.915,-0.56,
2769,-0.96,-0.575,
2770,-0.995,-0.575,
2771,-1.01,-0.59,
2772,-1.015,-0.585,
2773,-1.01,-0.59,
2774,-1.01,-0.58,
2775,-1.005,-0.57,
2776,-1.0,-0.58,
2777,-0.995,-0.57,
2778,-1.005,-0.57,
2779,-1.02,-0.59,
2780,-1.02,-0.62,
2781,-1.02,-0.61,
2782,-1.04,-0.615,
2783,-1.04,-0.595,
2784,-1.03,-0.585,
2785,-1.045,-0.575,
2786,-1.03,-0.575,
2787,-1.015,-0.575,
2788,-1.01,-0.57,
2789,-1.015,-0.565,
2790,-1.015,-0.56,
2791,-1.025,-0.565,
2792,-1.025,-0.585,
2793,-1.03,-0.605,
2794,-1.03,-0.59,
2795,-1.03,-0.57,
2796,-1.045,-0.57,
2797,-1.03,-0.565,
2798,-1.02,-0.575,
2799,-1.005,-0.535,
2800,-1.0,-0.55,
2801,-1.01,-0.57,
2802,-0.995,-0.58,
2803,-1.0,-0.565,
2804,-0.995,-0.585,
2805,-1.0,-0.585,
2806,-1.005,-0.58,
2807,-0.99,-0.575,
2808,-0.995,-0.57,
2809,-0.975,-0.545,
2810,-0.945,-0.54,
2811,-0.925,-0.51,
2812,-0.905,-0.48,
2813,-0.87,-0.45,
2814,-0.77,-0.41,
2815,-0.635,-0.27,
2816,-0.395,-0.14,
2817,-0.11,0.045,
2818,0.2,0.205,
2819,0.53,0.32,
2820,0.87,0.395,
2821,1.185,0.425,N
2822,1.36,0.42,
2823,1.36,0.4,
2824,1.115,0.33,
2825,0.645,0.155,
2826,0.02,-0.075,
2827,-0.62,-0.405,
2828,-1.22,-0.765,
2829,-1.61,-1.11,
2830,-1.75,-1.3,
2831,-1.67,-1.345,
2832,-1.495,-1.215,
2833,-1.295,-1.025,
2834,-1.16,-0.86,
2835,-1.065,-0.72,
2836,-1.045,-0.66,
2837,-1.07,-0.63,
2838,-1.075,-0.65,
2839,-1.08,-0.66,
2840,-1.05,-0.655,
2841,-1.035,-0.655,
2842,-1.015,-0.64,
2843,-0.99,-0.63,
2844,-1.0,-0.61,
2845,-1.0,-0.59,
2846,-0.99,-0.57,
2847,-0.995,-0.565,
2848,-0.995,-0.56,
2849,-0.985,-0.57,
2850,-0.99,-0.56,
2851,-0.995,-0.57,
2852,-1.01,-0.58,
2853,-1.015,-0.6,
2854,-1.015,-0.59,
2855,-1.03,-0.585,
2856,-1.01,-0.59,
2857,-1.005,-0.575,
2858,-1.005,-0.55,
2859,-0.985,-0.545,
2860,-0.99,-0.55,
2861,-0.98,-0.54,
2862,-0.98,-0.55,
2863,-0.995,-0.545,
2864,-1.01,-0.555,
2865,-1.02,-0.57,
2866,-1.015,-0.56,
2867,-1.025,-0.55,
2868,-1.025,-0.55,
2869,-1.025,-0.545,
2870,-1.02,-0.525,
2871,-1.005,-0.525,
2872,-0.985,-0.515,
2873,-0.97,-0.525,
2874,-0.97,-0.53,
2875,-0.985,-0.52,
2876,-0.99,-0.54,
2877,-1.0,-0.555,
2878,-1.0,-0.555,
2879,-1.005,-0.555,
2880,-1.005,-0.545,
2881,-0.995,-0.545,
2882,-0.98,-0.52,
2883,-0.985,-0.51,
2884,-0.98,-0.505,
2885,-0.975,-0.515,
2886,-0.98,-0.51,
2887,-0.975,-0.53,
2888,-0.995,-0.52,
2889,-1.005,-0.525,
2890,-0.995,-0.52,
2891,-1.0,-0.505,
2892,-0.975,-0.505,
2893,-0.96,-0.5,
2894,-0.94,-0.48,
2895,-0.935,-0.465,
2896,-0.925,-0.47,
2897,-0.905,-0.47,
2898,-0.93,-0.47,
2899,-0.92,-0.47,
2900,-0.91,-0.47,
2901,-0.92,-0.485,
2902,-0.925,-0.475,
2903,-0.93,-0.46,
2904,-0.9,-0.47,
2905,-0.88,-0.45,
2906,-0.87,-0.425,
2907,-0.845,-0.41,
2908,-0.82,-0.415,
2909,-0.81,-0.4,
2910,-0.8,-0.39,
2911,-0.795,-0.41,
2912,-0.79,-0.405,
2913,-0.78,-0.39,
2914,-0.78,-0.385,
2915,-0.755,-0.375,
2916,-0.745,-0.345,
2917,-0.71,-0.315,
2918,-0.68,-0.3,
2919,-0.66,-0.27,
2920,-0.635,-0.255,
2921,-0.63,-0.26,
2922,-0.63,-0.265,
2923,-0.61,-0.255,
2924,-0.595,-0.24,
2925,-0.58,-0.25,
2926,-0.57,-0.23,
2927,-0.56,-0.245,
2928,-0.545,-0.23,
2929,-0.52,-0.21,
2930,-0.5,-0.18,
2931,-0.485,-0.19,
2932,-0.46,-0.185,
2933,-0.46,-0.2,
2934,-0.435,-0.2,
2935,-0.435,-0.21,
2936,-0.45,-0.215,
2937,-0.47,-0.215,
2938,-0.47,-0.235,
2939,-0.475,-0.25,
2940,-0.49,-0.25,
2941,-0.505,-0.22,
2942,-0.525,-0.225,
2943,-0.52,-0.235,
2944,-0.53,-0.265,
2945,-0.565,-0.27,
2946,-0.58,-0.295,
2947,-0.615,-0.33,
2948,-0.645,-0.365,
2949,-0.685,-0.37,
2950,-0.71,-0.405,
2951,-0.74,-0.425,
2952,-0.765,-0.435,
2953,-0.795,-0.435,
2954,-0.8,-0.45,
2955,-0.835,-0.445,
2956,-0.83,-0.47,
2957,-0.85,-0.485,
2958,-0.86,-0.51,
2959,-0.875,-0.52,
2960,-0.89,-0.54,
2961,-0.905,-0.57,
2962,-0.915,-0.545,
2963,-0.915,-0.565,
2964,-0.915,-0.555,
2965,-0.92,-0.55,
2966,-0.9,-0.55,
2967,-0.91,-0.53,
2968,-0.89,-0.525,
2969,-0.9,-0.54,
2970,-0.915,-0.54,
2971,-0.915,-0.545,
2972,-0.925,-0.565,
2973,-0.925,-0.57,
2974,-0.93,-0.575,
2975,-0.945,-0.58,
2976,-0.945,-0.555,
2977,-0.925,-0.55,
2978,-0.92,-0.545,
2979,-0.925,-0.535,
2980,-0.91,-0.54,
2981,-0.9,-0.565,
2982,-0.9,-0.56,
2983,-0.91,-0.575,
2984,-0.915,-0.575,
2985,-0.925,-0.575,
2986,-0.935,-0.585,
2987,-0.935,-0.575,
2988,-0.92,-0.56,
2989,-0.915,-0.57,
2990,-0.905,-0.55,
2991,-0.895,-0.535,
2992,-0.88,-0.53,
2993,-0.885,-0.54,
2994,-0.88,-0.54,
2995,-0.89,-0.53,
2996,-0.895,-0.545,
2997,-0.89,-0.55,
2998,-0.91,-0.56,
2999,-0.91,-0.545,
3000,-0.92,-0.535,
3001,-0.9,-0.535,
3002,-0.895,-0.535,
3003,-0.885,-0.505,
3004,-0.875,-0.51,
3005,-0.87,-0.505,
3006,-0.86,-0.52,
3007,-0.89,-0.53,
3008,-0.875,-0.545,
3009,-0.895,-0.535,
3010,-0.905,-0.555,
3011,-0.91,-0.545,
3012,-0.91,-0.535,
3013,-0.885,-0.53,
3014,-0.875,-0.53,
3015,-0.89,-0.51,
3016,-0.86,-0.505,
3017,-0.88,-0.515,
3018,-0.86,-0.515,
3019,-0.89,-0.525,
3020,-0.89,-0.525,
3021,-0.895,-0.54,
3022,-0.895,-0.535,
3023,-0.9,-0.535,
3024,-0.91,-0.53,
3025,-0.9,-0.52,
3026,-0.89,-0.51,
3027,-0.885,-0.51,
3028,-0.88,-0.52,
3029,-0.885,-0.515,
3030,-0.88,-0.505,
3031,-0.88,-0.52,
3032,-0.895,-0.55,
3033,-0.905,-0.56,
3034,-0.925,-0.56,
3035,-0.93,-0.555,
3036,-0.935,-0.55,
3037,-0.92,-0.54,
3038,-0.91,-0.56,
3039,-0.905,-0.55,
3040,-0.9,-0.535,
3041,-0.9,-0.535,
3042,-0.895,-0.55,
3043,-0.905,-0.57,
3044,-0.925,-0.555,
3045,-0.925,-0.57,
3046,-0.935,-0.555,
3047,-0.945,-0.56,
3048,-0.935,-0.565,
3049,-0.935,-0.57,
3050,-0.925,-0.56,
3051,-0.915,-0.535,
3052,-0.905,-0.535,
3053,-0.905,-0.545,
3054,-0.9,-0.54,
3055,-0.92,-0.555,
3056,-0.93,-0.575,
3057,-0.945,-0.58,
3058,-0.945,-0.585,
3059,-0.945,-0.58,
3060,-0.95,-0.575,
3061,-0.935,-0.56,
3062,-0.915,-0.57,
3063,-0.905,-0.54,
3064,-0.905,-0.565,
3065,-0.895,-0.555,
3066,-0.925,-0.575,
3067,-0.92,-0.59,
3068,-0.94,-0.575,
3069,-0.935,-0.585,
3070,-0.935,-0.59,
3071,-0.945,-0.57,
3072,-0.96,-0.58,
3073,-0.94,-0.57,
3074,-0.93,-0.565,
3075,-0.93,-0.555,
3076,-0.915,-0.54,
3077,-0.91,-0.545,
3078,-0.905,-0.56,
3079,-0.925,-0.555,
3080,-0.93,-0.57,
3081,-0.925,-0.56,
3082,-0.945,-0.58,
3083,-0.945,-0.57,
3084,-0.95,-0.57,
3085,-0.94,-0.555,
3086,-0.935,-0.565,
3087,-0.93,-0.535,
3088,-0.925,-0.53,
3089,-0.92,-0.545,
3090,-0.945,-0.565,
3091,-0.93,-0.59,
3092,-0.965,-0.59,
3093,-0.955,-0.6,
3094,-0.945,-0.6,
3095,-0.96,-0.59,
3096,-0.96,-0.565,
3097,-0.945,-0.565,
3098,-0.95,-0.54,
3099,-0.94,-0.54,
3100,-0.925,-0.535,
3101,-0.915,-0.535,
3102,-0.935,-0.55,
3103,-0.94,-0.56,
3104,-0.95,-0.555,
3105,-0.96,-0.565,
3106,-0.97,-0.57,
3107,-0.965,-0.58,
3108,-0.965,-0.58,
3109,-0.955,-0.56,
3110,-0.945,-0.555,
3111,-0.935,-0.545,
3112,-0.95,-0.54,
3113,-0.94,-0.55,
3114,-0.94,-0.56,
3115,-0.935,-0.565,
3116,-0.945,-0.585,
3117,-0.95,-0.57,
3118,-0.96,-0.6,
3119,-0.965,-0.58,
3120,-0.95,-0.555,
3121,-0.945,-0.57,
3122,-0.95,-0.58,
3123,-0.94,-0.555,
3124,-0.925,-0.56,
3125,-0.925,-0.56,
3126,-0.925,-0.55,
3127,-0.925,-0.55,
3128,-0.935,-0.55,
3129,-0.95,-0.575,
3130,-0.955,-0.565,
3131,-0.97,-0.57,
3132,-0.97,-0.585,
3133,-0.96,-0.57,
3134,-0.935,-0.565,
3135,-0.935,-0.545,
3136,-0.925,-0.55,
3137,-0.915,-0.545,
3138,-0.915,-0.54,
3139,-0.92,-0.55,
3140,-0.94,-0.56,
3141,-0.94,-0.575,
3142,-0.955,-0.575,
3143,-0.97,-0.6,
3144,-0.96,-0.59,
3145,-0.965,-0.585,
3146,-0.97,-0.57,
3147,-0.95,-0.57,
3148,-0.935,-0.545,
3149,-0.93,-0.57,
3150,-0.915,-0.56,
3151,-0.92,-0.57,
3152,-0.935,-0.58,
3153,-0.94,-0.595,
3154,-0.96,-0.58,
3155,-0.95,-0.575,
3156,-0.955,-0.58,
3157,-0.95,-0.565,
3158,-0.945,-0.56,
3159,-0.94,-0.555,
3160,-0.92,-0.54,
3161,-0.92,-0.55,
3162,-0.925,-0.565,
3163,-0.94,-0.575,
3164,-0.96,-0.555,
3165,-0.96,-0.585,
3166,-0.965,-0.585,
3167,-0.945,-0.58,
3168,-0.945,-0.585,
3169,-0.92,-0.565,
3170,-0.9,-0.55,
3171,-0.88,-0.535,
3172,-0.86,-0.545,
3173,-0.845,-0.535,
3174,-0.83,-0.535,
3175,-0.81,-0.565,
3176,-0.825,-0.575,
3177,-0.84,-0.595,
3178,-0.85,-0.61,
3179,-0.875,-0.595,
3180,-0.86,-0.565,
3181,-0.825,-0.555,
3182,-0.79,-0.545,
3183,-0.73,-0.525,
3184,-0.685,-0.505,
3185,-0.68,-0.5,
3186,-0.67,-0.49,
3187,-0.705,-0.495,
3188,-0.72,-0.52,
3189,-0.735,-0.515,
3190,-0.77,-0.505,
3191,-0.78,-0.525,
3192,-0.795,-0.5,
3193,-0.795,-0.485,
3194,-0.78,-0.465,
3195,-0.775,-0.47,
3196,-0.78,-0.465,
3197,-0.78,-0.48,
3198,-0.8,-0.485,
3199,-0.83,-0.515,
3200,-0.865,-0.525,
3201,-0.915,-0.55,
3202,-0.94,-0.575,
3203,-0.975,-0.59,
3204,-0.99,-0.59,
3205,-0.99,-0.585,
3206,-0.975,-0.56,
3207,-0.965,-0.565,
3208,-0.97,-0.555,
3209,-0.96,-0.55,
3210,-0.97,-0.565,
3211,-0.99,-0.555,
3212,-0.99,-0.56,
3213,-1.01,-0.57,
3214,-1.01,-0.585,
3215,-1.02,-0.57,
3216,-1.025,-0.56,
3217,-1.02,-0.55,
3218,-1.01,-0.555,
3219,-1.005,-0.545,
3220,-0.985,-0.53,
3221,-0.975,-0.53,
3222,-0.99,-0.545,
3223,-0.98,-0.535,
3224,-0.99,-0.56,
3225,-1.005,-0.565,
3226,-1.0,-0.59,
3227,-1.01,-0.57,
3228,-1.015,-0.575,
3229,-0.99,-0.58,
3230,-0.98,-0.555,
3231,-0.98,-0.56,
3232,-0.965,-0.55,
3233,-0.98,-0.55,
3234,-0.97,-0.565,
3235,-0.99,-0.555,
3236,-0.975,-0.555,
3237,-0.985,-0.55,
3238,-0.97,-0.55,
3239,-0.975,-0.555,
3240,-0.96,-0.55,
3241,-0.97,-0.535,
3242,-0.95,-0.54,
3243,-0.94,-0.52,
3244,-0.92,-0.52,
3245,-0.92,-0.5,
3246,-0.895,-0.495,
3247,-0.9,-0.495,
3248,-0.885,-0.505,
3249,-0.88,-0.475,
3250,-0.845,-0.43,
3251,-0.735,-0.36,
3252,-0.56,-0.225,
3253,-0.31,-0.05,
3254,-0.03,0.115,
3255,0.24,0.265,
3256,0.535,0.39,
3257,0.835,0.435,
3258,1.095,0.47,
3259,1.285,0.435,N
3260,1.315,0.405,
3261,1.145,0.32,
3262,0.825,0.22,
3263,0.37,0.045,
3264,-0.17,-0.2,
3265,-0.715,-0.455,
3266,-1.195,-0.725,
3267,-1.54,-1.02,
3268,-1.685,-1.21,
3269,-1.7,-1.32,
3270,-1.6,-1.3,
3271,-1.45,-1.215,
3272,-1.325,-1.07,
3273,-1.245,-0.945,
3274,-1.22,-0.83,
3275,-1.215,-0.755,
3276,-1.2,-0.72,
3277,-1.15,-0.665,
3278,-1.09,-0.63,
3279,-1.035,-0.605,
3280,-0.99,-0.585,
3281,-0.94,-0.575,
3282,-0.935,-0.565,
3283,-0.96,-0.555,
3284,-0.99,-0.575,
3285,-1.0,-0.575,
3286,-1.01,-0.565,
3287,-1.005,-0.555,
3288,-1.005,-0.545,
3289,-0.99,-0.54,
3290,-0.99,-0.53,
3291,-0.985,-0.515,
3292,-0.975,-0.515,
3293,-0.975,-0.495,
3294,-0.965,-0.49,
3295,-0.98,-0.505,
3296,-0.96,-0.52,
3297,-0.975,-0.51,
3298,-0.975,-0.515,
3299,-0.985,-0.51,
3300,-0.98,-0.515,
3301,-0.96,-0.495,
3302,-0.96,-0.48,
3303,-0.955,-0.47,
3304,-0.955,-0.465,
3305,-0.955,-0.485,
3306,-0.94,-0.475,
3307,-0.94,-0.495,
3308,-0.965,-0.505,
3309,-0.97,-0.515,
3310,-0.97,-0.525,
3311,-0.965,-0.505,
3312,-0.97,-0.515,
3313,-0.95,-0.505,
3314,-0.94,-0.48,
3315,-0.95,-0.475,
3316,-0.95,-0.47,
3317,-0.94,-0.47,
3318,-0.94,-0.465,
3319,-0.95,-0.46,
3320,-0.975,-0.485,
3321,-0.97,-0.485,
3322,-0.97,-0.505,
3323,-0.96,-0.495,
3324,-0.97,-0.48,
3325,-0.96,-0.47,
3326,-0.955,-0.46,
3327,-0.945,-0.45,
3328,-0.925,-0.445,
3329,-0.91,-0.45,
3330,-0.91,-0.44,
3331,-0.905,-0.45,
3332,-0.905,-0.45,
3333,-0.92,-0.465,
3334,-0.92,-0.455,
3335,-0.91,-0.47,
3336,-0.905,-0.465,
3337,-0.895,-0.44,
3338,-0.88,-0.44,
3339,-0.87,-0.425,
3340,-0.85,-0.4,
3341,-0.845,-0.405,
3342,-0.835,-0.385,
3343,-0.83,-0.395,
3344,-0.82,-0.39,
3345,-0.845,-0.405,
3346,-0.84,-0.4,
3347,-0.84,-0.385,
3348,-0.83,-0.375,
3349,-0.81,-0.355,
3350,-0.78,-0.345,
3351,-0.755,-0.315,
3352,-0.73,-0.305,
3353,-0.71,-0.305,
3354,-0.7,-0.305,
3355,-0.69,-0.305,
3356,-0.69,-0.3,
3357,-0.685,-0.29,
3358,-0.66,-0.295,
3359,-0.665,-0.275,
3360,-0.66,-0.265,
3361,-0.62,-0.26,
3362,-0.595,-0.23,
3363,-0.56,-0.235,
3364,-0.545,-0.225,
3365,-0.515,-0.205,
3366,-0.49,-0.2,
3367,-0.5,-0.215,
3368,-0.475,-0.205,
3369,-0.485,-0.205,
3370,-0.475,-0.185,
3371,-0.47,-0.2,
3372,-0.475,-0.18,
3373,-0.45,-0.16,
3374,-0.445,-0.155,
3375,-0.42,-0.135,
3376,-0.4,-0.14,
3377,-0.41,-0.14,
3378,-0.415,-0.16,
3379,-0.42,-0.165,
3380,-0.44,-0.19,
3381,-0.475,-0.205,
3382,-0.485,-0.225,
3383,-0.51,-0.24,
3384,-0.535,-0.245,
3385,-0.56,-0.245,
3386,-0.565,-0.255,
3387,-0.585,-0.275,
3388,-0.605,-0.275,
3389,-0.625,-0.315,
3390,-0.65,-0.315,
3391,-0.685,-0.365,
3392,-0.71,-0.38,
3393,-0.75,-0.42,
3394,-0.775,-0.44,
3395,-0.8,-0.45,
3396,-0.82,-0.465,
3397,-0.82,-0.46,
3398,-0.825,-0.455,
3399,-0.815,-0.45,
3400,-0.815,-0.44,
3401,-0.81,-0.46,
3402,-0.825,-0.455,
3403,-0.84,-0.475,
3404,-0.85,-0.475,
3405,-0.855,-0.485,
3406,-0.875,-0.495,
3407,-0.875,-0.485,
3408,-0.87,-0.485,
3409,-0.87,-0.47,
3410,-0.855,-0.47,
3411,-0.85,-0.465,
3412,-0.855,-0.475,
3413,-0.85,-0.49,
3414,-0.855,-0.49,
3415,-0.855,-0.51,
3416,-0.88,-0.51,
3417,-0.89,-0.515,
3418,-0.9,-0.53,
3419,-0.905,-0.51,
3420,-0.91,-0.52,
3421,-0.89,-0.5,
3422,-0.875,-0.5,
3423,-0.86,-0.505,
3424,-0.86,-0.48,
3425,-0.845,-0.495,
3426,-0.835,-0.465,
3427,-0.855,-0.47,
3428,-0.865,-0.48,
3429,-0.885,-0.49,
3430,-0.89,-0.51,
3431,-0.895,-0.5,
3432,-0.905,-0.51,
3433,-0.875,-0.495,
3434,-0.86,-0.51,
3435,-0.845,-0.485,
3436,-0.83,-0.475,
3437,-0.82,-0.48,
3438,-0.825,-0.48,
3439,-0.82,-0.48,
3440,-0.84,-0.49,
3441,-0.845,-0.47,
3442,-0.84,-0.485,
3443,-0.845,-0.48,
3444,-0.85,-0.485,
3445,-0.855,-0.475,
3446,-0.84,-0.465,
3447,-0.815,-0.46,
3448,-0.805,-0.45,
3449,-0.8,-0.44,
3450,-0.79,-0.465,
3451,-0.81,-0.445,
3452,-0.815,-0.48,
3453,-0.825,-0.465,
3454,-0.835,-0.475,
3455,-0.835,-0.475,
3456,-0.84,-0.475,
3457,-0.84,-0.455,
3458,-0.81,-0.46,
3459,-0.81,-0.425,
3460,-0.805,-0.425,
3461,-0.8,-0.43,
3462,-0.795,-0.43,
3463,-0.8,-0.425,
3464,-0.8,-0.445,
3465,-0.825,-0.44,
3466,-0.81,-0.455,
3467,-0.825,-0.445,
3468,-0.825,-0.445,
3469,-0.825,-0.465,
3470,-0.81,-0.455,
3471,-0.805,-0.455,
3472,-0.79,-0.46,
3473,-0.805,-0.44,
3474,-0.79,-0.44,
3475,-0.805,-0.455,
3476,-0.82,-0.465,
3477,-0.835,-0.47,
3478,-0.855,-0.48,
3479,-0.865,-0.48,
3480,-0.85,-0.475,
3481,-0.86,-0.475,
3482,-0.84,-0.46,
3483,-0.83,-0.45,
3484,-0.815,-0.455,
3485,-0.815,-0.45,
3486,-0.835,-0.45,
3487,-0.825,-0.465,
3488,-0.83,-0.455,
3489,-0.83,-0.475,
3490,-0.835,-0.48,
3491,-0.85,-0.47,
3492,-0.87,-0.505,
3493,-0.85,-0.475,
3494,-0.865,-0.48,
3495,-0.85,-0.46,
3496,-0.845,-0.455,
3497,-0.83,-0.46,
3498,-0.845,-0.455,
3499,-0.845,-0.485,
3500,-0.85,-0.495,
3501,-0.845,-0.505,
3502,-0.865,-0.505,
3503,-0.87,-0.495,
3504,-0.87,-0.5,
3505,-0.865,-0.495,
3506,-0.845,-0.48,
3507,-0.845,-0.47,
3508,-0.84,-0.475,
3509,-0.85,-0.475,
3510,-0.835,-0.46,
3511,-0.85,-0.475,
3512,-0.835,-0.475,
3513,-0.85,-0.5,
3514,-0.865,-0.5,
3515,-0.88,-0.505,
3516,-0.875,-0.5,
3517,-0.87,-0.475,
3518,-0.85,-0.47,
3519,-0.855,-0.445,
3520,-0.845,-0.445,
3521,-0.85,-0.46,
3522,-0.845,-0.475,
3523,-0.825,-0.49,
3524,-0.85,-0.485,
3525,-0.85,-0.52,
3526,-0.86,-0.52,
3527,-0.855,-0.515,
3528,-0.85,-0.5,
3529,-0.845,-0.48,
3530,-0.845,-0.47,
3531,-0.84,-0.48,
3532,-0.845,-0.465,
3533,-0.845,-0.46,
3534,-0.845,-0.465,
3535,-0.855,-0.47,
3536,-0.845,-0.495,
3537,-0.84,-0.505,
3538,-0.865,-0.51,
3539,-0.88,-0.5,
3540,-0.865,-0.49,
3541,-0.85,-0.485,
3542,-0.855,-0.465,
3543,-0.835,-0.465,
3544,-0.82,-0.455,
3545,-0.835,-0.46,
3546,-0.82,-0.465,
3547,-0.84,-0.475,
3548,-0.835,-0.5,
3549,-0.835,-0.495,
3550,-0.86,-0.505,
3551,-0.865,-0.495,
3552,-0.87,-0.505,
3553,-0.86,-0.505,
3554,-0.855,-0.48,
3555,-0.835,-0.47,
3556,-0.835,-0.48,
3557,-0.82,-0.475,
3558,-0.815,-0.465,
3559,-0.815,-0.495,
3560,-0.82,-0.485,
3561,-0.835,-0.48,
3562,-0.835,-0.49,
3563,-0.845,-0.49,
3564,-0.84,-0.485,
3565,-0.845,-0.475,
3566,-0.84,-0.48,
3567,-0.845,-0.465,
3568,-0.81,-0.45,
3569,-0.805,-0.46,
3570,-0.795,-0.47,
3571,-0.805,-0.475,
3572,-0.82,-0.465,
3573,-0.815,-0.485,
3574,-0.82,-0.49,
3575,-0.82,-0.5,
3576,-0.81,-0.48,
3577,-0.79,-0.485,
3578,-0.78,-0.475,
3579,-0.765,-0.46,
3580,-0.74,-0.47,
3581,-0.73,-0.48,
3582,-0.715,-0.465,
3583,-0.71,-0.48,
3584,-0.715,-0.49,
3585,-0.705,-0.495,
3586,-0.705,-0.49,
3587,-0.71,-0.485,
3588,-0.685,-0.48,
3589,-0.64,-0.465,
3590,-0.625,-0.43,
3591,-0.595,-0.415,
3592,-0.56,-0.395,
3593,-0.565,-0.39,
3594,-0.58,-0.395,
3595,-0.6,-0.395,
3596,-0.615,-0.42,
3597,-0.625,-0.44,
3598,-0.645,-0.45,
3599,-0.665,-0.45,
3600,-0.65,-0.43,
3601,-0.655,-0.415,
3602,-0.645,-0.4,
3603,-0.64,-0.385,
3604,-0.635,-0.375,
3605,-0.66,-0.39,
3606,-0.7,-0.405,
3607,-0.73,-0.425,
3608,-0.775,-0.44,
3609,-0.8,-0.475,
3610,-0.825,-0.49,
3611,-0.84,-0.5,
3612,-0.855,-0.5,
3613,-0.855,-0.495,
3614,-0.85,-0.48,
3615,-0.85,-0.48,
3616,-0.845,-0.46,
3617,-0.845,-0.48,
3618,-0.85,-0.48,
3619,-0.86,-0.48,
3620,-0.865,-0.47,
3621,-0.89,-0.475,
3622,-0.89,-0.48,
3623,-0.89,-0.5,
3624,-0.885,-0.49,
3625,-0.885,-0.49,
3626,-0.895,-0.475,
3627,-0.885,-0.475,
3628,-0.87,-0.46,
3629,-0.855,-0.47,
3630,-0.875,-0.475,
3631,-0.885,-0.48,
3632,-0.87,-0.495,
3633,-0.89,-0.515,
3634,-0.885,-0.505,
3635,-0.885,-0.505,
3636,-0.885,-0.51,
3637,-0.89,-0.495,
3638,-0.885,-0.5,
3639,-0.875,-0.48,
3640,-0.87,-0.47,
3641,-0.86,-0.46,
3642,-0.87,-0.485,
3643,-0.86,-0.485,
3644,-0.86,-0.49,
3645,-0.865,-0.49,
3646,-0.875,-0.51,
3647,-0.88,-0.505,
3648,-0.88,-0.49,
3649,-0.875,-0.465,
3650,-0.86,-0.47,
3651,-0.835,-0.45,
3652,-0.82,-0.44,
3653,-0.8,-0.44,
3654,-0.795,-0.44,
3655,-0.775,-0.435,
3656,-0.77,-0.435,
3657,-0.76,-0.425,
3658,-0.755,-0.4,
3659,-0.675,-0.335,
3660,-0.525,-0.245,
3661,-0.3,-0.105,
3662,-0.025,0.065,
3663,0.25,0.24,
3664,0.54,0.395,
3665,0.835,0.465,
3666,1.155,0.49,
3667,1.385,0.495,N
3668,1.475,0.475,
3669,1.36,0.395,
3670,1.03,0.27,
3671,0.515,0.055,
3672,-0.125,-0.225,
3673,-0.765,-0.575,
3674,-1.36,-0.915,
3675,-1.69,-1.19,
3676,-1.745,-1.33,
3677,-1.635,-1.295,
3678,-1.445,-1.165,
3679,-1.24,-0.99,
3680,-1.11,-0.815,
3681,-1.02,-0.71,
3682,-0.97,-0.65,
3683,-0.95,-0.595,
3684,-0.925,-0.6,
3685,-0.905,-0.58,
3686,-0.88,-0.545,
3687,-0.855,-0.55,
3688,-0.855,-0.54,
3689,-0.83,-0.53,
3690,-0.835,-0.505,
3691,-0.85,-0.525,
3692,-0.86,-0.525,
3693,-0.85,-0.505,
3694,-0.86,-0.525,
3695,-0.855,-0.51,
3696,-0.855,-0.49,
3697,-0.85,-0.49,
3698,-0.85,-0.475,
3699,-0.835,-0.465,
3700,-0.815,-0.45,
3701,-0.815,-0.445,
3702,-0.815,-0.45,
3703,-0.82,-0.46,
3704,-0.815,-0.455,
3705,-0.83,-0.475,
3706,-0.84,-0.47,
3707,-0.85,-0.485,
3708,-0.835,-0.465,
3709,-0.835,-0.46,
3710,-0.825,-0.465,
3711,-0.81,-0.44,
3712,-0.795,-0.45,
3713,-0.79,-0.43,
3714,-0.79,-0.45,
3715,-0.8,-0.455,
3716,-0.81,-0.465,
3717,-0.815,-0.47,
3718,-0.82,-0.495,
3719,-0.84,-0.49,
3720,-0.845,-0.475,
3721,-0.845,-0.465,
3722,-0.825,-0.46,
3723,-0.815,-0.44,
3724,-0.8,-0.425,
3725,-0.79,-0.43,
3726,-0.795,-0.43,
3727,-0.79,-0.43,
3728,-0.8,-0.44,
3729,-0.8,-0.45,
3730,-0.805,-0.465,
3731,-0.81,-0.46,
3732,-0.8,-0.45,
3733,-0.795,-0.425,
3734,-0.79,-0.425,
3735,-0.77,-0.425,
3736,-0.765,-0.4,
3737,-0.765,-0.38,
3738,-0.745,-0.405,
3739,-0.74,-0.405,
3740,-0.75,-0.425,
3741,-0.765,-0.43,
3742,-0.775,-0.43,
3743,-0.785,-0.415,
3744,-0.775,-0.42,
3745,-0.77,-0.415,
3746,-0.75,-0.385,
3747,-0.735,-0.365,
3748,-0.7,-0.35,
3749,-0.7,-0.36,
3750,-0.695,-0.345,
3751,-0.685,-0.34,
3752,-0.67,-0.35,
3753,-0.675,-0.345,
3754,-0.665,-0.35,
3755,-0.655,-0.34,
3756,-0.64,-0.315,
3757,-0.635,-0.305,
3758,-0.63,-0.29,
3759,-0.59,-0.27,
3760,-0.56,-0.235,
3761,-0.54,-0.24,
3762,-0.52,-0.245,
3763,-0.5,-0.215,
3764,-0.48,-0.22,
3765,-0.47,-0.22,
3766,-0.465,-0.215,
3767,-0.45,-0.22,
3768,-0.435,-0.215,
3769,-0.415,-0.19,
3770,-0.395,-0.185,
3771,-0.375,-0.155,
3772,-0.355,-0.145,
3773,-0.325,-0.145,
3774,-0.33,-0.14,
3775,-0.325,-0.125,
3776,-0.33,-0.13,
3777,-0.315,-0.14,
3778,-0.3,-0.16,
3779,-0.305,-0.145,
3780,-0.305,-0.15,
3781,-0.315,-0.14,
3782,-0.315,-0.15,
3783,-0.32,-0.14,
3784,-0.325,-0.15,
3785,-0.335,-0.175,
3786,-0.355,-0.18,
3787,-0.385,-0.22,
3788,-0.415,-0.23,
3789,-0.45,-0.265,
3790,-0.47,-0.3,
3791,-0.51,-0.315,
3792,-0.525,-0.325,
3793,-0.565,-0.34,
3794,-0.565,-0.35,
3795,-0.585,-0.36,
3796,-0.61,-0.365,
3797,-0.625,-0.4,
3798,-0.645,-0.41,
3799,-0.665,-0.42,
3800,-0.685,-0.44,
3801,-0.695,-0.465,
3802,-0.71,-0.455,
3803,-0.73,-0.46,
3804,-0.75,-0.485,
3805,-0.76,-0.47,
3806,-0.755,-0.475,
3807,-0.76,-0.47,
3808,-0.76,-0.475,
3809,-0.745,-0.46,
3810,-0.75,-0.48,
3811,-0.745,-0.485,
3812,-0.755,-0.495,
3813,-0.78,-0.515,
3814,-0.785,-0.515,
3815,-0.8,-0.525,
3816,-0.8,-0.525,
3817,-0.8,-0.515,
3818,-0.795,-0.52,
3819,-0.775,-0.505,
3820,-0.79,-0.51,
3821,-0.775,-0.52,
3822,-0.775,-0.515,
3823,-0.78,-0.53,
3824,-0.79,-0.54,
3825,-0.805,-0.555,
3826,-0.815,-0.555,
3827,-0.81,-0.56,
3828,-0.82,-0.545,
3829,-0.81,-0.525,
3830,-0.805,-0.51,
3831,-0.8,-0.52,
3832,-0.785,-0.505,
3833,-0.785,-0.515,
3834,-0.785,-0.51,
3835,-0.795,-0.515,
3836,-0.79,-0.525,
3837,-0.8,-0.525,
3838,-0.82,-0.535,
3839,-0.825,-0.54,
3840,-0.825,-0.535,
3841,-0.815,-0.52,
3842,-0.8,-0.525,
3843,-0.79,-0.51,
3844,-0.77,-0.495,
3845,-0.76,-0.5,
3846,-0.775,-0.5,
3847,-0.76,-0.515,
3848,-0.76,-0.535,
3849,-0.785,-0.54,
3850,-0.77,-0.55,
3851,-0.795,-0.535,
3852,-0.79,-0.525,
3853,-0.775,-0.525,
3854,-0.77,-0.515,
3855,-0.78,-0.5,
3856,-0.765,-0.49,
3857,-0.74,-0.5,
3858,-0.735,-0.49,
3859,-0.745,-0.5,
3860,-0.745,-0.5,
3861,-0.75,-0.505,
3862,-0.75,-0.51,
3863,-0.765,-0.51,
3864,-0.77,-0.505,
3865,-0.765,-0.515,
3866,-0.77,-0.49,
3867,-0.755,-0.49,
3868,-0.75,-0.49,
3869,-0.745,-0.47,
3870,-0.755,-0.485,
3871,-0.745,-0.51,
3872,-0.765,-0.495,
3873,-0.78,-0.505,
3874,-0.79,-0.52,
3875,-0.79,-0.53,
3876,-0.795,-0.545,
3877,-0.795,-0.525,
3878,-0.79,-0.535,
3879,-0.79,-0.5,
3880,-0.765,-0.51,
3881,-0.76,-0.51,
3882,-0.77,-0.51,
3883,-0.775,-0.515,
3884,-0.785,-0.535,
3885,-0.795,-0.545,
3886,-0.82,-0.555,
3887,-0.83,-0.56,
3888,-0.83,-0.545,
3889,-0.825,-0.525,
3890,-0.815,-0.525,
3891,-0.81,-0.525,
3892,-0.785,-0.515,
3893,-0.795,-0.515,
3894,-0.78,-0.52,
3895,-0.8,-0.515,
3896,-0.82,-0.525,
3897,-0.82,-0.545,
3898,-0.83,-0.56,
3899,-0.83,-0.555,
3900,-0.83,-0.57,
3901,-0.82,-0.55,
3902,-0.82,-0.555,
3903,-0.8,-0.56,
3904,-0.805,-0.54,
3905,-0.805,-0.545,
3906,-0.805,-0.54,
3907,-0.81,-0.55,
3908,-0.825,-0.57,
3909,-0.835,-0.565,
3910,-0.84,-0.58,
3911,-0.835,-0.565,
3912,-0.855,-0.57,
3913,-0.84,-0.575,
3914,-0.84,-0.57,
3915,-0.83,-0.54,
3916,-0.835,-0.555,
3917,-0.825,-0.545,
3918,-0.84,-0.535,
3919,-0.83,-0.545,
3920,-0.825,-0.56,
3921,-0.855,-0.56,
3922,-0.855,-0.575,
3923,-0.85,-0.57,
3924,-0.85,-0.565,
3925,-0.85,-0.585,
3926,-0.855,-0.56,
3927,-0.84,-0.55,
3928,-0.83,-0.56,
3929,-0.82,-0.54,
3930,-0.825,-0.55,
3931,-0.82,-0.575,
3932,-0.845,-0.585,
3933,-0.855,-0.585,
3934,-0.855,-0.61,
3935,-0.87,-0.6,
3936,-0.865,-0.6,
3937,-0.86,-0.58,
3938,-0.855,-0.58,
3939,-0.86,-0.56,
3940,-0.86,-0.555,
3941,-0.85,-0.56,
3942,-0.86,-0.57,
3943,-0.875,-0.58,
3944,-0.855,-0.57,
3945,-0.875,-0.595,
3946,-0.875,-0.595,
3947,-0.865,-0.59,
3948,-0.87,-0.595,
3949,-0.85,-0.585,
3950,-0.855,-0.58,
3951,-0.845,-0.58,
3952,-0.835,-0.57,
3953,-0.835,-0.58,
3954,-0.835,-0.57,
3955,-0.835,-0.585,
3956,-0.85,-0.6,
3957,-0.87,-0.605,
3958,-0.86,-0.605,
3959,-0.86,-0.625,
3960,-0.855,-0.61,
3961,-0.86,-0.61,
3962,-0.865,-0.595,
3963,-0.85,-0.585,
3964,-0.845,-0.585,
3965,-0.835,-0.57,
3966,-0.835,-0.575,
3967,-0.845,-0.585,
3968,-0.845,-0.585,
3969,-0.855,-0.59,
3970,-0.865,-0.59,
3971,-0.87,-0.605,
3972,-0.86,-0.605,
3973,-0.86,-0.585,
3974,-0.86,-0.585,
3975,-0.835,-0.56,
3976,-0.825,-0.55,
3977,-0.83,-0.56,
3978,-0.835,-0.555,
3979,-0.82,-0.57,
3980,-0.84,-0.585,
3981,-0.84,-0.61,
3982,-0.855,-0.605,
3983,-0.86,-0.61,
3984,-0.865,-0.605,
3985,-0.85,-0.635,
3986,-0.855,-0.61,
3987,-0.865,-0.585,
3988,-0.85,-0.575,
3989,-0.83,-0.59,
3990,-0.83,-0.575,
3991,-0.845,-0.58,
3992,-0.845,-0.575,
3993,-0.855,-0.59,
3994,-0.865,-0.61,
3995,-0.89,-0.595,
3996,-0.875,-0.595,
3997,-0.87,-0.595,
3998,-0.85,-0.575,
3999,-0.85,-0.565,
4000,-0.845,-0.545,
4001,-0.83,-0.565,
4002,-0.825,-0.56,
4003,-0.825,-0.575,
4004,-0.84,-0.585,
4005,-0.855,-0.58,
4006,-0.86,-0.59,
4007,-0.855,-0.605,
4008,-0.86,-0.59,
4009,-0.865,-0.595,
4010,-0.85,-0.575,
4011,-0.855,-0.585,
4012,-0.825,-0.57,
4013,-0.82,-0.58,
4014,-0.84,-0.58,
4015,-0.825,-0.58,
4016,-0.835,-0.585,
4017,-0.85,-0.6,
4018,-0.845,-0.615,
4019,-0.845,-0.615,
4020,-0.85,-0.6,
4021,-0.85,-0.58,
4022,-0.845,-0.56,
4023,-0.84,-0.555,
4024,-0.845,-0.545,
4025,-0.82,-0.56,
4026,-0.805,-0.56,
4027,-0.825,-0.57,
4028,-0.82,-0.585,
4029,-0.84,-0.585,
4030,-0.845,-0.575,
4031,-0.845,-0.59,
4032,-0.85,-0.595,
4033,-0.85,-0.59,
4034,-0.835,-0.56,
4035,-0.825,-0.56,
4036,-0.815,-0.56,
4037,-0.815,-0.56,
4038,-0.805,-0.56,
4039,-0.825,-0.58,
4040,-0.82,-0.575,
4041,-0.84,-0.59,
4042,-0.85,-0.59,
4043,-0.84,-0.605,
4044,-0.845,-0.6,
4045,-0.85,-0.585,
4046,-0.86,-0.57,
4047,-0.84,-0.56,
4048,-0.815,-0.555,
4049,-0.805,-0.54,
4050,-0.815,-0.56,
4051,-0.82,-0.555,
4052,-0.825,-0.57,
4053,-0.82,-0.57,
4054,-0.83,-0.58,
4055,-0.835,-0.59,
4056,-0.84,-0.585,
4057,-0.85,-0.585,
4058,-0.825,-0.565,
4059,-0.82,-0.56,
4060,-0.815,-0.535,
4061,-0.8,-0.55,
4062,-0.79,-0.55,
4063,-0.795,-0.555,
4064,-0.795,-0.56,
4065,-0.795,-0.585,
4066,-0.795,-0.58,
4067,-0.78,-0.585,
4068,-0.77,-0.58,
4069,-0.735,-0.59,
4070,-0.72,-0.57,
4071,-0.71,-0.56,
4072,-0.71,-0.54,
4073,-0.695,-0.54,
4074,-0.69,-0.56,
4075,-0.685,-0.55,
4076,-0.67,-0.565,
4077,-0.67,-0.555,
4078,-0.66,-0.555,
4079,-0.64,-0.545,
4080,-0.64,-0.52,
4081,-0.64,-0.53,
4082,-0.63,-0.495,
4083,-0.64,-0.5,
4084,-0.64,-0.505,
4085,-0.65,-0.515,
4086,-0.66,-0.52,
4087,-0.65,-0.515,
4088,-0.68,-0.525,
4089,-0.695,-0.53,
4090,-0.71,-0.52,
4091,-0.72,-0.525,
4092,-0.72,-0.515,
4093,-0.72,-0.505,
4094,-0.725,-0.5,
4095,-0.73,-0.495,
4096,-0.745,-0.505,
4097,-0.75,-0.515,
4098,-0.78,-0.53,
4099,-0.8,-0.545,
4100,-0.84,-0.555,
4101,-0.865,-0.575,
4102,-0.88,-0.585,
4103,-0.885,-0.575,
4104,-0.9,-0.585,
4105,-0.895,-0.595,
4106,-0.915,-0.58,
4107,-0.915,-0.575,
4108,-0.905,-0.555,
4109,-0.915,-0.55,
4110,-0.885,-0.565,
4111,-0.895,-0.575,
4112,-0.905,-0.575,
4113,-0.9,-0.585,
4114,-0.92,-0.585,
4115,-0.925,-0.575,
4116,-0.945,-0.59,
4117,-0.94,-0.585,
4118,-0.91,-0.58,
4119,-0.895,-0.56,
4120,-0.89,-0.57,
4121,-0.885,-0.56,
4122,-0.875,-0.585,
4123,-0.88,-0.6,
4124,-0.885,-0.575,
4125,-0.89,-0.615,
4126,-0.895,-0.615,
4127,-0.905,-0.615,
4128,-0.91,-0.605,
4129,-0.915,-0.59,
4130,-0.895,-0.57,
4131,-0.89,-0.575,
4132,-0.87,-0.555,
4133,-0.86,-0.555,
4134,-0.865,-0.555,
4135,-0.87,-0.555,
4136,-0.86,-0.565,
4137,-0.86,-0.565,
4138,-0.865,-0.585,
4139,-0.865,-0.565,
4140,-0.85,-0.555,
4141,-0.84,-0.535,
4142,-0.81,-0.515,
4143,-0.8,-0.51,
4144,-0.75,-0.465,
4145,-0.69,-0.43,
4146,-0.585,-0.355,
4147,-0.4,-0.26,
4148,-0.17,-0.135,
4149,0.08,0.01,
4150,0.34,0.165,
4151,0.61,0.245,
4152,0.895,0.29,
4153,1.185,0.31,
4154,1.405,0.335,N
4155,1.535,0.365,
4156,1.475,0.36,
4157,1.205,0.295,
4158,0.725,0.155,
4159,0.125,-0.05,
4160,-0.515,-0.33,
4161,-1.12,-0.68,
4162,-1.525,-1.01,
4163,-1.67,-1.235,
4164,-1.615,-1.32,
4165,-1.43,-1.26,
4166,-1.22,-1.095,
4167,-1.04,-0.925,
4168,-0.945,-0.76,
4169,-0.925,-0.675,
4170,-0.945,-0.645,
4171,-0.98,-0.645,
4172,-0.965,-0.67,
4173,-0.97,-0.665,
4174,-0.94,-0.67,
4175,-0.925,-0.66,
4176,-0.915,-0.64,
4177,-0.89,-0.625,
4178,-0.885,-0.6,
4179,-0.885,-0.59,
4180,-0.89,-0.565,
4181,-0.89,-0.585,
4182,-0.9,-0.58,
4183,-0.905,-0.58,
4184,-0.915,-0.58,
4185,-0.915,-0.585,
4186,-0.91,-0.59,
4187,-0.915,-0.585,
4188,-0.915,-0.58,
4189,-0.91,-0.56,
4190,-0.9,-0.555,
4191,-0.885,-0.55,
4192,-0.88,-0.52,
4193,-0.88,-0.52,
4194,-0.885,-0.53,
4195,-0.88,-0.53,
4196,-0.88,-0.555,
4197,-0.895,-0.545,
4198,-0.905,-0.56,
4199,-0.9,-0.555,
4200,-0.905,-0.555,
4201,-0.905,-0.55,
4202,-0.9,-0.545,
4203,-0.895,-0.53,
4204,-0.895,-0.54,
4205,-0.875,-0.52,
4206,-0.875,-0.53,
4207,-0.88,-0.525,
4208,-0.88,-0.545,
4209,-0.885,-0.555,
4210,-0.895,-0.575,
4211,-0.91,-0.565,
4212,-0.905,-0.55,
4213,-0.915,-0.55,
4214,-0.9,-0.535,
4215,-0.88,-0.525,
4216,-0.875,-0.51,
4217,-0.88,-0.495,
4218,-0.86,-0.49,
4219,-0.87,-0.5,
4220,-0.865,-0.505,
4221,-0.87,-0.515,
4222,-0.88,-0.52,
4223,-0.87,-0.52,
4224,-0.88,-0.505,
4225,-0.87,-0.505,
4226,-0.885,-0.5,
4227,-0.86,-0.475,
4228,-0.84,-0.475,
4229,-0.825,-0.47,
4230,-0.825,-0.48,
4231,-0.825,-0.47,
4232,-0.835,-0.49,
4233,-0.84,-0.475,
4234,-0.85,-0.485,
4235,-0.845,-0.5,
4236,-0.84,-0.495,
4237,-0.83,-0.485,
4238,-0.815,-0.485,
4239,-0.79,-0.45,
4240,-0.765,-0.44,
4241,-0.77,-0.425,
4242,-0.755,-0.42,
4243,-0.74,-0.425,
4244,-0.735,-0.415,
4245,-0.73,-0.4,
4246,-0.73,-0.4,
4247,-0.715,-0.41,
4248,-0.715,-0.385,
4249,-0.705,-0.37,
4250,-0.68,-0.365,
4251,-0.65,-0.335,
4252,-0.625,-0.33,
4253,-0.61,-0.31,
4254,-0.595,-0.295,
4255,-0.565,-0.295,
4256,-0.555,-0.3,
4257,-0.545,-0.295,
4258,-0.54,-0.3,
4259,-0.515,-0.305,
4260,-0.515,-0.285,
4261,-0.495,-0.275,
4262,-0.475,-0.26,
4263,-0.445,-0.24,
4264,-0.415,-0.235,
4265,-0.4,-0.215,
4266,-0.385,-0.215,
4267,-0.37,-0.21,
4268,-0.36,-0.195,
4269,-0.355,-0.215,
4270,-0.35,-0.21,
4271,-0.36,-0.2,
4272,-0.36,-0.2,
4273,-0.365,-0.19,
4274,-0.34,-0.19,
4275,-0.345,-0.19,
4276,-0.355,-0.19,
4277,-0.355,-0.19,
4278,-0.375,-0.21,
4279,-0.395,-0.245,
4280,-0.425,-0.24,
4281,-0.46,-0.295,
4282,-0.48,-0.305,
4283,-0.515,-0.335,
4284,-0.535,-0.345,
4285,-0.54,-0.355,
4286,-0.575,-0.375,
4287,-0.59,-0.385,
4288,-0.61,-0.405,
4289,-0.635,-0.415,
4290,-0.65,-0.44,
4291,-0.675,-0.45,
4292,-0.685,-0.475,
4293,-0.715,-0.49,
4294,-0.745,-0.505,
4295,-0.765,-0.515,
4296,-0.775,-0.52,
4297,-0.785,-0.52,
4298,-0.8,-0.52,
4299,-0.785,-0.51,
4300,-0.78,-0.52,
4301,-0.78,-0.52,
4302,-0.775,-0.53,
4303,-0.79,-0.525,
4304,-0.8,-0.545,
4305,-0.82,-0.565,
4306,-0.83,-0.565,
4307,-0.835,-0.58,
4308,-0.83,-0.565,
4309,-0.83,-0.555,
4310,-0.825,-0.555,
4311,-0.83,-0.55,
4312,-0.81,-0.54,
4313,-0.815,-0.54,
4314,-0.8,-0.56,
4315,-0.81,-0.56,
4316,-0.81,-0.575,
4317,-0.825,-0.59,
4318,-0.84,-0.585,
4319,-0.855,-0.6,
4320,-0.845,-0.59,
4321,-0.845,-0.58,
4322,-0.84,-0.565,
4323,-0.835,-0.57,
4324,-0.82,-0.565,
4325,-0.815,-0.55,
4326,-0.82,-0.535,
4327,-0.805,-0.55,
4328,-0.825,-0.555,
4329,-0.82,-0.595,
4330,-0.845,-0.58,
4331,-0.85,-0.58,
4332,-0.865,-0.6,
4333,-0.855,-0.59,
4334,-0.835,-0.575,
4335,-0.83,-0.565,
4336,-0.82,-0.555,
4337,-0.795,-0.55,
4338,-0.805,-0.555,
4339,-0.795,-0.55,
4340,-0.8,-0.55,
4341,-0.82,-0.575,
4342,-0.825,-0.575,
4343,-0.83,-0.6,
4344,-0.83,-0.595,
4345,-0.83,-0.585,
4346,-0.83,-0.575,
4347,-0.825,-0.56,
4348,-0.815,-0.56,
4349,-0.81,-0.54,
4350,-0.8,-0.545,
4351,-0.795,-0.54,
4352,-0.805,-0.555,
4353,-0.83,-0.565,
4354,-0.845,-0.56,
4355,-0.845,-0.565,
4356,-0.85,-0.56,
4357,-0.83,-0.56,
4358,-0.83,-0.55,
4359,-0.815,-0.54,
4360,-0.81,-0.53,
4361,-0.82,-0.535,
4362,-0.82,-0.545,
4363,-0.815,-0.53,
4364,-0.805,-0.55,
4365,-0.835,-0.56,
4366,-0.825,-0.575,
4367,-0.83,-0.575,
4368,-0.84,-0.595,
4369,-0.845,-0.595,
4370,-0.83,-0.575,
4371,-0.825,-0.555,
4372,-0.825,-0.56,
4373,-0.815,-0.535,
4374,-0.82,-0.55,
4375,-0.825,-0.57,
4376,-0.835,-0.575,
4377,-0.84,-0.58,
4378,-0.855,-0.575,
4379,-0.86,-0.595,
4380,-0.86,-0.58,
4381,-0.865,-0.58,
4382,-0.85,-0.58,
4383,-0.85,-0.58,
4384,-0.85,-0.56,
4385,-0.835,-0.545,
4386,-0.84,-0.55,
4387,-0.845,-0.595,
4388,-0.845,-0.58,
4389,-0.85,-0.595,
4390,-0.875,-0.595,
4391,-0.87,-0.6,
4392,-0.875,-0.6,
4393,-0.875,-0.6,
4394,-0.885,-0.58,
4395,-0.86,-0.575,
4396,-0.86,-0.565,
4397,-0.84,-0.56,
4398,-0.84,-0.585,
4399,-0.85,-0.59,
4400,-0.85,-0.59,
4401,-0.875,-0.6,
4402,-0.875,-0.61,
4403,-0.88,-0.61,
4404,-0.88,-0.61,
4405,-0.89,-0.61,
4406,-0.88,-0.6,
4407,-0.885,-0.59,
4408,-0.87,-0.575,
4409,-0.87,-0.57,
4410,-0.865,-0.59,
4411,-0.86,-0.58,
4412,-0.88,-0.585,
4413,-0.89,-0.59,
4414,-0.895,-0.605,
4415,-0.89,-0.615,
4416,-0.895,-0.61,
4417,-0.91,-0.61,
4418,-0.9,-0.615,
4419,-0.895,-0.6,
4420,-0.87,-0.58,
4421,-0.86,-0.585,
4422,-0.865,-0.59,
4423,-0.87,-0.59,
4424,-0.87,-0.6,
4425,-0.885,-0.62,
4426,-0.895,-0.635,
4427,-0.9,-0.625,
4428,-0.915,-0.61,
4429,-0.9,-0.605,
4430,-0.915,-0.6,
4431,-0.9,-0.595,
4432,-0.875,-0.57,
4433,-0.88,-0.565,
4434,-0.87,-0.57,
4435,-0.865,-0.585,
4436,-0.89,-0.58,
4437,-0.9,-0.595,
4438,-0.91,-0.62,
4439,-0.91,-0.61,
4440,-0.905,-0.6,
4441,-0.925,-0.585,
4442,-0.91,-0.595,
4443,-0.9,-0.57,
4444,-0.87,-0.57,
4445,-0.87,-0.57,
4446,-0.875,-0.565,
4447,-0.875,-0.575,
4448,-0.885,-0.595,
4449,-0.905,-0.59,
4450,-0.91,-0.615,
4451,-0.905,-0.615,
4452,-0.91,-0.62,
4453,-0.91,-0.62,
4454,-0.895,-0.605,
4455,-0.89,-0.585,
4456,-0.89,-0.575,
4457,-0.885,-0.565,
4458,-0.87,-0.58,
4459,-0.87,-0.575,
4460,-0.875,-0.59,
4461,-0.885,-0.59,
4462,-0.905,-0.615,
4463,-0.915,-0.605,
4464,-0.895,-0.595,
4465,-0.91,-0.57,
4466,-0.9,-0.59,
4467,-0.89,-0.565,
4468,-0.88,-0.555,
4469,-0.87,-0.56,
4470,-0.885,-0.56,
4471,-0.88,-0.57,
4472,-0.88,-0.58,
4473,-0.895,-0.59,
4474,-0.89,-0.605,
4475,-0.92,-0.625,
4476,-0.915,-0.615,
4477,-0.9,-0.615,
4478,-0.895,-0.585,
4479,-0.88,-0.58,
4480,-0.88,-0.57,
4481,-0.855,-0.575,
4482,-0.86,-0.57,
4483,-0.865,-0.58,
4484,-0.865,-0.59,
4485,-0.885,-0.59,
4486,-0.885,-0.595,
4487,-0.895,-0.605,
4488,-0.915,-0.59,
4489,-0.91,-0.585,
4490,-0.905,-0.58,
4491,-0.88,-0.565,
4492,-0.88,-0.55,
4493,-0.87,-0.53,
4494,-0.865,-0.56,
4495,-0.86,-0.555,
4496,-0.89,-0.57,
4497,-0.885,-0.57,
4498,-0.89,-0.585,
4499,-0.89,-0.595,
4500,-0.89,-0.59,
4501,-0.885,-0.585,
4502,-0.88,-0.57,
4503,-0.875,-0.555,
4504,-0.86,-0.555,
4505,-0.86,-0.565,
4506,-0.87,-0.57,
4507,-0.855,-0.565,
4508,-0.87,-0.56,
4509,-0.88,-0.565,
4510,-0.885,-0.575,
4511,-0.895,-0.575,
4512,-0.885,-0.575,
4513,-0.88,-0.56,
4514,-0.87,-0.57,
4515,-0.875,-0.56,
4516,-0.87,-0.57,
4517,-0.865,-0.565,
4518,-0.85,-0.55,
4519,-0.855,-0.56,
4520,-0.855,-0.55,
4521,-0.875,-0.56,
4522,-0.875,-0.575,
4523,-0.87,-0.565,
4524,-0.885,-0.56,
4525,-0.875,-0.57,
4526,-0.89,-0.545,
4527,-0.87,-0.56,
4528,-0.87,-0.545,
4529,-0.87,-0.555,
4530,-0.87,-0.565,
4531,-0.87,-0.56,
4532,-0.85,-0.56,
4533,-0.86,-0.56,
4534,-0.88,-0.575,
4535,-0.875,-0.585,
4536,-0.89,-0.57,
4537,-0.895,-0.575,
4538,-0.89,-0.56,
4539,-0.875,-0.535,
4540,-0.855,-0.53,
4541,-0.83,-0.525,
4542,-0.82,-0.535,
4543,-0.805,-0.525,
4544,-0.8,-0.53,
4545,-0.795,-0.545,
4546,-0.79,-0.555,
4547,-0.79,-0.55,
4548,-0.77,-0.56,
4549,-0.765,-0.555,
4550,-0.755,-0.535,
4551,-0.74,-0.535,
4552,-0.74,-0.52,
4553,-0.725,-0.51,
4554,-0.715,-0.515,
4555,-0.675,-0.51,
4556,-0.65,-0.5,
4557,-0.63,-0.5,
4558,-0.625,-0.505,
4559,-0.625,-0.505,
4560,-0.64,-0.51,
4561,-0.66,-0.505,
4562,-0.67,-0.485,
4563,-0.685,-0.485,
4564,-0.69,-0.485,
4565,-0.68,-0.465,
4566,-0.69,-0.47,
4567,-0.7,-0.47,
4568,-0.71,-0.46,
4569,-0.72,-0.455,
4570,-0.735,-0.47,
4571,-0.755,-0.47,
4572,-0.785,-0.485,
4573,-0.825,-0.495,
4574,-0.85,-0.515,
4575,-0.855,-0.51,
4576,-0.875,-0.52,
4577,-0.87,-0.515,
4578,-0.895,-0.53,
4579,-0.88,-0.52,
4580,-0.895,-0.52,
4581,-0.905,-0.535,
4582,-0.915,-0.555,
4583,-0.925,-0.555,
4584,-0.94,-0.57,
4585,-0.94,-0.565,
4586,-0.925,-0.56,
4587,-0.915,-0.55,
4588,-0.9,-0.525,
4589,-0.885,-0.51,
4590,-0.9,-0.535,
4591,-0.92,-0.53,
4592,-0.915,-0.545,
4593,-0.92,-0.54,
4594,-0.93,-0.55,
4595,-0.94,-0.555,
4596,-0.93,-0.56,
4597,-0.93,-0.555,
4598,-0.915,-0.55,
4599,-0.905,-0.515,
4600,-0.905,-0.51,
4601,-0.89,-0.515,
4602,-0.885,-0.525,
4603,-0.905,-0.52,
4604,-0.9,-0.51,
4605,-0.9,-0.52,
4606,-0.905,-0.54,
4607,-0.9,-0.545,
4608,-0.915,-0.545,
4609,-0.895,-0.545,
4610,-0.905,-0.535,
4611,-0.89,-0.53,
4612,-0.875,-0.51,
4613,-0.855,-0.51,
4614,-0.84,-0.51,
4615,-0.835,-0.505,
4616,-0.835,-0.505,
4617,-0.83,-0.52,
4618,-0.83,-0.5,
4619,-0.84,-0.49,
4620,-0.82,-0.48,
4621,-0.775,-0.42,
4622,-0.68,-0.35,
4623,-0.51,-0.225,
4624,-0.285,-0.085,
4625,-0.015,0.085,
4626,0.255,0.225,
4627,0.535,0.345,
4628,0.845,0.405,
4629,1.12,0.41,
4630,1.295,0.405,N
4631,1.305,0.365,
4632,1.13,0.285,
4633,0.755,0.17,
4634,0.25,-0.015,
4635,-0.325,-0.27,
4636,-0.875,-0.565,
4637,-1.32,-0.875,
4638,-1.585,-1.15,
4639,-1.615,-1.28,
4640,-1.55,-1.3,
4641,-1.375,-1.185,
4642,-1.235,-1.05,
4643,-1.13,-0.89,
4644,-1.06,-0.785,
4645,-1.05,-0.7,
4646,-1.02,-0.64,
4647,-0.985,-0.615,
4648,-0.955,-0.595,
4649,-0.895,-0.58,
4650,-0.86,-0.565,
4651,-0.85,-0.54,
4652,-0.85,-0.535,
4653,-0.865,-0.535,
4654,-0.89,-0.545,
4655,-0.905,-0.54,
4656,-0.9,-0.52,
4657,-0.895,-0.525,
4658,-0.895,-0.51,
4659,-0.88,-0.51,
4660,-0.88,-0.485,
4661,-0.855,-0.495,
4662,-0.845,-0.48,
4663,-0.84,-0.485,
4664,-0.85,-0.495,
4665,-0.86,-0.5,
4666,-0.875,-0.5,
4667,-0.885,-0.51,
4668,-0.89,-0.48,
4669,-0.88,-0.5,
4670,-0.88,-0.485,
4671,-0.875,-0.48,
4672,-0.855,-0.455,
4673,-0.85,-0.445,
4674,-0.85,-0.465,
4675,-0.855,-0.455,
4676,-0.87,-0.455,
4677,-0.885,-0.465,
4678,-0.9,-0.46,
4679,-0.88,-0.475,
4680,-0.885,-0.48,
4681,-0.88,-0.48,
4682,-0.89,-0.445,
4683,-0.875,-0.43,
4684,-0.86,-0.425,
4685,-0.83,-0.415,
4686,-0.825,-0.435,
4687,-0.82,-0.43,
4688,-0.83,-0.445,
4689,-0.835,-0.46,
4690,-0.855,-0.465,
4691,-0.85,-0.48,
4692,-0.875,-0.47,
4693,-0.86,-0.47,
4694,-0.845,-0.455,
4695,-0.835,-0.43,
4696,-0.84,-0.42,
4697,-0.825,-0.425,
4698,-0.82,-0.425,
4699,-0.82,-0.41,
4700,-0.815,-0.43,
4701,-0.825,-0.44,
4702,-0.835,-0.445,
4703,-0.86,-0.425,
4704,-0.815,-0.42,
4705,-0.82,-0.395,
4706,-0.81,-0.39,
4707,-0.8,-0.385,
4708,-0.77,-0.36,
4709,-0.75,-0.355,
4710,-0.745,-0.37,
4711,-0.735,-0.38,
4712,-0.73,-0.375,
4713,-0.74,-0.37,
4714,-0.725,-0.37,
4715,-0.73,-0.375,
4716,-0.72,-0.355,
4717,-0.705,-0.36,
4718,-0.695,-0.325,
4719,-0.675,-0.315,
4720,-0.64,-0.295,
4721,-0.6,-0.275,
4722,-0.595,-0.26,
4723,-0.575,-0.255,
4724,-0.58,-0.27,
4725,-0.585,-0.26,
4726,-0.57,-0.25,
4727,-0.555,-0.245,
4728,-0.54,-0.25,
4729,-0.525,-0.24,
4730,-0.505,-0.225,
4731,-0.485,-0.215,
4732,-0.445,-0.2,
4733,-0.43,-0.18,
4734,-0.41,-0.17,
4735,-0.395,-0.16,
4736,-0.4,-0.155,
4737,-0.38,-0.17,
4738,-0.38,-0.16,
4739,-0.38,-0.18,
4740,-0.36,-0.17,
4741,-0.345,-0.155,
4742,-0.34,-0.13,
4743,-0.325,-0.12,
4744,-0.335,-0.14,
4745,-0.33,-0.13,
4746,-0.315,-0.135,
4747,-0.345,-0.15,
4748,-0.35,-0.17,
4749,-0.385,-0.19,
4750,-0.39,-0.2,
4751,-0.415,-0.22,
4752,-0.43,-0.215,
4753,-0.465,-0.22,
4754,-0.475,-0.23,
4755,-0.495,-0.24,
4756,-0.51,-0.245,
4757,-0.505,-0.25,
4758,-0.535,-0.29,
4759,-0.575,-0.29,
4760,-0.595,-0.325,
4761,-0.61,-0.34,
4762,-0.66,-0.365,
4763,-0.68,-0.385,
4764,-0.715,-0.395,
4765,-0.72,-0.41,
4766,-0.72,-0.4,
4767,-0.74,-0.405,
4768,-0.75,-0.41,
4769,-0.755,-0.42,
4770,-0.755,-0.435,
4771,-0.735,-0.42,
4772,-0.735,-0.445,
4773,-0.75,-0.45,
4774,-0.77,-0.465,
4775,-0.795,-0.47,
4776,-0.795,-0.48,
4777,-0.8,-0.49,
4778,-0.78,-0.46,
4779,-0.79,-0.47,
4780,-0.785,-0.45,
4781,-0.785,-0.44,
4782,-0.79,-0.45,
4783,-0.775,-0.45,
4784,-0.78,-0.46,
4785,-0.775,-0.475,
4786,-0.79,-0.485,
4787,-0.81,-0.48,
4788,-0.815,-0.49,
4789,-0.82,-0.475,
4790,-0.805,-0.47,
4791,-0.795,-0.455,
4792,-0.785,-0.47,
4793,-0.775,-0.46,
4794,-0.79,-0.47,
4795,-0.775,-0.465,
4796,-0.785,-0.47,
4797,-0.795,-0.46,
4798,-0.815,-0.465,
4799,-0.795,-0.47,
4800,-0.81,-0.475,
4801,-0.815,-0.48,
4802,-0.8,-0.48,
4803,-0.79,-0.475,
4804,-0.785,-0.47,
4805,-0.755,-0.47,
4806,-0.755,-0.465,
4807,-0.765,-0.45,
4808,-0.755,-0.46,
4809,-0.775,-0.46,
4810,-0.78,-0.46,
4811,-0.785,-0.465,
4812,-0.79,-0.47,
4813,-0.79,-0.465,
4814,-0.79,-0.44,
4815,-0.775,-0.43,
4816,-0.74,-0.415,
4817,-0.725,-0.42,
4818,-0.72,-0.42,
4819,-0.715,-0.43,
4820,-0.725,-0.43,
4821,-0.73,-0.44,
4822,-0.755,-0.455,
4823,-0.765,-0.465,
4824,-0.76,-0.455,
4825,-0.76,-0.445,
4826,-0.735,-0.455,
4827,-0.75,-0.44,
4828,-0.725,-0.42,
4829,-0.725,-0.41,
4830,-0.73,-0.41,
4831,-0.725,-0.42,
4832,-0.71,-0.425,
4833,-0.735,-0.425,
4834,-0.735,-0.44,
4835,-0.745,-0.45,
4836,-0.74,-0.425,
4837,-0.77,-0.435,
4838,-0.75,-0.425,
4839,-0.755,-0.415,
4840,-0.745,-0.405,
4841,-0.745,-0.4,
4842,-0.755,-0.395,
4843,-0.75,-0.41,
4844,-0.755,-0.42,
4845,-0.765,-0.43,
4846,-0.76,-0.425,
4847,-0.765,-0.45,
4848,-0.77,-0.45,
4849,-0.78,-0.455,
4850,-0.77,-0.455,
4851,-0.77,-0.45,
4852,-0.765,-0.45,
4853,-0.76,-0.44,
4854,-0.755,-0.43,
4855,-0.765,-0.445,
4856,-0.78,-0.455,
4857,-0.78,-0.46,
4858,-0.79,-0.465,
4859,-0.785,-0.455,
4860,-0.785,-0.455,
4861,-0.795,-0.47,
4862,-0.795,-0.445,
4863,-0.785,-0.455,
4864,-0.785,-0.43,
4865,-0.775,-0.42,
4866,-0.775,-0.425,
4867,-0.78,-0.415,
4868,-0.785,-0.415,
4869,-0.79,-0.43,
4870,-0.8,-0.45,
4871,-0.81,-0.475,
4872,-0.81,-0.47,
4873,-0.815,-0.47,
4874,-0.8,-0.475,
4875,-0.795,-0.47,
4876,-0.8,-0.46,
4877,-0.795,-0.445,
4878,-0.785,-0.455,
4879,-0.77,-0.46,
4880,-0.78,-0.47,
4881,-0.785,-0.475,
4882,-0.805,-0.48,
4883,-0.81,-0.5,
4884,-0.815,-0.485,
4885,-0.82,-0.48,
4886,-0.83,-0.465,
4887,-0.8,-0.455,
4888,-0.8,-0.445,
4889,-0.79,-0.45,
4890,-0.79,-0.45,
4891,-0.795,-0.435,
4892,-0.8,-0.465,
4893,-0.82,-0.465,
4894,-0.82,-0.475,
4895,-0.845,-0.485,
4896,-0.835,-0.485,
4897,-0.83,-0.47,
4898,-0.81,-0.46,
4899,-0.8,-0.46,
4900,-0.8,-0.45,
4901,-0.785,-0.425,
4902,-0.78,-0.43,
4903,-0.785,-0.435,
4904,-0.795,-0.45,
4905,-0.8,-0.465,
4906,-0.81,-0.475,
4907,-0.82,-0.485,
4908,-0.805,-0.485,
4909,-0.8,-0.485,
4910,-0.805,-0.48,
4911,-0.805,-0.47,
4912,-0.8,-0.455,
4913,-0.785,-0.445,
4914,-0.79,-0.445,
4915,-0.78,-0.44,
4916,-0.79,-0.45,
4917,-0.805,-0.46,
4918,-0.805,-0.48,
4919,-0.805,-0.49,
4920,-0.815,-0.485,
4921,-0.825,-0.47,
4922,-0.825,-0.485,
4923,-0.815,-0.48,
4924,-0.795,-0.46,
4925,-0.8,-0.445,
4926,-0.795,-0.455,
4927,-0.79,-0.465,
4928,-0.785,-0.47,
4929,-0.795,-0.49,
4930,-0.81,-0.48,
4931,-0.81,-0.51,
4932,-0.825,-0.495,
4933,-0.81,-0.5,
4934,-0.805,-0.485,
4935,-0.805,-0.46,
4936,-0.79,-0.47,
4937,-0.78,-0.45,
4938,-0.77,-0.455,
4939,-0.785,-0.46,
4940,-0.78,-0.465,
4941,-0.79,-0.46,
4942,-0.785,-0.465,
4943,-0.79,-0.46,
4944,-0.795,-0.485,
4945,-0.8,-0.475,
4946,-0.8,-0.46,
4947,-0.795,-0.45,
4948,-0.79,-0.45,
4949,-0.78,-0.435,
4950,-0.785,-0.435,
4951,-0.78,-0.43,
4952,-0.775,-0.455,
4953,-0.78,-0.46,
4954,-0.785,-0.465,
4955,-0.79,-0.465,
4956,-0.815,-0.47,
4957,-0.815,-0.485,
4958,-0.79,-0.47,
4959,-0.795,-0.46,
4960,-0.775,-0.465,
4961,-0.765,-0.44,
4962,-0.765,-0.465,
4963,-0.76,-0.455,
4964,-0.78,-0.47,
4965,-0.79,-0.485,
4966,-0.8,-0.47,
4967,-0.79,-0.485,
4968,-0.795,-0.455,
4969,-0.8,-0.46,
4970,-0.8,-0.46,
4971,-0.805,-0.45,
4972,-0.78,-0.445,
4973,-0.76,-0.43,
4974,-0.755,-0.415,
4975,-0.735,-0.45,
4976,-0.735,-0.44,
4977,-0.765,-0.45,
4978,-0.775,-0.46,
4979,-0.75,-0.465,
4980,-0.755,-0.455,
4981,-0.74,-0.46,
4982,-0.73,-0.435,
4983,-0.7,-0.445,
4984,-0.685,-0.42,
4985,-0.66,-0.43,
4986,-0.65,-0.445,
4987,-0.665,-0.435,
4988,-0.655,-0.44,
4989,-0.66,-0.44,
4990,-0.64,-0.46,
4991,-0.62,-0.455,
4992,-0.605,-0.445,
4993,-0.57,-0.43,
4994,-0.545,-0.42,
4995,-0.545,-0.415,
4996,-0.535,-0.385,
4997,-0.545,-0.38,
4998,-0.55,-0.39,
4999,-0.55,-0.385,
5000,-0.58,-0.395,
5001,-0.59,-0.405,
5002,-0.61,-0.405,
5003,-0.61,-0.39,
5004,-0.615,-0.395,
5005,-0.625,-0.385,
5006,-0.64,-0.385,
5007,-0.63,-0.38,
5008,-0.625,-0.39,
5009,-0.665,-0.37,
5010,-0.69,-0.395,
5011,-0.715,-0.41,
5012,-0.755,-0.425,
5013,-0.785,-0.445,
5014,-0.79,-0.46,
5015,-0.805,-0.485,
5016,-0.815,-0.48,
5017,-0.815,-0.475,
5018,-0.84,-0.47,
5019,-0.835,-0.455,
5020,-0.825,-0.465,
5021,-0.835,-0.44,
5022,-0.82,-0.43,
5023,-0.83,-0.44,
5024,-0.835,-0.43,
5025,-0.835,-0.45,
5026,-0.83,-0.48,
5027,-0.835,-0.48,
5028,-0.845,-0.48,
5029,-0.845,-0.465,
5030,-0.84,-0.46,
5031,-0.835,-0.45,
5032,-0.84,-0.445,
5033,-0.815,-0.435,
5034,-0.81,-0.44,
5035,-0.82,-0.44,
5036,-0.815,-0.44,
5037,-0.83,-0.455,
5038,-0.835,-0.47,
5039,-0.84,-0.47,
5040,-0.845,-0.49,
5041,-0.85,-0.465,
5042,-0.86,-0.47,
5043,-0.835,-0.485,
5044,-0.835,-0.465,
5045,-0.81,-0.45,
5046,-0.805,-0.455,
5047,-0.81,-0.45,
5048,-0.81,-0.485,
5049,-0.81,-0.465,
5050,-0.805,-0.49,
5051,-0.81,-0.485,
5052,-0.815,-0.475,
5053,-0.825,-0.47,
5054,-0.815,-0.465,
5055,-0.795,-0.455,
5056,-0.765,-0.425,
5057,-0.765,-0.43,
5058,-0.735,-0.415,
5059,-0.725,-0.41,
5060,-0.72,-0.385,
5061,-0.705,-0.38,
5062,-0.665,-0.345,
5063,-0.58,-0.29,
5064,-0.425,-0.175,
5065,-0.2,-0.05,
5066,0.045,0.12,
5067,0.32,0.28,
5068,0.575,0.405,
5069,0.855,0.455,
5070,1.14,0.47,
5071,1.365,0.47,N
5072,1.475,0.44,
5073,1.41,0.385,
5074,1.175,0.29,
5075,0.77,0.145,
5076,0.24,-0.04,
5077,-0.36,-0.325,
5078,-0.94,-0.62,
5079,-1.375,-0.935,
5080,-1.625,-1.18,
5081,-1.655,-1.29,
5082,-1.555,-1.29,
5083,-1.36,-1.2,
5084,-1.2,-1.045,
5085,-1.085,-0.9,
5086,-1.04,-0.79,
5087,-1.015,-0.725,
5088,-1.015,-0.665,
5089,-0.99,-0.64,
5090,-0.95,-0.6,
5091,-0.92,-0.585,
5092,-0.855,-0.54,
5093,-0.81,-0.51,
5094,-0.8,-0.505,
5095,-0.78,-0.5,
5096,-0.805,-0.5,
5097,-0.83,-0.495,
5098,-0.83,-0.485,
5099,-0.87,-0.505,
5100,-0.86,-0.505,
5101,-0.845,-0.5,
5102,-0.84,-0.495,
5103,-0.83,-0.485,
5104,-0.81,-0.475,
5105,-0.795,-0.475,
5106,-0.79,-0.455,
5107,-0.78,-0.45,
5108,-0.78,-0.455,
5109,-0.785,-0.45,
5110,-0.795,-0.46,
5111,-0.82,-0.47,
5112,-0.82,-0.46,
5113,-0.815,-0.46,
5114,-0.82,-0.465,
5115,-0.82,-0.44,
5116,-0.8,-0.435,
5117,-0.8,-0.41,
5118,-0.78,-0.42,
5119,-0.78,-0.43,
5120,-0.795,-0.43,
5121,-0.805,-0.425,
5122,-0.81,-0.45,
5123,-0.82,-0.46,
5124,-0.81,-0.46,
5125,-0.82,-0.44,
5126,-0.81,-0.445,
5127,-0.815,-0.43,
5128,-0.8,-0.435,
5129,-0.79,-0.425,
5130,-0.78,-0.43,
5131,-0.805,-0.435,
5132,-0.8,-0.435,
5133,-0.805,-0.435,
5134,-0.81,-0.46,
5135,-0.82,-0.46,
5136,-0.805,-0.46,
5137,-0.805,-0.465,
5138,-0.82,-0.44,
5139,-0.815,-0.43,
5140,-0.79,-0.41,
5141,-0.795,-0.395,
5142,-0.78,-0.39,
5143,-0.775,-0.41,
5144,-0.765,-0.395,
5145,-0.775,-0.39,
5146,-0.795,-0.42,
5147,-0.8,-0.415,
5148,-0.795,-0.415,
5149,-0.805,-0.405,
5150,-0.79,-0.395,
5151,-0.775,-0.385,
5152,-0.755,-0.375,
5153,-0.74,-0.37,
5154,-0.745,-0.37,
5155,-0.725,-0.375,
5156,-0.705,-0.365,
5157,-0.705,-0.38,
5158,-0.715,-0.38,
5159,-0.705,-0.39,
5160,-0.705,-0.385,
5161,-0.685,-0.36,
5162,-0.685,-0.35,
5163,-0.665,-0.315,
5164,-0.64,-0.305,
5165,-0.64,-0.295,
5166,-0.63,-0.285,
5167,-0.61,-0.27,
5168,-0.595,-0.285,
5169,-0.585,-0.28,
5170,-0.575,-0.26,
5171,-0.57,-0.27,
5172,-0.565,-0.26,
5173,-0.555,-0.245,
5174,-0.53,-0.225,
5175,-0.515,-0.22,
5176,-0.485,-0.195,
5177,-0.455,-0.17,
5178,-0.44,-0.17,
5179,-0.43,-0.16,
5180,-0.41,-0.175,
5181,-0.41,-0.175,
5182,-0.395,-0.18,
5183,-0.39,-0.18,
5184,-0.385,-0.17,
5185,-0.375,-0.17,
5186,-0.36,-0.155,
5187,-0.34,-0.135,
5188,-0.325,-0.13,
5189,-0.305,-0.12,
5190,-0.29,-0.12,
5191,-0.285,-0.12,
5192,-0.29,-0.13,
5193,-0.31,-0.13,
5194,-0.31,-0.13,
5195,-0.34,-0.165,
5196,-0.345,-0.175,
5197,-0.365,-0.175,
5198,-0.37,-0.195,
5199,-0.39,-0.19,
5200,-0.395,-0.205,
5201,-0.415,-0.205,
5202,-0.435,-0.235,
5203,-0.445,-0.235,
5204,-0.48,-0.285,
5205,-0.52,-0.3,
5206,-0.56,-0.325,
5207,-0.59,-0.345,
5208,-0.605,-0.365,
5209,-0.635,-0.405,
5210,-0.65,-0.41,
5211,-0.68,-0.415,
5212,-0.675,-0.43,
5213,-0.685,-0.42,
5214,-0.685,-0.43,
5215,-0.705,-0.455,
5216,-0.705,-0.455,
5217,-0.735,-0.48,
5218,-0.74,-0.48,
5219,-0.74,-0.495,
5220,-0.755,-0.495,
5221,-0.77,-0.485,
5222,-0.77,-0.5,
5223,-0.78,-0.475,
5224,-0.765,-0.46,
5225,-0.75,-0.465,
5226,-0.76,-0.47,
5227,-0.755,-0.465,
5228,-0.745,-0.485,
5229,-0.775,-0.495,
5230,-0.795,-0.51,
5231,-0.8,-0.51,
5232,-0.805,-0.52,
5233,-0.82,-0.51,
5234,-0.815,-0.505,
5235,-0.82,-0.49,
5236,-0.805,-0.495,
5237,-0.8,-0.495,
5238,-0.78,-0.495,
5239,-0.785,-0.515,
5240,-0.775,-0.51,
5241,-0.785,-0.525,
5242,-0.82,-0.515,
5243,-0.815,-0.535,
5244,-0.81,-0.53,
5245,-0.82,-0.535,
5246,-0.815,-0.52,
5247,-0.79,-0.505,
5248,-0.79,-0.5,
5249,-0.78,-0.48,
5250,-0.77,-0.505,
5251,-0.77,-0.49,
5252,-0.765,-0.495,
5253,-0.77,-0.5,
5254,-0.785,-0.515,
5255,-0.795,-0.52,
5256,-0.8,-0.52,
5257,-0.795,-0.495,
5258,-0.795,-0.5,
5259,-0.8,-0.5,
5260,-0.785,-0.48,
5261,-0.765,-0.465,
5262,-0.745,-0.48,
5263,-0.75,-0.47,
5264,-0.76,-0.48,
5265,-0.765,-0.505,
5266,-0.76,-0.5,
5267,-0.76,-0.51,
5268,-0.765,-0.495,
5269,-0.77,-0.495,
5270,-0.76,-0.49,
5271,-0.745,-0.475,
5272,-0.735,-0.455,
5273,-0.735,-0.445,
5274,-0.73,-0.445,
5275,-0.73,-0.45,
5276,-0.73,-0.455,
5277,-0.74,-0.455,
5278,-0.75,-0.47,
5279,-0.76,-0.5,
5280,-0.75,-0.485,
5281,-0.755,-0.49,
5282,-0.755,-0.475,
5283,-0.76,-0.47,
5284,-0.735,-0.45,
5285,-0.75,-0.445,
5286,-0.74,-0.45,
5287,-0.745,-0.45,
5288,-0.735,-0.47,
5289,-0.75,-0.475,
5290,-0.765,-0.475,
5291,-0.765,-0.485,
5292,-0.79,-0.485,
5293,-0.8,-0.495,
5294,-0.79,-0.5,
5295,-0.78,-0.495,
5296,-0.77,-0.495,
5297,-0.77,-0.475,
5298,-0.76,-0.465,
5299,-0.755,-0.46,
5300,-0.77,-0.485,
5301,-0.785,-0.485,
5302,-0.8,-0.51,
5303,-0.81,-0.5,
5304,-0.815,-0.52,
5305,-0.825,-0.51,
5306,-0.825,-0.505,
5307,-0.805,-0.49,
5308,-0.79,-0.475,
5309,-0.805,-0.48,
5310,-0.8,-0.48,
5311,-0.8,-0.48,
5312,-0.79,-0.5,
5313,-0.79,-0.505,
5314,-0.81,-0.515,
5315,-0.815,-0.525,
5316,-0.83,-0.53,
5317,-0.82,-0.53,
5318,-0.83,-0.52,
5319,-0.825,-0.52,
5320,-0.82,-0.52,
5321,-0.795,-0.49,
5322,-0.79,-0.495,
5323,-0.795,-0.5,
5324,-0.795,-0.505,
5325,-0.795,-0.52,
5326,-0.825,-0.52,
5327,-0.83,-0.525,
5328,-0.835,-0.54,
5329,-0.84,-0.53,
5330,-0.84,-0.535,
5331,-0.84,-0.525,
5332,-0.815,-0.505,
5333,-0.82,-0.515,
5334,-0.815,-0.505,
5335,-0.815,-0.5,
5336,-0.825,-0.505,
5337,-0.82,-0.53,
5338,-0.835,-0.54,
5339,-0.835,-0.545,
5340,-0.84,-0.545,
5341,-0.855,-0.56,
5342,-0.845,-0.53,
5343,-0.84,-0.53,
5344,-0.835,-0.535,
5345,-0.82,-0.525,
5346,-0.82,-0.515,
5347,-0.82,-0.515,
5348,-0.83,-0.53,
5349,-0.835,-0.545,
5350,-0.84,-0.555,
5351,-0.855,-0.56,
5352,-0.855,-0.56,
5353,-0.86,-0.55,
5354,-0.865,-0.54,
5355,-0.845,-0.54,
5356,-0.83,-0.525,
5357,-0.83,-0.505,
5358,-0.835,-0.525,
5359,-0.825,-0.52,
5360,-0.825,-0.52,
5361,-0.84,-0.545,
5362,-0.85,-0.545,
5363,-0.84,-0.545,
5364,-0.865,-0.545,
5365,-0.865,-0.54,
5366,-0.855,-0.535,
5367,-0.855,-0.53,
5368,-0.855,-0.52,
5369,-0.85,-0.525,
5370,-0.825,-0.535,
5371,-0.83,-0.545,
5372,-0.825,-0.545,
5373,-0.85,-0.545,
5374,-0.86,-0.555,
5375,-0.865,-0.565,
5376,-0.865,-0.565,
5377,-0.87,-0.565,
5378,-0.875,-0.555,
5379,-0.85,-0.545,
5380,-0.85,-0.53,
5381,-0.86,-0.51,
5382,-0.84,-0.53,
5383,-0.83,-0.52,
5384,-0.84,-0.53,
5385,-0.845,-0.535,
5386,-0.86,-0.545,
5387,-0.865,-0.555,
5388,-0.87,-0.565,
5389,-0.865,-0.55,
5390,-0.875,-0.545,
5391,-0.86,-0.535,
5392,-0.85,-0.535,
5393,-0.84,-0.54,
5394,-0.83,-0.525,
5395,-0.835,-0.515,
5396,-0.84,-0.545,
5397,-0.865,-0.54,
5398,-0.865,-0.56,
5399,-0.885,-0.56,
5400,-0.865,-0.575,
5401,-0.875,-0.555,
5402,-0.855,-0.555,
5403,-0.855,-0.545,
5404,-0.855,-0.535,
5405,-0.86,-0.515,
5406,-0.835,-0.515,
5407,-0.835,-0.525,
5408,-0.835,-0.52,
5409,-0.84,-0.53,
5410,-0.85,-0.545,
5411,-0.87,-0.55,
5412,-0.87,-0.555,
5413,-0.865,-0.55,
5414,-0.87,-0.545,
5415,-0.855,-0.535,
5416,-0.84,-0.525,
5417,-0.85,-0.515,
5418,-0.825,-0.52,
5419,-0.83,-0.505,
5420,-0.82,-0.54,
5421,-0.835,-0.545,
5422,-0.84,-0.55,
5423,-0.855,-0.56,
5424,-0.86,-0.565,
5425,-0.855,-0.565,
5426,-0.85,-0.565,
5427,-0.86,-0.55,
5428,-0.85,-0.545,
5429,-0.835,-0.54,
5430,-0.82,-0.515,
5431,-0.825,-0.53,
5432,-0.835,-0.535,
5433,-0.865,-0.545,
5434,-0.855,-0.545,
5435,-0.88,-0.55,
5436,-0.885,-0.535,
5437,-0.88,-0.545,
5438,-0.88,-0.53,
5439,-0.865,-0.535,
5440,-0.86,-0.53,
5441,-0.855,-0.535,
5442,-0.835,-0.52,
5443,-0.835,-0.52,
5444,-0.83,-0.53,
5445,-0.85,-0.535,
5446,-0.85,-0.55,
5447,-0.86,-0.55,
5448,-0.87,-0.555,
5449,-0.87,-0.545,
5450,-0.87,-0.555,
5451,-0.87,-0.55,
5452,-0.845,-0.55,
5453,-0.84,-0.545,
5454,-0.84,-0.515,
5455,-0.825,-0.55,
5456,-0.845,-0.54,
5457,-0.845,-0.535,
5458,-0.87,-0.53,
5459,-0.88,-0.545,
5460,-0.87,-0.55,
5461,-0.87,-0.54,
5462,-0.87,-0.535,
5463,-0.855,-0.52,
5464,-0.855,-0.525,
5465,-0.85,-0.51,
5466,-0.83,-0.515,
5467,-0.84,-0.52,
5468,-0.84,-0.52,
5469,-0.86,-0.525,
5470,-0.855,-0.555,
5471,-0.86,-0.545,
5472,-0.855,-0.555,
5473,-0.865,-0.555,
5474,-0.865,-0.55,
5475,-0.855,-0.535,
5476,-0.86,-0.535,
5477,-0.855,-0.53,
5478,-0.835,-0.525,
5479,-0.84,-0.54,
5480,-0.84,-0.53,
5481,-0.835,-0.545,
5482,-0.84,-0.55,
5483,-0.855,-0.56,
5484,-0.86,-0.565,
5485,-0.865,-0.56,
5486,-0.85,-0.55,
5487,-0.87,-0.54,
5488,-0.855,-0.51,
5489,-0.835,-0.515,
5490,-0.84,-0.51,
5491,-0.83,-0.52,
5492,-0.83,-0.51,
5493,-0.845,-0.52,
5494,-0.85,-0.535,
5495,-0.85,-0.55,
5496,-0.865,-0.54,
5497,-0.875,-0.535,
5498,-0.87,-0.53,
5499,-0.855,-0.53,
5500,-0.85,-0.515,
5501,-0.835,-0.515,
5502,-0.83,-0.505,
5503,-0.82,-0.525,
5504,-0.815,-0.52,
5505,-0.81,-0.545,
5506,-0.815,-0.555,
5507,-0.815,-0.55,
5508,-0.82,-0.555,
5509,-0.8,-0.555,
5510,-0.795,-0.545,
5511,-0.76,-0.54,
5512,-0.73,-0.53,
5513,-0.72,-0.52,
5514,-0.7,-0.51,
5515,-0.695,-0.515,
5516,-0.7,-0.52,
5517,-0.705,-0.525,
5518,-0.7,-0.515,
5519,-0.695,-0.53,
5520,-0.68,-0.52,
5521,-0.66,-0.51,
5522,-0.625,-0.495,
5523,-0.62,-0.475,
5524,-0.625,-0.475,
5525,-0.635,-0.47,
5526,-0.64,-0.465,
5527,-0.665,-0.48,
5528,-0.67,-0.48,
5529,-0.685,-0.48,
5530,-0.705,-0.48,
5531,-0.705,-0.5,
5532,-0.705,-0.49,
5533,-0.73,-0.5,
5534,-0.725,-0.495,
5535,-0.735,-0.485,
5536,-0.73,-0.465,
5537,-0.75,-0.46,
5538,-0.75,-0.465,
5539,-0.785,-0.47,
5540,-0.815,-0.49,
5541,-0.845,-0.51,
5542,-0.885,-0.52,
5543,-0.89,-0.53,
5544,-0.93,-0.535,
5545,-0.91,-0.525,
5546,-0.935,-0.55,
5547,-0.93,-0.525,
5548,-0.91,-0.525,
5549,-0.91,-0.53,
5550,-0.905,-0.525,
5551,-0.905,-0.52,
5552,-0.9,-0.53,
5553,-0.91,-0.545,
5554,-0.915,-0.54,
5555,-0.91,-0.55,
5556,-0.94,-0.56,
5557,-0.945,-0.545,
5558,-0.94,-0.53,
5559,-0.93,-0.545,
5560,-0.91,-0.54,
5561,-0.895,-0.54,
5562,-0.89,-0.525,
5563,-0.895,-0.525,
5564,-0.885,-0.54,
5565,-0.89,-0.535,
5566,-0.905,-0.54,
5567,-0.915,-0.55,
5568,-0.93,-0.545,
5569,-0.915,-0.55,
5570,-0.92,-0.545,
5571,-0.915,-0.52,
5572,-0.905,-0.52,
5573,-0.89,-0.52,
5574,-0.875,-0.51,
5575,-0.885,-0.52,
5576,-0.88,-0.505,
5577,-0.88,-0.515,
5578,-0.88,-0.53,
5579,-0.89,-0.535,
5580,-0.88,-0.52,
5581,-0.885,-0.495,
5582,-0.87,-0.51,
5583,-0.865,-0.495,
5584,-0.81,-0.46,
5585,-0.77,-0.425,
5586,-0.705,-0.405,
5587,-0.565,-0.305,
5588,-0.36,-0.185,
5589,-0.105,0.0,
5590,0.18,0.16,
5591,0.49,0.27,
5592,0.795,0.34,
5593,1.12,0.385,
5594,1.37,0.395,N
5595,1.48,0.405,
5596,1.36,0.395,
5597,1.06,0.31,
5598,0.56,0.15,
5599,-0.08,-0.085,
5600,-0.72,-0.415,
5601,-1.27,-0.755,
5602,-1.605,-1.07,
5603,-1.675,-1.265,
5604,-1.565,-1.275,
5605,-1.35,-1.165,
5606,-1.13,-0.985,
5607,-1.0,-0.805,
5608,-0.945,-0.675,
5609,-0.945,-0.61,
5610,-0.955,-0.59,
5611,-0.975,-0.615,
5612,-0.98,-0.625,
5613,-0.95,-0.635,
5614,-0.94,-0.625,
5615,-0.915,-0.63,
5616,-0.9,-0.6,
5617,-0.89,-0.575,
5618,-0.915,-0.565,
5619,-0.905,-0.555,
5620,-0.9,-0.525,
5621,-0.895,-0.515,
5622,-0.895,-0.51,
5623,-0.895,-0.515,
5624,-0.89,-0.52,
5625,-0.895,-0.53,
5626,-0.905,-0.53,
5627,-0.9,-0.535,
5628,-0.92,-0.53,
5629,-0.92,-0.54,
5630,-0.915,-0.54,
5631,-0.905,-0.52,
5632,-0.905,-0.515,
5633,-0.895,-0.51,
5634,-0.885,-0.5,
5635,-0.88,-0.505,
5636,-0.875,-0.505,
5637,-0.885,-0.525,
5638,-0.91,-0.525,
5639,-0.92,-0.53,
5640,-0.925,-0.545,
5641,-0.925,-0.54,
5642,-0.925,-0.545,
5643,-0.905,-0.525,
5644,-0.905,-0.53,
5645,-0.875,-0.515,
5646,-0.86,-0.515,
5647,-0.87,-0.515,
5648,-0.875,-0.51,
5649,-0.88,-0.515,
5650,-0.89,-0.515,
5651,-0.9,-0.515,
5652,-0.905,-0.535,
5653,-0.925,-0.515,
5654,-0.92,-0.525,
5655,-0.905,-0.515,
5656,-0.905,-0.485,
5657,-0.89,-0.48,
5658,-0.87,-0.47,
5659,-0.865,-0.485,
5660,-0.875,-0.495,
5661,-0.9,-0.505,
5662,-0.9,-0.505,
5663,-0.91,-0.5,
5664,-0.9,-0.51,
5665,-0.895,-0.475,
5666,-0.895,-0.49,
5667,-0.885,-0.485,
5668,-0.865,-0.48,
5669,-0.845,-0.47,
5670,-0.84,-0.475,
5671,-0.83,-0.475,
5672,-0.83,-0.455,
5673,-0.845,-0.46,
5674,-0.835,-0.47,
5675,-0.83,-0.465,
5676,-0.83,-0.465,
5677,-0.82,-0.465,
5678,-0.82,-0.45,
5679,-0.805,-0.43,
5680,-0.79,-0.405,
5681,-0.765,-0.42,
5682,-0.75,-0.385,
5683,-0.74,-0.375,
5684,-0.725,-0.38,
5685,-0.715,-0.39,
5686,-0.72,-0.39,
5687,-0.71,-0.39,
5688,-0.71,-0.385,
5689,-0.68,-0.36,
5690,-0.685,-0.35,
5691,-0.655,-0.355,
5692,-0.625,-0.32,
5693,-0.605,-0.305,
5694,-0.575,-0.285,
5695,-0.555,-0.3,
5696,-0.545,-0.3,
5697,-0.535,-0.285,
5698,-0.53,-0.285,
5699,-0.52,-0.285,
5700,-0.505,-0.27,
5701,-0.495,-0.26,
5702,-0.475,-0.235,
5703,-0.46,-0.225,
5704,-0.44,-0.195,
5705,-0.42,-0.185,
5706,-0.385,-0.175,
5707,-0.38,-0.18,
5708,-0.355,-0.185,
5709,-0.355,-0.185,
5710,-0.365,-0.18,
5711,-0.37,-0.195,
5712,-0.38,-0.195,
5713,-0.385,-0.205,
5714,-0.395,-0.215,
5715,-0.405,-0.2,
5716,-0.395,-0.21,
5717,-0.42,-0.21,
5718,-0.43,-0.22,
5719,-0.445,-0.26,
5720,-0.46,-0.265,
5721,-0.48,-0.305,
5722,-0.525,-0.34,
5723,-0.56,-0.355,
5724,-0.585,-0.36,
5725,-0.605,-0.38,
5726,-0.625,-0.405,
5727,-0.66,-0.41,
5728,-0.68,-0.41,
5729,-0.695,-0.44,
5730,-0.695,-0.435,
5731,-0.715,-0.455,
5732,-0.735,-0.465,
5733,-0.745,-0.495,
5734,-0.77,-0.515,
5735,-0.8,-0.535,
5736,-0.815,-0.53,
5737,-0.83,-0.545,
5738,-0.855,-0.54,
5739,-0.845,-0.545,
5740,-0.835,-0.55,
5741,-0.84,-0.53,
5742,-0.825,-0.53,
5743,-0.815,-0.53,
5744,-0.83,-0.56,
5745,-0.855,-0.57,
5746,-0.855,-0.58,
5747,-0.87,-0.59,
5748,-0.88,-0.6,
5749,-0.885,-0.59,
5750,-0.885,-0.595,
5751,-0.87,-0.58,
5752,-0.86,-0.58,
5753,-0.87,-0.555,
5754,-0.85,-0.555,
5755,-0.845,-0.57,
5756,-0.84,-0.565,
5757,-0.85,-0.57,
5758,-0.85,-0.58,
5759,-0.875,-0.58,
5760,-0.87,-0.595,
5761,-0.865,-0.58,
5762,-0.875,-0.58,
5763,-0.865,-0.58,
5764,-0.865,-0.58,
5765,-0.855,-0.56,
5766,-0.85,-0.55,
5767,-0.845,-0.54,
5768,-0.85,-0.555,
5769,-0.84,-0.565,
5770,-0.885,-0.59,
5771,-0.87,-0.58,
5772,-0.875,-0.6,
5773,-0.875,-0.59,
5774,-0.885,-0.59,
5775,-0.87,-0.59,
5776,-0.86,-0.57,
5777,-0.86,-0.57,
5778,-0.84,-0.55,
5779,-0.85,-0.565,
5780,-0.845,-0.565,
5781,-0.845,-0.575,
5782,-0.855,-0.565,
5783,-0.865,-0.565,
5784,-0.865,-0.575,
5785,-0.865,-0.58,
5786,-0.875,-0.56,
5787,-0.865,-0.57,
5788,-0.855,-0.56,
5789,-0.865,-0.55,
5790,-0.84,-0.535,
5791,-0.83,-0.545,
5792,-0.84,-0.55,
5793,-0.85,-0.55,
5794,-0.87,-0.56,
5795,-0.87,-0.58,
5796,-0.885,-0.59,
5797,-0.88,-0.59,
5798,-0.885,-0.58,
5799,-0.88,-0.58,
5800,-0.86,-0.58,
5801,-0.87,-0.56,
5802,-0.865,-0.555,
5803,-0.865,-0.545,
5804,-0.87,-0.56,
5805,-0.865,-0.565,
5806,-0.88,-0.58,
5807,-0.885,-0.585,
5808,-0.89,-0.585,
5809,-0.915,-0.595,
5810,-0.915,-0.58,
5811,-0.915,-0.59,
5812,-0.915,-0.58,
5813,-0.905,-0.565,
5814,-0.895,-0.55,
5815,-0.88,-0.56,
5816,-0.895,-0.575,
5817,-0.905,-0.59,
5818,-0.925,-0.59,
5819,-0.94,-0.61,
5820,-0.925,-0.605,
5821,-0.935,-0.605,
5822,-0.94,-0.605,
5823,-0.94,-0.6,
5824,-0.93,-0.595,
5825,-0.915,-0.595,
5826,-0.91,-0.605,
5827,-0.915,-0.6,
5828,-0.92,-0.6,
5829,-0.915,-0.605,
5830,-0.935,-0.61,
5831,-0.94,-0.605,
5832,-0.945,-0.63,
5833,-0.94,-0.615,
5834,-0.94,-0.59,
5835,-0.95,-0.605,
5836,-0.945,-0.61,
5837,-0.925,-0.585,
5838,-0.91,-0.57,
5839,-0.91,-0.6,
5840,-0.91,-0.6,
5841,-0.91,-0.605,
5842,-0.94,-0.61,
5843,-0.945,-0.63,
5844,-0.955,-0.615,
5845,-0.97,-0.615,
5846,-0.97,-0.62,
5847,-0.965,-0.6,
5848,-0.965,-0.595,
5849,-0.95,-0.605,
5850,-0.935,-0.6,
5851,-0.915,-0.6,
5852,-0.915,-0.59,
5853,-0.92,-0.61,
5854,-0.93,-0.615,
5855,-0.96,-0.635,
5856,-0.965,-0.645,
5857,-0.96,-0.635,
5858,-0.965,-0.625,
5859,-0.965,-0.62,
5860,-0.94,-0.61,
5861,-0.935,-0.595,
5862,-0.925,-0.6,
5863,-0.915,-0.6,
5864,-0.925,-0.595,
5865,-0.93,-0.605,
5866,-0.95,-0.61,
5867,-0.945,-0.625,
5868,-0.955,-0.62,
5869,-0.945,-0.63,
5870,-0.975,-0.615,
5871,-0.95,-0.615,
5872,-0.95,-0.61,
5873,-0.93,-0.6,
5874,-0.93,-0.61,
5875,-0.945,-0.605,
5876,-0.925,-0.625,
5877,-0.94,-0.63,
5878,-0.945,-0.635,
5879,-0.945,-0.645,
5880,-0.965,-0.645,
5881,-0.97,-0.645,
5882,-0.965,-0.65,
5883,-0.96,-0.635,
5884,-0.96,-0.615,
5885,-0.955,-0.605,
5886,-0.94,-0.605,
5887,-0.93,-0.62,
5888,-0.925,-0.615,
5889,-0.935,-0.625,
5890,-0.945,-0.625,
5891,-0.955,-0.62,
5892,-0.95,-0.625,
5893,-0.96,-0.65,
5894,-0.965,-0.615,
5895,-0.95,-0.635,
5896,-0.935,-0.62,
5897,-0.925,-0.605,
5898,-0.92,-0.605,
5899,-0.915,-0.59,
5900,-0.925,-0.595,
5901,-0.93,-0.615,
5902,-0.935,-0.635,
5903,-0.95,-0.625,
5904,-0.94,-0.645,
5905,-0.955,-0.655,
5906,-0.95,-0.635,
5907,-0.96,-0.62,
5908,-0.945,-0.625,
5909,-0.93,-0.615,
5910,-0.915,-0.585,
5911,-0.915,-0.6,
5912,-0.925,-0.61,
5913,-0.93,-0.615,
5914,-0.95,-0.6,
5915,-0.975,-0.615,
5916,-0.96,-0.63,
5917,-0.985,-0.63,
5918,-0.96,-0.625,
5919,-0.96,-0.615,
5920,-0.955,-0.6,
5921,-0.93,-0.6,
5922,-0.925,-0.61,
5923,-0.92,-0.59,
5924,-0.91,-0.59,
5925,-0.93,-0.61,
5926,-0.935,-0.6,
5927,-0.95,-0.63,
5928,-0.94,-0.645,
5929,-0.955,-0.635,
5930,-0.965,-0.62,
5931,-0.95,-0.635,
5932,-0.935,-0.625,
5933,-0.955,-0.625,
5934,-0.94,-0.61,
5935,-0.935,-0.605,
5936,-0.945,-0.605,
5937,-0.935,-0.61,
5938,-0.945,-0.625,
5939,-0.945,-0.635,
5940,-0.955,-0.64,
5941,-0.97,-0.625,
5942,-0.95,-0.615,
5943,-0.95,-0.61,
5944,-0.93,-0.595,
5945,-0.925,-0.59,
5946,-0.925,-0.59,
5947,-0.925,-0.59,
5948,-0.92,-0.595,
5949,-0.91,-0.59,
5950,-0.945,-0.605,
5951,-0.97,-0.615,
5952,-0.94,-0.63,
5953,-0.96,-0.64,
5954,-0.95,-0.63,
5955,-0.94,-0.63,
5956,-0.94,-0.62,
5957,-0.93,-0.615,
5958,-0.93,-0.6,
5959,-0.93,-0.61,
5960,-0.94,-0.61,
5961,-0.94,-0.6,
5962,-0.945,-0.63,
5963,-0.95,-0.645,
5964,-0.955,-0.635,
5965,-0.955,-0.63,
5966,-0.96,-0.625,
5967,-0.955,-0.595,
5968,-0.95,-0.595,
5969,-0.93,-0.59,
5970,-0.92,-0.58,
5971,-0.935,-0.585,
5972,-0.92,-0.59,
5973,-0.91,-0.585,
5974,-0.925,-0.6,
5975,-0.93,-0.605,
5976,-0.945,-0.62,
5977,-0.945,-0.615,
5978,-0.95,-0.63,
5979,-0.96,-0.61,
5980,-0.93,-0.605,
5981,-0.905,-0.605,
5982,-0.885,-0.59,
5983,-0.875,-0.6,
5984,-0.855,-0.6,
5985,-0.85,-0.605,
5986,-0.835,-0.615,
5987,-0.835,-0.61,
5988,-0.84,-0.63,
5989,-0.835,-0.635,
5990,-0.835,-0.61,
5991,-0.82,-0.615,
5992,-0.805,-0.6,
5993,-0.79,-0.575,
5994,-0.765,-0.565,
5995,-0.75,-0.565,
5996,-0.71,-0.56,
5997,-0.7,-0.56,
5998,-0.705,-0.56,
5999,-0.705,-0.565,
6000,-0.72,-0.565,
6001,-0.76,-0.555,
6002,-0.755,-0.555,
6003,-0.74,-0.56,
6004,-0.76,-0.54,
6005,-0.765,-0.535,
6006,-0.765,-0.505,
6007,-0.775,-0.52,
6008,-0.765,-0.51,
6009,-0.78,-0.53,
6010,-0.795,-0.525,
6011,-0.82,-0.565,
6012,-0.845,-0.56,
6013,-0.875,-0.555,
6014,-0.875,-0.58,
6015,-0.92,-0.565,
6016,-0.945,-0.585,
6017,-0.93,-0.58,
6018,-0.95,-0.575,
6019,-0.965,-0.575,
6020,-0.965,-0.59,
6021,-0.975,-0.59,
6022,-0.985,-0.605,
6023,-1.005,-0.62,
6024,-1.005,-0.635,
6025,-1.005,-0.625,
6026,-1.01,-0.615,
6027,-1.015,-0.61,
6028,-1.015,-0.605,
6029,-0.995,-0.585,
6030,-1.01,-0.585,
6031,-1.0,-0.59,
6032,-1.0,-0.59,
6033,-1.01,-0.595,
6034,-1.01,-0.6,
6035,-1.015,-0.61,
6036,-1.015,-0.61,
6037,-1.025,-0.625,
6038,-1.015,-0.62,
6039,-1.015,-0.62,
6040,-1.005,-0.61,
6041,-1.0,-0.61,
6042,-0.995,-0.605,
6043,-1.0,-0.605,
6044,-0.995,-0.61,
6045,-0.99,-0.61,
6046,-1.0,-0.61,
6047,-1.01,-0.61,
6048,-0.995,-0.61,
6049,-1.005,-0.615,
6050,-1.005,-0.61,
6051,-1.015,-0.6,
6052,-0.995,-0.595,
6053,-0.995,-0.58,
6054,-0.98,-0.56,
6055,-0.97,-0.565,
6056,-0.945,-0.575,
6057,-0.945,-0.58,
6058,-0.945,-0.585,
6059,-0.94,-0.605,
6060,-0.935,-0.605,
6061,-0.94,-0.58,
6062,-0.92,-0.585,
6063,-0.915,-0.54,
6064,-0.85,-0.51,
6065,-0.75,-0.42,
6066,-0.59,-0.32,
6067,-0.345,-0.185,
6068,-0.09,-0.02,
6069,0.16,0.13,
6070,0.425,0.225,
6071,0.695,0.29,
6072,0.97,0.275,
6073,1.14,0.275,N
6074,1.2,0.265,
6075,1.05,0.215,
6076,0.73,0.12,
6077,0.27,-0.035,
6078,-0.29,-0.235,
6079,-0.835,-0.515,
6080,-1.305,-0.83,
6081,-1.625,-1.11,
6082,-1.72,-1.32,
6083,-1.665,-1.385,
6084,-1.515,-1.335,
6085,-1.375,-1.19,
6086,-1.245,-1.035,
6087,-1.185,-0.91,
6088,-1.15,-0.805,
6089,-1.15,-0.745,
6090,-1.11,-0.715,
6091,-1.075,-0.7,
6092,-1.05,-0.68,
6093,-1.0,-0.66,
6094,-0.97,-0.665,
6095,-0.965,-0.66,
6096,-0.96,-0.66,
6097,-0.97,-0.645,
6098,-1.0,-0.63,
6099,-1.005,-0.62,
6100,-1.01,-0.62,
6101,-1.005,-0.615,
6102,-0.985,-0.595,
6103,-0.97,-0.595,
6104,-0.97,-0.58,
6105,-0.95,-0.595,
6106,-0.96,-0.59,
6107,-0.965,-0.6,
6108,-0.98,-0.61,
6109,-0.98,-0.585,
6110,-0.97,-0.6,
6111,-0.975,-0.575,
6112,-0.98,-0.56,
6113,-0.96,-0.56,
6114,-0.945,-0.57,
6115,-0.95,-0.565,
6116,-0.95,-0.56,
6117,-0.95,-0.565,
6118,-0.96,-0.57,
6119,-0.975,-0.57,
6120,-0.97,-0.585,
6121,-0.985,-0.59,
6122,-0.98,-0.59,
6123,-0.975,-0.58,
6124,-0.97,-0.57,
6125,-0.965,-0.565,
6126,-0.95,-0.55,
6127,-0.935,-0.545,
6128,-0.94,-0.55,
6129,-0.945,-0.555,
6130,-0.945,-0.55,
6131,-0.965,-0.565,
6132,-0.955,-0.565,
6133,-0.96,-0.56,
6134,-0.97,-0.575,
6135,-0.95,-0.545,
6136,-0.95,-0.545,
6137,-0.94,-0.525,
6138,-0.93,-0.525,
6139,-0.915,-0.54,
6140,-0.91,-0.53,
6141,-0.915,-0.54,
6142,-0.91,-0.535,
6143,-0.92,-0.55,
6144,-0.94,-0.545,
6145,-0.93,-0.54,
6146,-0.93,-0.55,
6147,-0.93,-0.535,
6148,-0.915,-0.525,
6149,-0.905,-0.505,
6150,-0.905,-0.495,
6151,-0.885,-0.505,
6152,-0.865,-0.505,
6153,-0.86,-0.5,
6154,-0.86,-0.505,
6155,-0.875,-0.5,
6156,-0.875,-0.525,
6157,-0.875,-0.51,
6158,-0.875,-0.5,
6159,-0.865,-0.475,
6160,-0.845,-0.48,
6161,-0.83,-0.435,
6162,-0.8,-0.44,
6163,-0.795,-0.42,
6164,-0.77,-0.41,
6165,-0.745,-0.4,
6166,-0.735,-0.41,
6167,-0.725,-0.4,
6168,-0.735,-0.405,
6169,-0.72,-0.39,
6170,-0.71,-0.375,
6171,-0.695,-0.37,
6172,-0.67,-0.345,
6173,-0.64,-0.33,
6174,-0.6,-0.32,
6175,-0.575,-0.315,
6176,-0.565,-0.32,
6177,-0.56,-0.32,
6178,-0.54,-0.32,
6179,-0.54,-0.31,
6180,-0.545,-0.32,
6181,-0.515,-0.295,
6182,-0.52,-0.29,
6183,-0.49,-0.275,
6184,-0.49,-0.26,
6185,-0.47,-0.23,
6186,-0.445,-0.23,
6187,-0.44,-0.225,
6188,-0.44,-0.235,
6189,-0.435,-0.255,
6190,-0.44,-0.275,
6191,-0.465,-0.285,
6192,-0.48,-0.31,
6193,-0.5,-0.29,
6194,-0.515,-0.3,
6195,-0.525,-0.3,
6196,-0.54,-0.31,
6197,-0.555,-0.32,
6198,-0.565,-0.33,
6199,-0.585,-0.345,
6200,-0.61,-0.36,
6201,-0.62,-0.39,
6202,-0.66,-0.425,
6203,-0.69,-0.46,
6204,-0.72,-0.475,
6205,-0.735,-0.475,
6206,-0.775,-0.5,
6207,-0.795,-0.495,
6208,-0.805,-0.51,
6209,-0.835,-0.505,
6210,-0.825,-0.505,
6211,-0.82,-0.53,
6212,-0.85,-0.53,
6213,-0.845,-0.545,
6214,-0.865,-0.565,
6215,-0.875,-0.57,
6216,-0.895,-0.575,
6217,-0.915,-0.575,
6218,-0.91,-0.58,
6219,-0.905,-0.585,
6220,-0.895,-0.575,
6221,-0.895,-0.585,
6222,-0.87,-0.575,
6223,-0.87,-0.575,
6224,-0.885,-0.565,
6225,-0.895,-0.58,
6226,-0.905,-0.61,
6227,-0.925,-0.6,
6228,-0.93,-0.62,
6229,-0.925,-0.635,
6230,-0.925,-0.61,
6231,-0.93,-0.625,
6232,-0.925,-0.6,
6233,-0.915,-0.585,
6234,-0.905,-0.585,
6235,-0.91,-0.595,
6236,-0.9,-0.58,
6237,-0.905,-0.59,
6238,-0.905,-0.61,
6239,-0.925,-0.615,
6240,-0.92,-0.615,
6241,-0.935,-0.62,
6242,-0.95,-0.615,
6243,-0.945,-0.61,
6244,-0.935,-0.61,
6245,-0.91,-0.58,
6246,-0.9,-0.575,
6247,-0.89,-0.57,
6248,-0.885,-0.58,
6249,-0.875,-0.585,
6250,-0.895,-0.605,
6251,-0.9,-0.59,
6252,-0.92,-0.605,
6253,-0.92,-0.615,
6254,-0.915,-0.62,
6255,-0.915,-0.61,
6256,-0.895,-0.61,
6257,-0.875,-0.585,
6258,-0.865,-0.565,
6259,-0.865,-0.57,
6260,-0.855,-0.575,
6261,-0.855,-0.585,
6262,-0.865,-0.585,
6263,-0.885,-0.59,
6264,-0.885,-0.59,
6265,-0.885,-0.605,
6266,-0.9,-0.58,
6267,-0.895,-0.56,
6268,-0.88,-0.55,
6269,-0.88,-0.55,
6270,-0.865,-0.555,
6271,-0.865,-0.55,
6272,-0.865,-0.535,
6273,-0.88,-0.565,
6274,-0.885,-0.575,
6275,-0.88,-0.57,
6276,-0.89,-0.58,
6277,-0.895,-0.585,
6278,-0.895,-0.585,
6279,-0.895,-0.58,
6280,-0.88,-0.565,
6281,-0.875,-0.565,
6282,-0.885,-0.55,
6283,-0.88,-0.565,
6284,-0.87,-0.58,
6285,-0.86,-0.57,
6286,-0.875,-0.585,
6287,-0.89,-0.605,
6288,-0.895,-0.595,
6289,-0.91,-0.595,
6290,-0.91,-0.61,
6291,-0.905,-0.595,
6292,-0.91,-0.575,
6293,-0.9,-0.575,
6294,-0.89,-0.58,
6295,-0.885,-0.56,
6296,-0.885,-0.585,
6297,-0.895,-0.595,
6298,-0.905,-0.59,
6299,-0.92,-0.62,
6300,-0.92,-0.605,
6301,-0.915,-0.635,
6302,-0.925,-0.625,
6303,-0.93,-0.615,
6304,-0.93,-0.62,
6305,-0.925,-0.605,
6306,-0.91,-0.595,
6307,-0.915,-0.605,
6308,-0.915,-0.615,
6309,-0.91,-0.625,
6310,-0.925,-0.64,
6311,-0.93,-0.645,
6312,-0.94,-0.635,
6313,-0.945,-0.625,
6314,-0.93,-0.62,
6315,-0.92,-0.615,
6316,-0.925,-0.605,
6317,-0.93,-0.61,
6318,-0.91,-0.605,
6319,-0.92,-0.605,
6320,-0.905,-0.605,
6321,-0.92,-0.61,
6322,-0.935,-0.62,
6323,-0.95,-0.64,
6324,-0.95,-0.635,
6325,-0.95,-0.64,
6326,-0.95,-0.64,
6327,-0.945,-0.61,
6328,-0.94,-0.605,
6329,-0.925,-0.605,
6330,-0.925,-0.6,
6331,-0.915,-0.625,
6332,-0.935,-0.62,
6333,-0.92,-0.625,
6334,-0.925,-0.635,
6335,-0.94,-0.65,
6336,-0.94,-0.645,
6337,-0.945,-0.65,
6338,-0.96,-0.645,
6339,-0.945,-0.635,
6340,-0.955,-0.635,
6341,-0.94,-0.63,
6342,-0.925,-0.625,
6343,-0.92,-0.62,
6344,-0.92,-0.615,
6345,-0.925,-0.63,
6346,-0.935,-0.625,
6347,-0.95,-0.635,
6348,-0.96,-0.635,
6349,-0.96,-0.63,
6350,-0.955,-0.635,
6351,-0.945,-0.625,
6352,-0.945,-0.63,
6353,-0.925,-0.605,
6354,-0.92,-0.61,
6355,-0.915,-0.615,
6356,-0.92,-0.615,
6357,-0.91,-0.625,
6358,-0.925,-0.64,
6359,-0.94,-0.655,
6360,-0.945,-0.65,
6361,-0.95,-0.665,
6362,-0.945,-0.665,
6363,-0.95,-0.65,
6364,-0.95,-0.635,
6365,-0.94,-0.625,
6366,-0.935,-0.62,
6367,-0.92,-0.61,
6368,-0.93,-0.615,
6369,-0.925,-0.64,
6370,-0.95,-0.64,
6371,-0.955,-0.63,
6372,-0.965,-0.645,
6373,-0.96,-0.67,
6374,-0.945,-0.655,
6375,-0.945,-0.635,
6376,-0.93,-0.63,
6377,-0.93,-0.615,
6378,-0.92,-0.6,
6379,-0.905,-0.625,
6380,-0.92,-0.61,
6381,-0.92,-0.64,
6382,-0.93,-0.64,
6383,-0.93,-0.66,
6384,-0.945,-0.665,
6385,-0.95,-0.67,
6386,-0.955,-0.65,
6387,-0.955,-0.65,
6388,-0.945,-0.63,
6389,-0.935,-0.635,
6390,-0.925,-0.615,
6391,-0.915,-0.645,
6392,-0.91,-0.635,
6393,-0.905,-0.64,
6394,-0.92,-0.635,
6395,-0.93,-0.635,
6396,-0.935,-0.66,
6397,-0.93,-0.66,
6398,-0.935,-0.64,
6399,-0.935,-0.645,
6400,-0.935,-0.63,
6401,-0.935,-0.625,
6402,-0.91,-0.6,
6403,-0.905,-0.615,
6404,-0.9,-0.605,
6405,-0.92,-0.6,
6406,-0.915,-0.625,
6407,-0.92,-0.64,
6408,-0.925,-0.645,
6409,-0.925,-0.64,
6410,-0.935,-0.66,
6411,-0.935,-0.65,
6412,-0.94,-0.645,
6413,-0.915,-0.62,
6414,-0.925,-0.61,
6415,-0.905,-0.615,
6416,-0.9,-0.615,
6417,-0.91,-0.62,
6418,-0.905,-0.625,
6419,-0.915,-0.65,
6420,-0.91,-0.655,
