,MLII,V1,symbol
0,0.35,0.105,
1,0.35,0.105,
2,0.35,0.105,
3,0.35,0.105,
4,0.35,0.105,
5,0.35,0.105,
6,0.35,0.105,
7,0.35,0.105,
8,0.35,0.105,
9,0.02,0.115,
10,-0.21,0.09,
11,-0.33,0.075,
12,-0.37,0.095,
13,-0.335,0.115,
14,-0.285,0.09,
15,-0.23,0.085,
16,-0.215,0.09,
17,-0.2,0.085,
18,-0.19,0.07,
19,-0.2,0.075,
20,-0.2,0.09,
21,-0.21,0.095,
22,-0.23,0.07,
23,-0.25,0.03,
24,-0.255,0.04,
25,-0.245,0.07,
26,-0.24,0.065,
27,-0.215,0.04,
28,-0.235,0.04,
29,-0.23,0.045,
30,-0.23,0.04,
31,-0.205,0.015,
32,-0.18,0.04,
33,-0.165,0.05,
34,-0.195,0.06,
35,-0.21,0.04,
36,-0.215,0.03,
37,-0.195,0.06,
38,-0.17,0.085,
39,-0.155,0.07,
40,-0.175,0.045,
41,-0.195,0.05,
42,-0.21,0.065,
43,-0.2,0.09,
44,-0.2,0.08,
45,-0.195,0.075,
46,-0.185,0.075,
47,-0.185,0.05,
48,-0.18,0.045,
49,-0.175,0.065,
50,-0.175,0.07,
51,-0.165,0.085,
52,-0.14,0.075,
53,-0.12,0.045,
54,-0.115,0.06,
55,-0.13,0.075,
56,-0.155,0.06,
57,-0.19,0.035,
58,-0.19,0.04,
59,-0.185,0.055,
60,-0.18,0.07,
61,-0.16,0.06,
62,-0.14,0.07,
63,-0.13,0.07,
64,-0.11,0.07,
65,-0.12,0.055,
66,-0.13,0.04,
67,-0.13,0.05,+
68,-0.125,0.08,
69,-0.095,0.085,
70,-0.095,0.06,
71,-0.09,0.05,
72,-0.08,0.065,
73,-0.075,0.08,
74,-0.07,0.07,
75,-0.075,0.05,
76,-0.065,0.065,
77,-0.055,0.06,
78,-0.06,0.075,
79,-0.055,0.055,
80,-0.04,0.06,
81,-0.03,0.08,
82,-0.02,0.065,
83,-0.015,0.05,
84,-0.015,0.04,
85,-0.01,0.065,
86,0.015,0.095,
87,0.035,0.075,
88,0.025,0.05,
89,0.015,0.065,
90,0.015,0.07,
91,0.025,0.06,
92,0.025,0.055,
93,0.04,0.05,
94,0.04,0.07,
95,0.03,0.065,
96,0.015,0.065,
97,0.02,0.07,
98,0.035,0.085,
99,0.045,0.09,
100,0.05,0.06,
101,0.025,0.035,
102,0.02,0.055,
103,0.02,0.085,
104,0.01,0.095,
105,0.01,0.08,
106,0.0,0.08,
107,-0.005,0.075,
108,-0.025,0.075,
109,-0.02,0.07,
110,-0.03,0.07,
111,-0.03,0.085,
112,-0.035,0.075,
113,-0.045,0.06,
114,-0.055,0.055,
115,-0.06,0.085,
116,-0.065,0.105,
117,-0.075,0.085,
118,-0.08,0.06,
119,-0.075,0.045,
120,-0.075,0.06,
121,-0.075,0.085,
122,-0.07,0.09,
123,-0.075,0.075,
124,-0.08,0.085,
125,-0.09,0.09,
126,-0.1,0.095,
127,-0.095,0.08,
128,-0.095,0.075,
129,-0.085,0.08,
130,-0.095,0.095,
131,-0.1,0.08,
132,-0.1,0.085,
133,-0.115,0.085,
134,-0.115,0.095,
135,-0.13,0.09,
136,-0.14,0.06,
137,-0.15,0.05,
138,-0.16,0.085,
139,-0.145,0.1,
140,-0.155,0.095,
141,-0.16,0.08,
142,-0.17,0.09,
143,-0.185,0.085,
144,-0.175,0.085,
145,-0.17,0.08,
146,-0.165,0.075,
147,-0.17,0.09,
148,-0.17,0.105,
149,-0.165,0.07,
150,-0.18,0.075,
151,-0.18,0.08,
152,-0.2,0.105,
153,-0.2,0.095,
154,-0.215,0.075,
155,-0.205,0.045,
156,-0.21,0.065,
157,-0.205,0.1,
158,-0.21,0.09,
159,-0.22,0.075,
160,-0.225,0.08,
161,-0.225,0.08,
162,-0.24,0.075,
163,-0.225,0.06,
164,-0.21,0.055,
165,-0.205,0.085,
166,-0.195,0.095,
167,-0.19,0.07,
168,-0.2,0.065,
169,-0.19,0.09,
170,-0.19,0.105,
171,-0.185,0.115,
172,-0.17,0.075,
173,-0.17,0.07,
174,-0.175,0.09,
175,-0.165,0.11,
176,-0.165,0.105,
177,-0.185,0.09,
178,-0.185,0.085,
179,-0.205,0.09,
180,-0.205,0.085,
181,-0.21,0.08,
182,-0.195,0.06,
183,-0.195,0.09,
184,-0.19,0.09,
185,-0.195,0.06,
186,-0.195,0.065,
187,-0.195,0.065,
188,-0.185,0.09,
189,-0.175,0.085,
190,-0.175,0.045,
191,-0.2,0.025,
192,-0.225,0.04,
193,-0.25,0.07,
194,-0.24,0.055,
195,-0.24,0.03,
196,-0.24,0.02,
197,-0.25,0.02,
198,-0.26,0.03,
199,-0.27,0.015,
200,-0.28,-0.015,
201,-0.305,0.0,
202,-0.335,0.015,
203,-0.35,0.0,
204,-0.34,-0.025,
205,-0.285,-0.03,
206,-0.205,-0.02,
207,-0.135,-0.02,
208,-0.095,-0.055,
209,-0.045,-0.08,
210,0.01,-0.07,
211,0.075,-0.04,
212,0.14,-0.055,
213,0.175,-0.065,
214,0.135,-0.095,
215,0.045,-0.08,
216,-0.155,-0.065,
217,-0.425,-0.07,
218,-0.71,-0.085,
219,-0.915,-0.065,
220,-1.09,-0.05,
221,-1.255,-0.06,
222,-1.395,-0.08,
223,-1.465,-0.08,
224,-1.505,-0.03,
225,-1.49,-0.02,V
226,-1.45,-0.025,
227,-1.39,-0.05,
228,-1.34,-0.005,
229,-1.27,0.03,
230,-1.155,0.045,
231,-1.025,0.045,
232,-0.95,0.025,
233,-0.93,0.03,
234,-0.93,0.05,
235,-0.91,0.04,
236,-0.885,0.03,
237,-0.865,0.015,
238,-0.84,0.04,
239,-0.8,0.04,
240,-0.755,0.025,
241,-0.715,0.02,
242,-0.66,0.035,
243,-0.63,0.055,
244,-0.58,0.04,
245,-0.54,0.01,
246,-0.51,0.015,
247,-0.465,0.04,
248,-0.435,0.07,
249,-0.395,0.07,
250,-0.365,0.045,
251,-0.315,0.055,
252,-0.265,0.08,
253,-0.2,0.09,
254,-0.155,0.09,
255,-0.09,0.08,
256,-0.04,0.09,
257,-0.015,0.1,
258,-0.01,0.105,
259,0.005,0.1,
260,0.03,0.1,
261,0.055,0.13,
262,0.08,0.13,
263,0.085,0.095,
264,0.09,0.09,
265,0.11,0.09,
266,0.11,0.135,
267,0.13,0.14,
268,0.15,0.115,
269,0.155,0.1,
270,0.15,0.115,
271,0.18,0.15,
272,0.185,0.135,
273,0.205,0.115,
274,0.22,0.11,
275,0.235,0.125,
276,0.235,0.15,
277,0.255,0.135,
278,0.27,0.125,
279,0.29,0.15,
280,0.29,0.14,
281,0.3,0.125,
282,0.3,0.105,
283,0.305,0.115,
284,0.325,0.155,
285,0.315,0.165,
286,0.31,0.13,
287,0.315,0.12,
288,0.315,0.145,
289,0.345,0.16,
290,0.36,0.155,
291,0.37,0.125,
292,0.375,0.125,
293,0.375,0.13,
294,0.365,0.155,
295,0.375,0.14,
296,0.385,0.13,
297,0.41,0.145,
298,0.405,0.14,
299,0.4,0.125,
300,0.4,0.1,
301,0.405,0.13,
302,0.4,0.16,
303,0.41,0.15,
304,0.395,0.13,
305,0.4,0.105,
306,0.385,0.14,
307,0.39,0.15,
308,0.395,0.14,
309,0.385,0.12,
310,0.38,0.135,
311,0.355,0.125,
312,0.355,0.13,
313,0.355,0.11,
314,0.35,0.125,
315,0.325,0.14,
316,0.3,0.12,
317,0.28,0.09,
318,0.25,0.1,
319,0.25,0.11,
320,0.25,0.135,
321,0.25,0.13,
322,0.235,0.1,
323,0.21,0.095,
324,0.175,0.115,
325,0.165,0.13,
326,0.16,0.115,
327,0.145,0.095,
328,0.14,0.105,
329,0.145,0.12,
330,0.13,0.11,
331,0.1,0.1,
332,0.08,0.11,
333,0.04,0.125,
334,0.015,0.12,
335,-0.01,0.085,
336,-0.025,0.08,
337,-0.025,0.105,
338,-0.03,0.125,
339,-0.04,0.1,
340,-0.045,0.085,
341,-0.07,0.1,
342,-0.105,0.105,
343,-0.08,0.1,
344,-0.075,0.09,
345,-0.085,0.09,
346,-0.09,0.115,
347,-0.11,0.1,
348,-0.13,0.085,
349,-0.12,0.105,
350,-0.115,0.12,
351,-0.125,0.115,
352,-0.15,0.09,
353,-0.17,0.075,
354,-0.16,0.095,
355,-0.16,0.105,
356,-0.15,0.1,
357,-0.155,0.09,
358,-0.16,0.095,
359,-0.17,0.09,
360,-0.185,0.08,
361,-0.18,0.07,
362,-0.18,0.1,
363,-0.19,0.1,
364,-0.18,0.11,
365,-0.17,0.06,
366,-0.16,0.075,
367,-0.14,0.105,
368,-0.14,0.115,
369,-0.145,0.08,
370,-0.17,0.07,
371,-0.18,0.075,
372,-0.175,0.1,
373,-0.16,0.095,
374,-0.155,0.09,
375,-0.155,0.1,
376,-0.165,0.12,
377,-0.15,0.095,
378,-0.155,0.065,
379,-0.15,0.09,
380,-0.145,0.115,
381,-0.145,0.105,
382,-0.165,0.09,
383,-0.195,0.075,
384,-0.205,0.1,
385,-0.19,0.105,
386,-0.18,0.09,
387,-0.165,0.075,
388,-0.17,0.1,
389,-0.16,0.09,
390,-0.17,0.08,
391,-0.165,0.085,
392,-0.17,0.1,
393,-0.17,0.11,
394,-0.17,0.075,
395,-0.17,0.035,
396,-0.185,0.07,
397,-0.19,0.095,
398,-0.18,0.095,
399,-0.18,0.07,
400,-0.18,0.09,
401,-0.175,0.08,
402,-0.2,0.07,
403,-0.21,0.055,
404,-0.2,0.075,
405,-0.2,0.105,
406,-0.21,0.08,
407,-0.215,0.055,
408,-0.21,0.06,
409,-0.2,0.09,
410,-0.175,0.075,
411,-0.16,0.06,
412,-0.145,0.05,
413,-0.145,0.07,
414,-0.135,0.085,
415,-0.14,0.075,
416,-0.135,0.06,
417,-0.13,0.08,
418,-0.12,0.095,
419,-0.115,0.07,
420,-0.11,0.06,
421,-0.105,0.075,
422,-0.1,0.105,
423,-0.095,0.105,
424,-0.11,0.065,
425,-0.14,0.07,
426,-0.175,0.095,
427,-0.18,0.105,
428,-0.18,0.09,
429,-0.18,0.075,
430,-0.165,0.095,
431,-0.175,0.09,
432,-0.175,0.07,
433,-0.175,0.07,
434,-0.165,0.09,
435,-0.165,0.11,
436,-0.165,0.08,
437,-0.175,0.03,
438,-0.165,0.06,
439,-0.16,0.085,
440,-0.155,0.09,
441,-0.15,0.07,
442,-0.155,0.075,
443,-0.16,0.08,
444,-0.16,0.08,
445,-0.155,0.06,
446,-0.145,0.075,
447,-0.15,0.095,
448,-0.15,0.09,
449,-0.185,0.075,
450,-0.2,0.06,
451,-0.2,0.09,
452,-0.195,0.105,
453,-0.19,0.085,
454,-0.19,0.065,
455,-0.195,0.075,
456,-0.2,0.1,
457,-0.195,0.095,
458,-0.185,0.08,
459,-0.175,0.08,
460,-0.175,0.095,
461,-0.155,0.09,
462,-0.17,0.06,
463,-0.17,0.07,
464,-0.165,0.09,
465,-0.15,0.105,
466,-0.16,0.075,
467,-0.165,0.05,
468,-0.175,0.075,
469,-0.17,0.105,
470,-0.17,0.105,
471,-0.185,0.085,
472,-0.215,0.07,
473,-0.225,0.085,
474,-0.19,0.09,
475,-0.125,0.075,
476,-0.04,0.08,
477,0.05,0.1,
478,0.125,0.105,
479,0.215,0.065,
480,0.32,0.055,
481,0.415,0.1,
482,0.5,0.11,
483,0.605,0.105,
484,0.725,0.09,
485,0.845,0.095,
486,0.94,0.11,
487,1.06,0.125,N
488,1.11,0.12,
489,1.1,0.1,
490,1.005,0.115,
491,0.86,0.12,
492,0.615,0.115,
493,0.24,0.12,
494,-0.11,0.15,
495,-0.335,0.175,
496,-0.46,0.155,
497,-0.515,0.135,
498,-0.54,0.135,
499,-0.51,0.16,
500,-0.44,0.17,
501,-0.385,0.14,
502,-0.36,0.13,
503,-0.35,0.125,
504,-0.335,0.145,
505,-0.32,0.14,
506,-0.295,0.13,
507,-0.3,0.115,
508,-0.3,0.135,
509,-0.325,0.12,
510,-0.335,0.1,
511,-0.335,0.09,
512,-0.335,0.115,
513,-0.325,0.13,
514,-0.31,0.115,
515,-0.3,0.08,
516,-0.28,0.085,
517,-0.26,0.11,
518,-0.24,0.12,
519,-0.245,0.095,
520,-0.26,0.08,
521,-0.27,0.085,
522,-0.28,0.1,
523,-0.28,0.11,
524,-0.275,0.085,
525,-0.27,0.09,
526,-0.275,0.085,
527,-0.28,0.095,
528,-0.255,0.09,
529,-0.25,0.08,
530,-0.24,0.075,
531,-0.235,0.105,
532,-0.235,0.09,
533,-0.235,0.07,
534,-0.24,0.055,
535,-0.235,0.075,
536,-0.235,0.105,
537,-0.23,0.095,
538,-0.24,0.07,
539,-0.225,0.055,
540,-0.23,0.085,
541,-0.225,0.105,
542,-0.21,0.11,
543,-0.195,0.085,
544,-0.215,0.085,
545,-0.22,0.095,
546,-0.24,0.09,
547,-0.23,0.08,
548,-0.23,0.08,
549,-0.215,0.095,
550,-0.21,0.1,
551,-0.21,0.08,
552,-0.22,0.065,
553,-0.205,0.075,
554,-0.18,0.09,
555,-0.185,0.1,
556,-0.19,0.085,
557,-0.19,0.05,
558,-0.195,0.065,
559,-0.16,0.09,
560,-0.14,0.12,
561,-0.13,0.09,
562,-0.125,0.07,
563,-0.13,0.07,
564,-0.14,0.095,
565,-0.13,0.095,
566,-0.12,0.09,
567,-0.125,0.08,
568,-0.125,0.08,
569,-0.145,0.095,
570,-0.125,0.1,
571,-0.12,0.085,
572,-0.125,0.085,
573,-0.115,0.095,
574,-0.12,0.1,
575,-0.14,0.09,
576,-0.15,0.06,
577,-0.145,0.065,
578,-0.135,0.095,
579,-0.11,0.105,
580,-0.105,0.085,
581,-0.1,0.055,
582,-0.085,0.06,
583,-0.095,0.085,
584,-0.08,0.095,
585,-0.065,0.09,
586,-0.07,0.06,
587,-0.07,0.065,
588,-0.075,0.105,
589,-0.07,0.095,
590,-0.06,0.085,
591,-0.055,0.08,
592,-0.05,0.09,
593,-0.075,0.1,
594,-0.065,0.1,
595,-0.065,0.08,
596,-0.07,0.1,
597,-0.08,0.11,
598,-0.08,0.11,
599,-0.08,0.07,
600,-0.08,0.065,
601,-0.08,0.1,
602,-0.08,0.11,
603,-0.075,0.105,
604,-0.09,0.085,
605,-0.09,0.07,
606,-0.085,0.1,
607,-0.09,0.12,
608,-0.075,0.11,
609,-0.075,0.07,
610,-0.07,0.08,
611,-0.075,0.1,
612,-0.09,0.105,
613,-0.075,0.085,
614,-0.065,0.09,
615,-0.07,0.09,
616,-0.07,0.1,
617,-0.085,0.1,
618,-0.09,0.095,
619,-0.09,0.065,
620,-0.08,0.09,
621,-0.1,0.1,
622,-0.105,0.105,
623,-0.115,0.075,
624,-0.12,0.06,
625,-0.115,0.085,
626,-0.1,0.12,
627,-0.105,0.115,
628,-0.12,0.075,
629,-0.14,0.065,
630,-0.14,0.1,
631,-0.115,0.115,
632,-0.07,0.105,
633,-0.075,0.09,
634,-0.09,0.1,
635,-0.105,0.1,
636,-0.115,0.11,
637,-0.11,0.105,
638,-0.11,0.11,
639,-0.13,0.115,
640,-0.135,0.115,
641,-0.15,0.09,
642,-0.13,0.08,
643,-0.125,0.09,
644,-0.125,0.12,
645,-0.14,0.11,
646,-0.155,0.085,
647,-0.155,0.075,
648,-0.155,0.095,
649,-0.155,0.095,
650,-0.145,0.1,
651,-0.13,0.09,
652,-0.13,0.08,
653,-0.13,0.09,
654,-0.12,0.105,
655,-0.11,0.09,
656,-0.09,0.085,
657,-0.07,0.1,
658,-0.06,0.105,
659,-0.08,0.085,
660,-0.075,0.075,
661,-0.05,0.085,
662,-0.015,0.12,
663,0.005,0.115,
664,0.02,0.1,
665,0.02,0.08,
666,0.04,0.09,
667,0.06,0.095,
668,0.08,0.1,
669,0.105,0.085,
670,0.11,0.07,
671,0.095,0.065,
672,0.12,0.065,
673,0.2,0.065,
674,0.265,0.045,
675,0.265,0.04,
676,0.22,0.045,
677,0.2,0.015,
678,0.19,0.005,
679,0.15,0.01,
680,0.035,0.04,
681,-0.225,0.03,
682,-0.625,0.02,
683,-1.09,-0.005,
684,-1.475,0.01,
685,-1.745,0.025,
686,-1.895,0.025,
687,-1.955,0.015,
688,-1.995,0.01,
689,-2.01,0.02,V
690,-2.0,0.025,
691,-1.965,0.03,
692,-1.905,0.04,
693,-1.845,0.05,
694,-1.75,0.065,
695,-1.605,0.05,
696,-1.475,0.05,
697,-1.35,0.075,
698,-1.275,0.12,
699,-1.235,0.105,
700,-1.18,0.09,
701,-1.105,0.085,
702,-1.035,0.105,
703,-0.94,0.11,
704,-0.83,0.095,
705,-0.77,0.105,
706,-0.715,0.105,
707,-0.665,0.11,
708,-0.605,0.1,
709,-0.52,0.1,
710,-0.465,0.11,
711,-0.42,0.115,
712,-0.4,0.1,
713,-0.39,0.09,
714,-0.375,0.09,
715,-0.34,0.115,
716,-0.305,0.13,
717,-0.27,0.115,
718,-0.19,0.115,
719,-0.125,0.12,
720,-0.06,0.12,
721,-0.005,0.125,
722,0.05,0.125,
723,0.11,0.145,
724,0.15,0.155,
725,0.185,0.145,
726,0.21,0.135,
727,0.23,0.155,
728,0.26,0.17,
729,0.285,0.165,
730,0.325,0.145,
731,0.33,0.14,
732,0.325,0.15,
733,0.35,0.175,
734,0.39,0.175,
735,0.43,0.17,
736,0.47,0.17,
737,0.465,0.17,
738,0.485,0.145,
739,0.505,0.15,
740,0.52,0.165,
741,0.54,0.175,
742,0.56,0.15,
743,0.585,0.14,
744,0.6,0.16,
745,0.62,0.16,
746,0.645,0.16,
747,0.655,0.15,
748,0.675,0.165,
749,0.68,0.17,
750,0.695,0.16,
751,0.715,0.175,
752,0.755,0.19,
753,0.785,0.195,
754,0.805,0.175,
755,0.795,0.155,
756,0.805,0.17,
757,0.82,0.195,
758,0.84,0.195,
759,0.865,0.18,
760,0.855,0.17,
761,0.85,0.17,
762,0.835,0.17,
763,0.83,0.165,
764,0.835,0.19,
765,0.825,0.19,
766,0.8,0.18,
767,0.79,0.16,
768,0.77,0.17,
769,0.78,0.185,
770,0.77,0.185,
771,0.755,0.16,
772,0.715,0.165,
773,0.68,0.165,
774,0.665,0.18,
775,0.64,0.185,
776,0.615,0.19,
777,0.605,0.19,
778,0.585,0.18,
779,0.56,0.155,
780,0.53,0.165,
781,0.495,0.195,
782,0.46,0.2,
783,0.435,0.19,
784,0.4,0.18,
785,0.36,0.165,
786,0.325,0.175,
787,0.29,0.17,
788,0.275,0.17,
789,0.245,0.185,
790,0.205,0.18,
791,0.185,0.16,
792,0.185,0.17,
793,0.175,0.18,
794,0.165,0.185,
795,0.155,0.175,
796,0.14,0.165,
797,0.13,0.16,
798,0.11,0.175,
799,0.095,0.16,
800,0.075,0.175,
801,0.055,0.185,
802,0.035,0.155,
803,0.015,0.125,
804,-0.005,0.135,
805,0.01,0.165,
806,0.015,0.175,
807,0.0,0.155,
808,-0.02,0.155,
809,-0.04,0.155,
810,-0.055,0.145,
811,-0.035,0.125,
812,-0.005,0.14,
813,0.005,0.165,
814,-0.005,0.15,
815,-0.025,0.13,
816,-0.02,0.145,
817,-0.01,0.15,
818,-0.015,0.15,
819,-0.02,0.135,
820,-0.03,0.13,
821,-0.045,0.145,
822,-0.06,0.14,
823,-0.065,0.125,
824,-0.06,0.14,
825,-0.05,0.15,
826,-0.06,0.125,
827,-0.085,0.1,
828,-0.09,0.125,
829,-0.11,0.145,
830,-0.105,0.145,
831,-0.095,0.14,
832,-0.085,0.14,
833,-0.075,0.13,
834,-0.08,0.12,
835,-0.095,0.12,
836,-0.095,0.15,
837,-0.09,0.16,
838,-0.095,0.135,
839,-0.115,0.12,
840,-0.115,0.15,
841,-0.12,0.14,
842,-0.11,0.13,
843,-0.095,0.125,
844,-0.105,0.145,
845,-0.11,0.135,
846,-0.125,0.13,
847,-0.115,0.13,
848,-0.09,0.16,
849,-0.095,0.155,
850,-0.11,0.135,
851,-0.125,0.115,
852,-0.135,0.15,
853,-0.13,0.15,
854,-0.125,0.145,
855,-0.125,0.135,
856,-0.135,0.155,
857,-0.145,0.13,
858,-0.155,0.115,
859,-0.145,0.12,
860,-0.13,0.15,
861,-0.135,0.16,
862,-0.14,0.135,
863,-0.155,0.125,
864,-0.155,0.14,
865,-0.135,0.14,
866,-0.125,0.14,
867,-0.13,0.13,
868,-0.135,0.145,
869,-0.145,0.14,
870,-0.165,0.135,
871,-0.19,0.14,
872,-0.175,0.16,
873,-0.15,0.155,
874,-0.135,0.135,
875,-0.125,0.115,
876,-0.145,0.145,
877,-0.11,0.16,
878,-0.09,0.16,
879,-0.07,0.145,
880,-0.075,0.155,
881,-0.09,0.145,
882,-0.135,0.135,
883,-0.15,0.13,
884,-0.155,0.15,
885,-0.155,0.17,
886,-0.12,0.175,
887,-0.1,0.14,
888,-0.08,0.14,
889,-0.065,0.165,
890,-0.075,0.17,
891,-0.095,0.155,
892,-0.1,0.145,
893,-0.095,0.16,
894,-0.085,0.175,
895,-0.08,0.18,
896,-0.08,0.18,
897,-0.08,0.19,
898,-0.095,0.18,
899,-0.12,0.17,
900,-0.125,0.145,
901,-0.125,0.165,
902,-0.125,0.19,
903,-0.13,0.185,
904,-0.135,0.155,
905,-0.13,0.155,
906,-0.13,0.165,
907,-0.12,0.19,
908,-0.115,0.185,
909,-0.105,0.155,
910,-0.12,0.15,
911,-0.145,0.145,
912,-0.135,0.17,
913,-0.11,0.175,
914,-0.11,0.18,
915,-0.11,0.19,
916,-0.125,0.185,
917,-0.105,0.185,
918,-0.1,0.16,
919,-0.08,0.175,
920,-0.05,0.2,
921,-0.03,0.205,
922,-0.07,0.185,
923,-0.12,0.165,
924,-0.185,0.185,
925,-0.215,0.185,
926,-0.22,0.18,
927,-0.185,0.15,
928,-0.16,0.155,
929,-0.16,0.165,
930,-0.145,0.17,
931,-0.15,0.16,
932,-0.13,0.17,
933,-0.14,0.18,
934,-0.15,0.17,
935,-0.17,0.15,
936,-0.19,0.145,
937,-0.185,0.165,
938,-0.17,0.185,
939,-0.175,0.18,
940,-0.165,0.155,
941,-0.16,0.16,
942,-0.18,0.175,
943,-0.175,0.18,
944,-0.185,0.17,
945,-0.185,0.16,
946,-0.19,0.165,
947,-0.205,0.16,
948,-0.21,0.15,
949,-0.215,0.15,
950,-0.215,0.165,
951,-0.18,0.17,
952,-0.125,0.16,
953,-0.075,0.14,
954,0.0,0.13,
955,0.085,0.15,
956,0.19,0.175,
957,0.29,0.17,
958,0.36,0.145,
959,0.44,0.14,
960,0.535,0.16,
961,0.68,0.165,
962,0.8,0.16,
963,0.905,0.145,
964,0.995,0.165,N
965,1.025,0.17,
966,1.005,0.165,
967,0.92,0.155,
968,0.79,0.175,
969,0.57,0.205,
970,0.225,0.195,
971,-0.12,0.185,
972,-0.335,0.18,
973,-0.43,0.19,
974,-0.505,0.215,
975,-0.52,0.205,
976,-0.495,0.19,
977,-0.44,0.19,
978,-0.4,0.19,
979,-0.365,0.175,
980,-0.37,0.16,
981,-0.385,0.155,
982,-0.36,0.18,
983,-0.37,0.175,
984,-0.38,0.135,
985,-0.39,0.135,
986,-0.415,0.145,
987,-0.405,0.155,
988,-0.405,0.11,
989,-0.405,0.09,
990,-0.415,0.105,
991,-0.41,0.13,
992,-0.395,0.145,
993,-0.385,0.11,
994,-0.385,0.095,
995,-0.385,0.105,
996,-0.365,0.12,
997,-0.355,0.09,
998,-0.345,0.09,
999,-0.335,0.115,
1000,-0.355,0.09,
1001,-0.39,0.07,
1002,-0.4,0.075,
1003,-0.39,0.115,
1004,-0.36,0.11,
1005,-0.33,0.075,
1006,-0.34,0.05,
1007,-0.38,0.07,
1008,-0.395,0.11,
1009,-0.405,0.105,
1010,-0.39,0.075,
1011,-0.395,0.08,
1012,-0.39,0.09,
1013,-0.4,0.08,
1014,-0.4,0.07,
1015,-0.395,0.07,
1016,-0.39,0.09,
1017,-0.385,0.09,
1018,-0.39,0.065,
1019,-0.385,0.06,
1020,-0.385,0.075,
1021,-0.38,0.1,
1022,-0.37,0.07,
1023,-0.34,0.045,
1024,-0.335,0.065,
1025,-0.335,0.095,
1026,-0.33,0.095,
1027,-0.325,0.085,
1028,-0.35,0.095,
1029,-0.365,0.1,
1030,-0.355,0.085,
1031,-0.345,0.055,
1032,-0.34,0.085,
1033,-0.34,0.11,
1034,-0.36,0.1,
1035,-0.35,0.09,
1036,-0.345,0.09,
1037,-0.35,0.095,
1038,-0.355,0.08,
1039,-0.345,0.08,
1040,-0.34,0.08,
1041,-0.335,0.09,
1042,-0.345,0.075,
1043,-0.365,0.055,
1044,-0.35,0.075,
1045,-0.35,0.095,
1046,-0.335,0.075,
1047,-0.33,0.055,
1048,-0.31,0.045,
1049,-0.29,0.075,
1050,-0.285,0.09,
1051,-0.265,0.075,
1052,-0.275,0.08,
1053,-0.28,0.08,
1054,-0.3,0.08,
1055,-0.305,0.065,
1056,-0.305,0.07,
1057,-0.295,0.1,
1058,-0.285,0.1,
1059,-0.305,0.085,
1060,-0.32,0.06,
1061,-0.32,0.085,
1062,-0.305,0.1,
1063,-0.275,0.1,
1064,-0.265,0.07,
1065,-0.275,0.08,
1066,-0.285,0.095,
1067,-0.28,0.09,
1068,-0.27,0.095,
1069,-0.26,0.115,
1070,-0.25,0.135,
1071,-0.255,0.095,
1072,-0.255,0.07,
1073,-0.265,0.09,
1074,-0.265,0.125,
1075,-0.25,0.125,
1076,-0.26,0.105,
1077,-0.245,0.11,
1078,-0.26,0.115,
1079,-0.285,0.095,
1080,-0.29,0.08,
1081,-0.29,0.105,
1082,-0.28,0.13,
1083,-0.285,0.105,
1084,-0.285,0.095,
1085,-0.28,0.095,
1086,-0.31,0.12,
1087,-0.31,0.115,
1088,-0.3,0.09,
1089,-0.285,0.095,
1090,-0.275,0.1,
1091,-0.295,0.11,
1092,-0.305,0.1,
1093,-0.3,0.095,
1094,-0.3,0.115,
1095,-0.32,0.115,
1096,-0.3,0.085,
1097,-0.305,0.06,
1098,-0.315,0.095,
1099,-0.305,0.12,
1100,-0.295,0.11,
1101,-0.295,0.075,
1102,-0.305,0.095,
1103,-0.335,0.11,
1104,-0.335,0.105,
1105,-0.34,0.08,
1106,-0.335,0.095,
1107,-0.335,0.1,
1108,-0.345,0.1,
1109,-0.36,0.075,
1110,-0.365,0.085,
1111,-0.355,0.12,
1112,-0.335,0.105,
1113,-0.33,0.075,
1114,-0.32,0.075,
1115,-0.31,0.105,
1116,-0.295,0.095,
1117,-0.275,0.09,
1118,-0.25,0.115,
1119,-0.23,0.105,
1120,-0.21,0.075,
1121,-0.2,0.07,
1122,-0.175,0.095,
1123,-0.15,0.115,
1124,-0.14,0.09,
1125,-0.145,0.08,
1126,-0.155,0.075,
1127,-0.155,0.085,
1128,-0.13,0.06,
1129,-0.13,0.03,
1130,-0.115,0.03,
1131,-0.105,0.04,
1132,-0.06,0.025,
1133,-0.04,-0.01,
1134,-0.045,0.0,
1135,-0.085,0.02,
1136,-0.16,0.015,
1137,-0.26,-0.04,
1138,-0.43,-0.05,
1139,-0.69,-0.03,
1140,-1.06,-0.005,
1141,-1.425,-0.015,
1142,-1.73,-0.035,
1143,-1.93,-0.02,
1144,-2.035,0.015,
1145,-2.065,0.005,
1146,-2.06,-0.02,
1147,-2.08,0.005,V
1148,-2.055,0.035,
1149,-1.995,0.04,
1150,-1.9,0.025,
1151,-1.805,0.035,
1152,-1.705,0.085,
1153,-1.635,0.11,
1154,-1.54,0.105,
1155,-1.44,0.09,
1156,-1.325,0.11,
1157,-1.235,0.125,
1158,-1.145,0.14,
1159,-1.065,0.13,
1160,-0.995,0.14,
1161,-0.94,0.145,
1162,-0.915,0.135,
1163,-0.87,0.1,
1164,-0.83,0.095,
1165,-0.76,0.13,
1166,-0.69,0.135,
1167,-0.655,0.115,
1168,-0.625,0.08,
1169,-0.61,0.1,
1170,-0.585,0.12,
1171,-0.565,0.115,
1172,-0.53,0.085,
1173,-0.49,0.09,
1174,-0.47,0.11,
1175,-0.42,0.105,
1176,-0.35,0.09,
1177,-0.275,0.1,
1178,-0.205,0.12,
1179,-0.155,0.135,
1180,-0.12,0.11,
1181,-0.09,0.1,
1182,-0.03,0.115,
1183,0.02,0.15,
1184,0.06,0.145,
1185,0.08,0.125,
1186,0.095,0.12,
1187,0.13,0.15,
1188,0.15,0.14,
1189,0.17,0.135,
1190,0.18,0.135,
1191,0.185,0.155,
1192,0.21,0.15,
1193,0.225,0.125,
1194,0.245,0.13,
1195,0.27,0.155,
1196,0.3,0.155,
1197,0.315,0.13,
1198,0.31,0.115,
1199,0.315,0.125,
1200,0.35,0.165,
1201,0.37,0.16,
1202,0.365,0.135,
1203,0.37,0.145,
1204,0.385,0.15,
1205,0.4,0.16,
1206,0.425,0.155,
1207,0.47,0.145,
1208,0.49,0.165,
1209,0.505,0.175,
1210,0.505,0.175,
1211,0.53,0.145,
1212,0.53,0.165,
1213,0.535,0.195,
1214,0.54,0.185,
1215,0.545,0.155,
1216,0.545,0.14,
1217,0.57,0.145,
1218,0.58,0.175,
1219,0.57,0.175,
1220,0.575,0.15,
1221,0.56,0.16,
1222,0.55,0.175,
1223,0.545,0.18,
1224,0.555,0.165,
1225,0.55,0.155,
1226,0.56,0.155,
1227,0.55,0.18,
1228,0.53,0.155,
1229,0.5,0.14,
1230,0.48,0.165,
1231,0.465,0.19,
1232,0.465,0.165,
1233,0.44,0.145,
1234,0.405,0.135,
1235,0.395,0.155,
1236,0.375,0.165,
1237,0.36,0.165,
1238,0.355,0.14,
1239,0.345,0.15,
1240,0.29,0.16,
1241,0.25,0.145,
1242,0.22,0.13,
1243,0.195,0.14,
1244,0.175,0.16,
1245,0.15,0.155,
1246,0.12,0.125,
1247,0.095,0.125,
1248,0.065,0.135,
1249,0.055,0.165,
1250,0.035,0.155,
1251,0.02,0.125,
1252,-0.005,0.115,
1253,-0.025,0.135,
1254,-0.04,0.15,
1255,-0.065,0.15,
1256,-0.07,0.13,
1257,-0.08,0.14,
1258,-0.1,0.15,
1259,-0.115,0.145,
1260,-0.135,0.125,
1261,-0.13,0.135,
1262,-0.14,0.15,
1263,-0.155,0.145,
1264,-0.16,0.115,
1265,-0.17,0.115,
1266,-0.17,0.135,
1267,-0.175,0.155,
1268,-0.18,0.145,
1269,-0.205,0.115,
1270,-0.21,0.115,
1271,-0.225,0.14,
1272,-0.215,0.145,
1273,-0.2,0.14,
1274,-0.185,0.135,
1275,-0.2,0.125,
1276,-0.22,0.14,
1277,-0.23,0.145,
1278,-0.23,0.12,
1279,-0.21,0.12,
1280,-0.195,0.145,
1281,-0.205,0.135,
1282,-0.215,0.12,
1283,-0.225,0.11,
1284,-0.21,0.13,
1285,-0.2,0.155,
1286,-0.195,0.155,
1287,-0.2,0.11,
1288,-0.22,0.115,
1289,-0.23,0.13,
1290,-0.235,0.14,
1291,-0.23,0.13,
1292,-0.23,0.11,
1293,-0.225,0.12,
1294,-0.24,0.12,
1295,-0.255,0.14,
1296,-0.25,0.115,
1297,-0.23,0.125,
1298,-0.225,0.125,
1299,-0.24,0.13,
1300,-0.24,0.115,
1301,-0.26,0.12,
1302,-0.25,0.125,
1303,-0.245,0.155,
1304,-0.23,0.15,
1305,-0.215,0.115,
1306,-0.22,0.105,
1307,-0.225,0.125,
1308,-0.225,0.14,
1309,-0.23,0.145,
1310,-0.215,0.125,
1311,-0.215,0.125,
1312,-0.245,0.14,
1313,-0.25,0.135,
1314,-0.245,0.12,
1315,-0.24,0.135,
1316,-0.24,0.14,
1317,-0.23,0.135,
1318,-0.23,0.105,
1319,-0.245,0.115,
1320,-0.24,0.14,
1321,-0.245,0.155,
1322,-0.24,0.135,
1323,-0.245,0.12,
1324,-0.245,0.13,
1325,-0.25,0.135,
1326,-0.25,0.125,
1327,-0.225,0.12,
1328,-0.24,0.115,
1329,-0.24,0.135,
1330,-0.235,0.115,
1331,-0.24,0.1,
1332,-0.24,0.105,
1333,-0.24,0.135,
1334,-0.24,0.135,
1335,-0.255,0.095,
1336,-0.255,0.08,
1337,-0.26,0.105,
1338,-0.225,0.125,
1339,-0.225,0.11,
1340,-0.22,0.09,
1341,-0.215,0.09,
1342,-0.225,0.11,
1343,-0.235,0.095,
1344,-0.25,0.09,
1345,-0.245,0.115,
1346,-0.245,0.13,
1347,-0.25,0.115,
1348,-0.255,0.08,
1349,-0.24,0.09,
1350,-0.215,0.125,
1351,-0.21,0.125,
1352,-0.215,0.105,
1353,-0.225,0.09,
1354,-0.23,0.105,
1355,-0.23,0.11,
1356,-0.225,0.1,
1357,-0.225,0.105,
1358,-0.23,0.12,
1359,-0.225,0.11,
1360,-0.22,0.085,
1361,-0.22,0.09,
1362,-0.21,0.105,
1363,-0.19,0.14,
1364,-0.175,0.125,
1365,-0.165,0.105,
1366,-0.17,0.115,
1367,-0.175,0.12,
1368,-0.17,0.115,
1369,-0.155,0.13,
1370,-0.145,0.13,
1371,-0.14,0.14,
1372,-0.135,0.11,
1373,-0.135,0.1,
1374,-0.135,0.12,
1375,-0.14,0.13,
1376,-0.145,0.11,
1377,-0.155,0.095,
1378,-0.16,0.095,
1379,-0.18,0.11,
1380,-0.185,0.105,
1381,-0.185,0.095,
1382,-0.18,0.11,
1383,-0.195,0.105,
1384,-0.205,0.085,
1385,-0.215,0.085,
1386,-0.22,0.095,
1387,-0.22,0.125,
1388,-0.225,0.095,
1389,-0.22,0.085,
1390,-0.215,0.095,
1391,-0.21,0.095,
1392,-0.21,0.09,
1393,-0.205,0.09,
1394,-0.195,0.115,
1395,-0.2,0.12,
1396,-0.2,0.105,
1397,-0.2,0.1,
1398,-0.185,0.12,
1399,-0.185,0.13,
1400,-0.19,0.105,
1401,-0.185,0.095,
1402,-0.19,0.095,
1403,-0.2,0.1,
1404,-0.21,0.105,
1405,-0.215,0.11,
1406,-0.225,0.115,
1407,-0.25,0.105,
1408,-0.245,0.09,
1409,-0.23,0.11,
1410,-0.235,0.12,
1411,-0.235,0.115,
1412,-0.22,0.11,
1413,-0.215,0.105,
1414,-0.21,0.105,
1415,-0.205,0.075,
1416,-0.195,0.105,
1417,-0.2,0.13,
1418,-0.215,0.12,
1419,-0.235,0.105,
1420,-0.235,0.11,
1421,-0.225,0.1,
1422,-0.17,0.115,
1423,-0.085,0.11,
1424,0.015,0.115,
1425,0.115,0.13,
1426,0.205,0.115,
1427,0.295,0.1,
1428,0.405,0.115,
1429,0.535,0.135,
1430,0.685,0.115,
1431,0.825,0.115,
1432,0.95,0.125,
1433,1.05,0.135,N
1434,1.115,0.145,
1435,1.11,0.15,
1436,0.995,0.16,
1437,0.755,0.155,
1438,0.325,0.14,
1439,-0.135,0.145,
1440,-0.42,0.165,
1441,-0.54,0.19,
1442,-0.545,0.175,
1443,-0.52,0.165,
1444,-0.46,0.165,
1445,-0.41,0.165,
1446,-0.37,0.145,
1447,-0.365,0.14,
1448,-0.34,0.16,
1449,-0.35,0.165,
1450,-0.35,0.14,
1451,-0.375,0.13,
1452,-0.38,0.145,
1453,-0.38,0.155,
1454,-0.355,0.13,
1455,-0.33,0.105,
1456,-0.34,0.12,
1457,-0.345,0.125,
1458,-0.325,0.12,
1459,-0.3,0.115,
1460,-0.275,0.125,
1461,-0.28,0.135,
1462,-0.29,0.115,
1463,-0.31,0.105,
1464,-0.31,0.12,
1465,-0.3,0.14,
1466,-0.295,0.14,
1467,-0.3,0.115,
1468,-0.315,0.11,
1469,-0.34,0.12,
1470,-0.335,0.115,
1471,-0.305,0.12,
1472,-0.285,0.125,
1473,-0.28,0.13,
1474,-0.295,0.125,
1475,-0.3,0.12,
1476,-0.295,0.12,
1477,-0.285,0.14,
1478,-0.275,0.12,
1479,-0.285,0.11,
1480,-0.28,0.125,
1481,-0.285,0.115,
1482,-0.27,0.11,
1483,-0.265,0.125,
1484,-0.27,0.125,
1485,-0.27,0.125,
1486,-0.27,0.1,
1487,-0.26,0.1,
1488,-0.24,0.115,
1489,-0.255,0.14,
1490,-0.255,0.125,
1491,-0.255,0.1,
1492,-0.255,0.105,
1493,-0.265,0.105,
1494,-0.26,0.11,
1495,-0.25,0.105,
1496,-0.255,0.12,
1497,-0.255,0.13,
1498,-0.26,0.105,
1499,-0.27,0.1,
1500,-0.255,0.11,
1501,-0.26,0.13,
1502,-0.275,0.115,
1503,-0.26,0.09,
1504,-0.25,0.085,
1505,-0.235,0.115,
1506,-0.225,0.12,
1507,-0.225,0.115,
1508,-0.23,0.095,
1509,-0.22,0.115,
1510,-0.215,0.095,
1511,-0.205,0.075,
1512,-0.195,0.085,
1513,-0.2,0.12,
1514,-0.205,0.115,
1515,-0.22,0.105,
1516,-0.21,0.095,
1517,-0.22,0.11,
1518,-0.21,0.105,
1519,-0.205,0.1,
1520,-0.185,0.085,
1521,-0.195,0.11,
1522,-0.195,0.125,
1523,-0.195,0.105,
1524,-0.175,0.1,
1525,-0.15,0.12,
1526,-0.14,0.13,
1527,-0.145,0.09,
1528,-0.16,0.07,
1529,-0.16,0.09,
1530,-0.145,0.1,
1531,-0.135,0.105,
1532,-0.125,0.075,
1533,-0.125,0.09,
1534,-0.14,0.095,
1535,-0.13,0.08,
1536,-0.11,0.075,
1537,-0.105,0.1,
1538,-0.11,0.115,
1539,-0.13,0.1,
1540,-0.135,0.08,
1541,-0.14,0.095,
1542,-0.14,0.11,
1543,-0.14,0.115,
1544,-0.125,0.09,
1545,-0.125,0.085,
1546,-0.11,0.105,
1547,-0.105,0.11,
1548,-0.125,0.095,
1549,-0.12,0.12,
1550,-0.11,0.125,
1551,-0.11,0.125,
1552,-0.13,0.085,
1553,-0.145,0.095,
1554,-0.145,0.13,
1555,-0.14,0.12,
1556,-0.14,0.11,
1557,-0.135,0.12,
1558,-0.16,0.11,
1559,-0.165,0.105,
1560,-0.165,0.11,
1561,-0.155,0.11,
1562,-0.145,0.12,
1563,-0.155,0.13,
1564,-0.17,0.125,
1565,-0.175,0.11,
1566,-0.16,0.125,
1567,-0.155,0.135,
1568,-0.15,0.12,
1569,-0.165,0.09,
1570,-0.185,0.095,
1571,-0.19,0.125,
1572,-0.18,0.145,
1573,-0.16,0.13,
1574,-0.16,0.13,
1575,-0.16,0.13,
1576,-0.17,0.125,
1577,-0.19,0.11,
1578,-0.175,0.1,
1579,-0.18,0.13,
1580,-0.18,0.14,
1581,-0.165,0.12,
1582,-0.155,0.11,
1583,-0.145,0.12,
1584,-0.11,0.15,
1585,-0.07,0.15,
1586,-0.05,0.125,
1587,-0.025,0.12,
1588,-0.005,0.145,
1589,0.0,0.14,
1590,0.03,0.145,
1591,0.06,0.14,
1592,0.075,0.145,
1593,0.085,0.14,
1594,0.075,0.105,
1595,0.09,0.09,
1596,0.135,0.095,
1597,0.155,0.11,
1598,0.145,0.06,
1599,0.09,0.045,
1600,-0.025,0.03,
1601,-0.24,0.02,
1602,-0.58,-0.005,
1603,-0.965,-0.015,
1604,-1.34,-0.005,
1605,-1.695,0.015,
1606,-1.98,0.005,
1607,-2.125,-0.01,
1608,-2.135,0.015,
1609,-2.125,0.03,
1610,-2.09,0.03,V
1611,-2.075,0.01,
1612,-2.015,0.0,
1613,-1.95,0.03,
1614,-1.85,0.07,
1615,-1.735,0.09,
1616,-1.645,0.09,
1617,-1.55,0.095,
1618,-1.425,0.125,
1619,-1.29,0.135,
1620,-1.185,0.12,
1621,-1.105,0.115,
1622,-1.035,0.135,
1623,-0.965,0.14,
1624,-0.9,0.125,
1625,-0.83,0.125,
1626,-0.765,0.14,
1627,-0.705,0.155,
1628,-0.66,0.13,
1629,-0.635,0.1,
1630,-0.575,0.12,
1631,-0.52,0.13,
1632,-0.46,0.13,
1633,-0.405,0.135,
1634,-0.35,0.12,
1635,-0.29,0.145,
1636,-0.215,0.14,
1637,-0.16,0.125,
1638,-0.095,0.13,
1639,-0.025,0.155,
1640,0.02,0.18,
1641,0.075,0.17,
1642,0.12,0.14,
1643,0.135,0.15,
1644,0.18,0.175,
1645,0.2,0.19,
1646,0.22,0.155,
1647,0.25,0.15,
1648,0.27,0.15,
1649,0.28,0.165,
1650,0.295,0.175,
1651,0.315,0.165,
1652,0.345,0.165,
1653,0.36,0.17,
1654,0.375,0.155,
1655,0.37,0.15,
1656,0.39,0.16,
1657,0.405,0.2,
1658,0.435,0.195,
1659,0.455,0.18,
1660,0.47,0.17,
1661,0.49,0.185,
1662,0.52,0.185,
1663,0.545,0.185,
1664,0.555,0.16,
1665,0.585,0.165,
1666,0.6,0.18,
1667,0.62,0.18,
1668,0.635,0.18,
1669,0.67,0.185,
1670,0.68,0.195,
1671,0.69,0.175,
1672,0.685,0.15,
1673,0.695,0.15,
1674,0.725,0.185,
1675,0.74,0.2,
1676,0.755,0.18,
1677,0.765,0.165,
1678,0.765,0.17,
1679,0.765,0.185,
1680,0.78,0.185,
1681,0.8,0.16,
1682,0.815,0.165,
1683,0.79,0.175,
1684,0.79,0.175,
1685,0.765,0.16,
1686,0.765,0.16,
1687,0.78,0.19,
1688,0.78,0.185,
1689,0.78,0.16,
1690,0.745,0.135,
1691,0.715,0.15,
1692,0.71,0.17,
1693,0.71,0.175,
1694,0.7,0.155,
1695,0.67,0.155,
1696,0.63,0.15,
1697,0.58,0.13,
1698,0.535,0.13,
1699,0.495,0.16,
1700,0.465,0.175,
1701,0.445,0.155,
1702,0.41,0.145,
1703,0.395,0.135,
1704,0.375,0.17,
1705,0.365,0.165,
1706,0.345,0.135,
1707,0.32,0.14,
1708,0.28,0.16,
1709,0.245,0.16,
1710,0.215,0.145,
1711,0.195,0.155,
1712,0.18,0.15,
1713,0.15,0.145,
1714,0.12,0.13,
1715,0.095,0.125,
1716,0.095,0.15,
1717,0.095,0.16,
1718,0.08,0.145,
1719,0.065,0.13,
1720,0.04,0.14,
1721,0.02,0.135,
1722,0.0,0.12,
1723,0.0,0.115,
1724,0.0,0.14,
1725,-0.02,0.145,
1726,-0.02,0.12,
1727,-0.03,0.115,
1728,-0.035,0.135,
1729,-0.03,0.14,
1730,-0.03,0.125,
1731,-0.04,0.09,
1732,-0.07,0.12,
1733,-0.08,0.135,
1734,-0.065,0.12,
1735,-0.07,0.125,
1736,-0.055,0.135,
1737,-0.07,0.125,
1738,-0.085,0.1,
1739,-0.09,0.085,
1740,-0.09,0.115,
1741,-0.06,0.135,
1742,-0.055,0.11,
1743,-0.065,0.1,
1744,-0.095,0.105,
1745,-0.105,0.11,
1746,-0.105,0.08,
1747,-0.09,0.095,
1748,-0.08,0.105,
1749,-0.075,0.105,
1750,-0.085,0.08,
1751,-0.1,0.08,
1752,-0.075,0.115,
1753,-0.08,0.115,
1754,-0.08,0.09,
1755,-0.085,0.08,
1756,-0.11,0.1,
1757,-0.12,0.105,
1758,-0.11,0.085,
1759,-0.095,0.1,
1760,-0.08,0.11,
1761,-0.09,0.105,
1762,-0.09,0.08,
1763,-0.105,0.08,
1764,-0.115,0.12,
1765,-0.1,0.12,
1766,-0.095,0.1,
1767,-0.11,0.095,
1768,-0.125,0.115,
1769,-0.145,0.095,
1770,-0.16,0.085,
1771,-0.155,0.11,
1772,-0.15,0.13,
1773,-0.135,0.115,
1774,-0.125,0.08,
1775,-0.13,0.11,
1776,-0.11,0.125,
1777,-0.125,0.12,
1778,-0.12,0.1,
1779,-0.13,0.115,
1780,-0.145,0.115,
1781,-0.15,0.1,
1782,-0.145,0.1,
1783,-0.14,0.13,
1784,-0.145,0.12,
1785,-0.15,0.09,
1786,-0.16,0.075,
1787,-0.17,0.095,
1788,-0.16,0.12,
1789,-0.155,0.115,
1790,-0.155,0.095,
1791,-0.155,0.11,
1792,-0.15,0.125,
1793,-0.16,0.1,
1794,-0.16,0.095,
1795,-0.16,0.125,
1796,-0.145,0.14,
1797,-0.15,0.115,
1798,-0.155,0.075,
1799,-0.18,0.105,
1800,-0.175,0.12,
1801,-0.165,0.105,
1802,-0.155,0.09,
1803,-0.145,0.105,
1804,-0.165,0.125,
1805,-0.18,0.115,
1806,-0.17,0.1,
1807,-0.16,0.12,
1808,-0.165,0.135,
1809,-0.165,0.135,
1810,-0.16,0.095,
1811,-0.155,0.095,
1812,-0.145,0.13,
1813,-0.135,0.15,
1814,-0.115,0.125,
1815,-0.105,0.125,
1816,-0.095,0.135,
1817,-0.09,0.145,
1818,-0.085,0.11,
1819,-0.09,0.12,
1820,-0.095,0.135,
1821,-0.12,0.125,
1822,-0.15,0.115,
1823,-0.17,0.1,
1824,-0.165,0.125,
1825,-0.17,0.14,
1826,-0.17,0.11,
1827,-0.17,0.095,
1828,-0.18,0.1,
1829,-0.18,0.115,
1830,-0.17,0.1,
1831,-0.175,0.1,
1832,-0.18,0.125,
1833,-0.185,0.125,
1834,-0.19,0.1,
1835,-0.2,0.095,
1836,-0.175,0.115,
1837,-0.175,0.14,
1838,-0.165,0.12,
1839,-0.14,0.09,
1840,-0.14,0.105,
1841,-0.155,0.115,
1842,-0.155,0.11,
1843,-0.155,0.105,
1844,-0.16,0.105,
1845,-0.175,0.125,
1846,-0.19,0.105,
1847,-0.205,0.095,
1848,-0.205,0.095,
1849,-0.2,0.13,
1850,-0.19,0.12,
1851,-0.2,0.09,
1852,-0.21,0.08,
1853,-0.22,0.1,
1854,-0.21,0.12,
1855,-0.21,0.105,
1856,-0.205,0.11,
1857,-0.205,0.125,
1858,-0.2,0.12,
1859,-0.2,0.09,
1860,-0.185,0.09,
1861,-0.185,0.12,
1862,-0.185,0.135,
1863,-0.19,0.12,
1864,-0.205,0.1,
1865,-0.21,0.105,
1866,-0.215,0.125,
1867,-0.22,0.12,
1868,-0.25,0.08,
1869,-0.26,0.08,
1870,-0.235,0.095,
1871,-0.195,0.095,
1872,-0.135,0.095,
1873,-0.03,0.1,
1874,0.095,0.11,
1875,0.195,0.115,
1876,0.285,0.1,
1877,0.36,0.09,
1878,0.46,0.125,
1879,0.58,0.145,
1880,0.695,0.135,
1881,0.81,0.115,
1882,0.895,0.13,N
1883,0.945,0.145,
1884,0.94,0.135,
1885,0.845,0.13,
1886,0.725,0.12,
1887,0.545,0.145,
1888,0.285,0.16,
1889,-0.025,0.14,
1890,-0.27,0.155,
1891,-0.405,0.19,
1892,-0.47,0.185,
1893,-0.49,0.16,
1894,-0.465,0.135,
1895,-0.425,0.165,
1896,-0.385,0.175,
1897,-0.35,0.16,
1898,-0.34,0.145,
1899,-0.315,0.15,
1900,-0.315,0.145,
1901,-0.33,0.125,
1902,-0.35,0.115,
1903,-0.36,0.13,
1904,-0.375,0.13,
1905,-0.38,0.115,
1906,-0.38,0.085,
1907,-0.38,0.07,
1908,-0.36,0.105,
1909,-0.345,0.1,
1910,-0.32,0.08,
1911,-0.31,0.075,
1912,-0.32,0.09,
1913,-0.335,0.1,
1914,-0.335,0.075,
1915,-0.33,0.09,
1916,-0.33,0.105,
1917,-0.325,0.105,
1918,-0.345,0.07,
1919,-0.335,0.055,
1920,-0.335,0.07,
1921,-0.34,0.115,
1922,-0.32,0.085,
1923,-0.325,0.055,
1924,-0.325,0.05,
1925,-0.325,0.08,
1926,-0.31,0.085,
1927,-0.305,0.07,
1928,-0.31,0.07,
1929,-0.315,0.085,
1930,-0.315,0.085,
1931,-0.305,0.07,
1932,-0.3,0.06,
1933,-0.295,0.105,
1934,-0.285,0.11,
1935,-0.295,0.075,
1936,-0.3,0.055,
1937,-0.31,0.075,
1938,-0.3,0.1,
1939,-0.275,0.095,
1940,-0.275,0.08,
1941,-0.28,0.085,
1942,-0.28,0.095,
1943,-0.29,0.095,
1944,-0.295,0.075,
1945,-0.28,0.1,
1946,-0.29,0.11,
1947,-0.285,0.105,
1948,-0.295,0.07,
1949,-0.3,0.065,
1950,-0.285,0.095,
1951,-0.26,0.115,
1952,-0.245,0.095,
1953,-0.225,0.07,
1954,-0.24,0.07,
1955,-0.265,0.1,
1956,-0.27,0.095,
1957,-0.26,0.085,
1958,-0.265,0.08,
1959,-0.235,0.105,
1960,-0.245,0.09,
1961,-0.25,0.07,
1962,-0.24,0.065,
1963,-0.24,0.1,
1964,-0.225,0.12,
1965,-0.22,0.095,
1966,-0.235,0.08,
1967,-0.235,0.08,
1968,-0.225,0.105,
1969,-0.22,0.12,
1970,-0.235,0.085,
1971,-0.25,0.08,
1972,-0.24,0.09,
1973,-0.23,0.11,
1974,-0.185,0.09,
1975,-0.175,0.085,
1976,-0.16,0.1,
1977,-0.17,0.115,
1978,-0.19,0.095,
1979,-0.205,0.07,
1980,-0.2,0.085,
1981,-0.215,0.1,
1982,-0.21,0.12,
1983,-0.19,0.095,
1984,-0.2,0.07,
1985,-0.205,0.09,
1986,-0.18,0.12,
1987,-0.175,0.105,
1988,-0.175,0.085,
1989,-0.18,0.08,
1990,-0.19,0.09,
1991,-0.205,0.09,
1992,-0.19,0.08,
1993,-0.185,0.095,
1994,-0.16,0.115,
1995,-0.175,0.115,
1996,-0.2,0.1,
1997,-0.22,0.085,
1998,-0.22,0.11,
1999,-0.2,0.13,
2000,-0.19,0.125,
2001,-0.17,0.09,
2002,-0.175,0.09,
2003,-0.185,0.115,
2004,-0.18,0.13,
2005,-0.18,0.115,
2006,-0.17,0.095,
2007,-0.17,0.11,
2008,-0.17,0.12,
2009,-0.225,0.11,
2010,-0.205,0.1,
2011,-0.215,0.125,
2012,-0.225,0.13,
2013,-0.225,0.135,
2014,-0.22,0.11,
2015,-0.215,0.095,
2016,-0.195,0.125,
2017,-0.195,0.145,
2018,-0.195,0.12,
2019,-0.215,0.115,
2020,-0.235,0.115,
2021,-0.22,0.14,
2022,-0.21,0.11,
2023,-0.18,0.11,
2024,-0.19,0.125,
2025,-0.18,0.125,
2026,-0.195,0.11,
2027,-0.215,0.1,
2028,-0.21,0.12,
2029,-0.21,0.135,
2030,-0.21,0.13,
2031,-0.225,0.105,
2032,-0.24,0.08,
2033,-0.26,0.115,
2034,-0.25,0.11,
2035,-0.24,0.1,
2036,-0.23,0.09,
2037,-0.22,0.105,
2038,-0.25,0.105,
2039,-0.27,0.08,
2040,-0.265,0.075,
2041,-0.275,0.1,
2042,-0.26,0.095,
2043,-0.255,0.09,
2044,-0.25,0.055,
2045,-0.25,0.07,
2046,-0.235,0.1,
2047,-0.22,0.11,
2048,-0.21,0.075,
2049,-0.21,0.065,
2050,-0.205,0.07,
2051,-0.21,0.075,
2052,-0.19,0.065,
2053,-0.175,0.055,
2054,-0.155,0.05,
2055,-0.08,0.045,
2056,0.015,0.03,
2057,0.085,0.0,
2058,0.12,0.01,
2059,0.115,0.04,
2060,0.1,0.025,
2061,0.09,0.0,
2062,0.02,-0.005,
2063,-0.11,0.01,
2064,-0.395,0.015,
2065,-0.79,-0.005,
2066,-1.175,-0.005,
2067,-1.45,0.015,
2068,-1.645,0.015,
2069,-1.77,0.0,
2070,-1.845,0.02,
2071,-1.905,0.045,
2072,-1.915,0.045,V
2073,-1.89,0.025,
2074,-1.875,0.02,
2075,-1.86,0.055,
2076,-1.775,0.07,
2077,-1.61,0.08,
2078,-1.445,0.09,
2079,-1.305,0.1,
2080,-1.21,0.105,
2081,-1.15,0.095,
2082,-1.05,0.11,
2083,-0.96,0.13,
2084,-0.91,0.125,
2085,-0.885,0.115,
2086,-0.86,0.095,
2087,-0.825,0.125,
2088,-0.79,0.115,
2089,-0.725,0.12,
2090,-0.67,0.105,
2091,-0.59,0.11,
2092,-0.575,0.105,
2093,-0.54,0.09,
2094,-0.495,0.085,
2095,-0.435,0.11,
2096,-0.36,0.13,
2097,-0.28,0.11,
2098,-0.22,0.095,
2099,-0.16,0.11,
2100,-0.1,0.135,
2101,-0.045,0.12,
2102,0.0,0.115,
2103,0.035,0.135,
2104,0.055,0.135,
2105,0.06,0.1,
2106,0.08,0.115,
2107,0.095,0.14,
2108,0.105,0.135,
2109,0.105,0.105,
2110,0.115,0.095,
2111,0.165,0.13,
2112,0.195,0.14,
2113,0.215,0.115,
2114,0.23,0.12,
2115,0.23,0.135,
2116,0.225,0.12,
2117,0.225,0.095,
2118,0.25,0.11,
2119,0.28,0.15,
2120,0.31,0.145,
2121,0.33,0.105,
2122,0.35,0.11,
2123,0.345,0.12,
2124,0.37,0.125,
2125,0.4,0.12,
2126,0.415,0.125,
2127,0.435,0.14,
2128,0.425,0.11,
2129,0.425,0.105,
2130,0.435,0.12,
2131,0.45,0.135,
2132,0.465,0.115,
2133,0.495,0.1,
2134,0.52,0.12,
2135,0.525,0.105,
2136,0.525,0.11,
2137,0.545,0.125,
2138,0.56,0.115,
2139,0.565,0.105,
2140,0.555,0.09,
2141,0.525,0.105,
2142,0.53,0.125,
2143,0.53,0.12,
2144,0.52,0.1,
2145,0.51,0.095,
2146,0.48,0.105,
2147,0.455,0.09,
2148,0.46,0.085,
2149,0.455,0.13,
2150,0.44,0.125,
2151,0.435,0.1,
2152,0.395,0.09,
2153,0.355,0.105,
2154,0.345,0.11,
2155,0.34,0.09,
2156,0.335,0.1,
2157,0.305,0.12,
2158,0.26,0.11,
2159,0.205,0.08,
2160,0.155,0.105,
2161,0.13,0.105,
2162,0.095,0.105,
2163,0.095,0.08,
2164,0.06,0.085,
2165,0.04,0.095,
2166,0.01,0.095,
2167,0.01,0.1,
2168,-0.015,0.11,
2169,-0.04,0.105,
2170,-0.06,0.09,
2171,-0.075,0.085,
2172,-0.065,0.1,
2173,-0.06,0.12,
2174,-0.06,0.11,
2175,-0.075,0.09,
2176,-0.1,0.09,
2177,-0.095,0.095,
2178,-0.1,0.095,
2179,-0.11,0.1,
2180,-0.12,0.11,
2181,-0.145,0.115,
2182,-0.155,0.095,
2183,-0.175,0.09,
2184,-0.17,0.1,
2185,-0.15,0.12,
2186,-0.155,0.1,
2187,-0.16,0.09,
2188,-0.185,0.095,
2189,-0.215,0.095,
2190,-0.22,0.1,
2191,-0.185,0.105,
2192,-0.18,0.11,
2193,-0.165,0.09,
2194,-0.18,0.085,
2195,-0.18,0.09,
2196,-0.175,0.125,
2197,-0.16,0.13,
2198,-0.135,0.11,
2199,-0.145,0.11,
2200,-0.145,0.105,
2201,-0.15,0.1,
2202,-0.13,0.095,
2203,-0.12,0.12,
2204,-0.135,0.125,
2205,-0.14,0.11,
2206,-0.145,0.085,
2207,-0.145,0.095,
2208,-0.145,0.125,
2209,-0.14,0.115,
2210,-0.16,0.1,
2211,-0.15,0.105,
2212,-0.155,0.12,
2213,-0.16,0.085,
2214,-0.155,0.1,
2215,-0.18,0.12,
2216,-0.18,0.125,
2217,-0.165,0.1,
2218,-0.17,0.08,
2219,-0.18,0.1,
2220,-0.2,0.115,
2221,-0.195,0.125,
2222,-0.185,0.11,
2223,-0.185,0.1,
2224,-0.195,0.105,
2225,-0.225,0.085,
2226,-0.215,0.085,
2227,-0.195,0.105,
2228,-0.16,0.135,
2229,-0.15,0.105,
2230,-0.175,0.09,
2231,-0.19,0.095,
2232,-0.205,0.095,
2233,-0.195,0.115,
2234,-0.18,0.095,
2235,-0.175,0.09,
2236,-0.17,0.11,
2237,-0.19,0.11,
2238,-0.16,0.105,
2239,-0.145,0.115,
2240,-0.135,0.125,
2241,-0.14,0.12,
2242,-0.145,0.085,
2243,-0.17,0.095,
2244,-0.16,0.135,
2245,-0.135,0.15,
2246,-0.125,0.125,
2247,-0.165,0.11,
2248,-0.2,0.105,
2249,-0.225,0.1,
2250,-0.215,0.11,
2251,-0.19,0.11,
2252,-0.17,0.12,
2253,-0.175,0.12,
2254,-0.185,0.1,
2255,-0.185,0.11,
2256,-0.155,0.11,
2257,-0.15,0.13,
2258,-0.135,0.115,
2259,-0.13,0.09,
2260,-0.125,0.115,
2261,-0.135,0.115,
2262,-0.12,0.135,
2263,-0.1,0.12,
2264,-0.09,0.13,
2265,-0.08,0.125,
2266,-0.08,0.11,
2267,-0.095,0.095,
2268,-0.09,0.115,
2269,-0.085,0.13,
2270,-0.11,0.125,
2271,-0.12,0.105,
2272,-0.13,0.095,
2273,-0.155,0.1,
2274,-0.135,0.1,
2275,-0.135,0.085,
2276,-0.125,0.105,
2277,-0.14,0.105,
2278,-0.155,0.095,
2279,-0.175,0.075,
2280,-0.15,0.075,
2281,-0.165,0.11,
2282,-0.165,0.105,
2283,-0.16,0.07,
2284,-0.185,0.055,
2285,-0.215,0.07,
2286,-0.21,0.095,
2287,-0.175,0.095,
2288,-0.145,0.08,
2289,-0.15,0.09,
2290,-0.17,0.09,
2291,-0.18,0.085,
2292,-0.15,0.065,
2293,-0.15,0.09,
2294,-0.135,0.11,
2295,-0.155,0.095,
2296,-0.17,0.07,
2297,-0.195,0.07,
2298,-0.185,0.095,
2299,-0.185,0.09,
2300,-0.17,0.06,
2301,-0.17,0.07,
2302,-0.18,0.075,
2303,-0.185,0.09,
2304,-0.185,0.085,
2305,-0.195,0.08,
2306,-0.21,0.1,
2307,-0.21,0.1,
2308,-0.2,0.075,
2309,-0.175,0.06,
2310,-0.165,0.08,
2311,-0.165,0.11,
2312,-0.185,0.095,
2313,-0.21,0.075,
2314,-0.24,0.075,
2315,-0.245,0.08,
2316,-0.245,0.085,
2317,-0.24,0.075,
2318,-0.215,0.075,
2319,-0.185,0.08,
2320,-0.125,0.09,
2321,-0.05,0.07,
2322,0.035,0.07,
2323,0.145,0.105,
2324,0.235,0.1,
2325,0.325,0.075,
2326,0.44,0.065,
2327,0.555,0.09,
2328,0.695,0.13,
2329,0.83,0.135,
2330,0.965,0.115,
2331,1.095,0.12,N
2332,1.155,0.125,
2333,1.145,0.11,
2334,1.065,0.09,
2335,0.92,0.11,
2336,0.66,0.14,
2337,0.215,0.14,
2338,-0.185,0.12,
2339,-0.405,0.135,
2340,-0.48,0.155,
2341,-0.49,0.15,
2342,-0.46,0.13,
2343,-0.42,0.12,
2344,-0.37,0.13,
2345,-0.35,0.13,
2346,-0.34,0.13,
2347,-0.34,0.12,
2348,-0.34,0.12,
2349,-0.355,0.13,
2350,-0.385,0.1,
2351,-0.39,0.085,
2352,-0.375,0.095,
2353,-0.365,0.12,
2354,-0.37,0.12,
2355,-0.36,0.09,
2356,-0.355,0.085,
2357,-0.37,0.08,
2358,-0.335,0.095,
2359,-0.315,0.09,
2360,-0.305,0.07,
2361,-0.295,0.08,
2362,-0.31,0.1,
2363,-0.32,0.085,
2364,-0.305,0.09,
2365,-0.29,0.105,
2366,-0.275,0.1,
2367,-0.275,0.085,
2368,-0.265,0.06,
2369,-0.275,0.065,
2370,-0.285,0.09,
2371,-0.28,0.11,
2372,-0.275,0.09,
2373,-0.265,0.085,
2374,-0.27,0.085,
2375,-0.265,0.095,
2376,-0.25,0.08,
2377,-0.255,0.085,
2378,-0.265,0.1,
2379,-0.275,0.105,
2380,-0.3,0.095,
2381,-0.31,0.07,
2382,-0.3,0.095,
2383,-0.27,0.115,
2384,-0.255,0.1,
2385,-0.26,0.08,
2386,-0.265,0.065,
2387,-0.275,0.095,
2388,-0.245,0.11,
2389,-0.235,0.105,
2390,-0.26,0.1,
2391,-0.29,0.11,
2392,-0.305,0.11,
2393,-0.315,0.09,
2394,-0.305,0.08,
2395,-0.285,0.11,
2396,-0.265,0.125,
2397,-0.245,0.125,
2398,-0.24,0.105,
2399,-0.235,0.1,
2400,-0.235,0.115,
2401,-0.22,0.135,
2402,-0.2,0.105,
2403,-0.21,0.09,
2404,-0.225,0.105,
2405,-0.255,0.12,
2406,-0.235,0.11,
2407,-0.22,0.105,
2408,-0.205,0.125,
2409,-0.2,0.12,
2410,-0.2,0.1,
2411,-0.21,0.095,
2412,-0.235,0.11,
2413,-0.25,0.13,
2414,-0.25,0.125,
2415,-0.235,0.115,
2416,-0.215,0.11,
2417,-0.21,0.11,
2418,-0.2,0.105,
2419,-0.195,0.115,
2420,-0.18,0.115,
2421,-0.185,0.125,
2422,-0.18,0.12,
2423,-0.185,0.095,
2424,-0.155,0.125,
2425,-0.14,0.14,
2426,-0.12,0.125,
2427,-0.145,0.095,
2428,-0.185,0.095,
2429,-0.235,0.115,
2430,-0.225,0.14,
2431,-0.195,0.125,
2432,-0.155,0.125,
2433,-0.145,0.135,
2434,-0.125,0.13,
2435,-0.125,0.11,
2436,-0.12,0.105,
2437,-0.12,0.145,
2438,-0.125,0.14,
2439,-0.135,0.115,
2440,-0.135,0.12,
2441,-0.15,0.12,
2442,-0.135,0.115,
2443,-0.125,0.105,
2444,-0.12,0.12,
2445,-0.105,0.13,
2446,-0.1,0.11,
2447,-0.105,0.095,
2448,-0.12,0.11,
2449,-0.14,0.12,
2450,-0.135,0.1,
2451,-0.15,0.075,
2452,-0.15,0.085,
2453,-0.165,0.105,
2454,-0.16,0.105,
2455,-0.15,0.08,
2456,-0.165,0.1,
2457,-0.185,0.11,
2458,-0.185,0.07,
2459,-0.195,0.07,
2460,-0.19,0.095,
2461,-0.19,0.11,
2462,-0.2,0.095,
2463,-0.21,0.075,
2464,-0.23,0.075,
2465,-0.23,0.09,
2466,-0.205,0.08,
2467,-0.18,0.06,
2468,-0.185,0.07,
2469,-0.175,0.09,
2470,-0.175,0.085,
2471,-0.19,0.06,
2472,-0.19,0.075,
2473,-0.23,0.105,
2474,-0.275,0.085,
2475,-0.295,0.065,
2476,-0.29,0.06,
2477,-0.275,0.075,
2478,-0.25,0.095,
2479,-0.215,0.075,
2480,-0.18,0.08,
2481,-0.185,0.085,
2482,-0.17,0.065,
2483,-0.17,0.06,
2484,-0.13,0.075,
2485,-0.1,0.095,
2486,-0.065,0.09,
2487,-0.045,0.065,
2488,-0.055,0.07,
2489,-0.045,0.07,
2490,-0.03,0.06,
2491,-0.025,0.04,
2492,0.0,0.04,
2493,0.02,0.045,
2494,0.01,0.02,
2495,-0.03,0.0,
2496,-0.085,0.0,
2497,-0.195,0.005,
2498,-0.445,-0.03,
2499,-0.835,-0.06,
2500,-1.26,-0.055,
2501,-1.635,-0.035,
2502,-1.945,-0.04,
2503,-2.13,-0.045,
2504,-2.175,-0.03,
2505,-2.175,-0.015,
2506,-2.155,-0.045,V
2507,-2.13,-0.055,
2508,-2.07,-0.01,
2509,-1.985,0.025,
2510,-1.88,0.02,
2511,-1.77,0.015,
2512,-1.66,0.045,
2513,-1.545,0.065,
2514,-1.395,0.065,
2515,-1.21,0.07,
2516,-1.085,0.08,
2517,-1.005,0.105,
2518,-0.95,0.085,
2519,-0.9,0.07,
2520,-0.845,0.1,
2521,-0.775,0.115,
2522,-0.71,0.095,
2523,-0.67,0.08,
2524,-0.635,0.08,
2525,-0.59,0.105,
2526,-0.52,0.095,
2527,-0.455,0.085,
2528,-0.4,0.1,
2529,-0.345,0.115,
2530,-0.25,0.09,
2531,-0.165,0.07,
2532,-0.09,0.11,
2533,-0.03,0.145,
2534,0.04,0.13,
2535,0.095,0.115,
2536,0.14,0.125,
2537,0.16,0.135,
2538,0.175,0.13,
2539,0.215,0.13,
2540,0.24,0.14,
2541,0.275,0.155,
2542,0.275,0.135,
2543,0.285,0.135,
2544,0.315,0.165,
2545,0.32,0.18,
2546,0.34,0.14,
2547,0.355,0.14,
2548,0.38,0.15,
2549,0.385,0.145,
2550,0.4,0.145,
2551,0.425,0.15,
2552,0.465,0.17,
2553,0.495,0.165,
2554,0.505,0.13,
2555,0.515,0.14,
2556,0.555,0.17,
2557,0.6,0.185,
2558,0.625,0.155,
2559,0.63,0.165,
2560,0.63,0.165,
2561,0.645,0.15,
2562,0.655,0.14,
2563,0.69,0.165,
2564,0.71,0.17,
2565,0.72,0.165,
2566,0.72,0.14,
2567,0.715,0.145,
2568,0.72,0.18,
2569,0.735,0.18,
2570,0.735,0.165,
2571,0.755,0.155,
2572,0.74,0.17,
2573,0.73,0.16,
2574,0.74,0.16,
2575,0.76,0.175,
2576,0.77,0.195,
2577,0.75,0.175,
2578,0.73,0.145,
2579,0.71,0.155,
2580,0.7,0.175,
2581,0.69,0.19,
2582,0.68,0.165,
2583,0.66,0.17,
2584,0.635,0.17,
2585,0.6,0.155,
2586,0.575,0.15,
2587,0.545,0.165,
2588,0.495,0.17,
2589,0.455,0.165,
2590,0.44,0.14,
2591,0.42,0.155,
2592,0.395,0.175,
2593,0.38,0.16,
2594,0.365,0.14,
2595,0.355,0.14,
2596,0.315,0.16,
2597,0.28,0.145,
2598,0.25,0.135,
2599,0.24,0.155,
2600,0.23,0.17,
2601,0.215,0.145,
2602,0.195,0.115,
2603,0.18,0.125,
2604,0.16,0.15,
2605,0.15,0.165,
2606,0.125,0.14,
2607,0.115,0.14,
2608,0.09,0.15,
2609,0.055,0.135,
2610,0.04,0.125,
2611,0.01,0.125,
2612,-0.015,0.145,
2613,-0.035,0.145,
2614,-0.04,0.11,
2615,-0.045,0.125,
2616,-0.045,0.15,
2617,-0.03,0.145,
2618,-0.04,0.115,
2619,-0.03,0.12,
2620,-0.04,0.13,
2621,-0.05,0.135,
2622,-0.05,0.115,
2623,-0.055,0.135,
2624,-0.065,0.15,
2625,-0.065,0.145,
2626,-0.065,0.11,
2627,-0.07,0.1,
2628,-0.08,0.125,
2629,-0.105,0.15,
2630,-0.105,0.13,
2631,-0.105,0.1,
2632,-0.115,0.115,
2633,-0.105,0.115,
2634,-0.085,0.105,
2635,-0.085,0.1,
2636,-0.095,0.12,
2637,-0.09,0.125,
2638,-0.11,0.1,
2639,-0.12,0.085,
2640,-0.12,0.11,
2641,-0.12,0.125,
2642,-0.105,0.11,
2643,-0.11,0.09,
2644,-0.115,0.1,
2645,-0.135,0.105,
2646,-0.14,0.11,
2647,-0.125,0.115,
2648,-0.12,0.11,
2649,-0.11,0.105,
2650,-0.13,0.085,
2651,-0.14,0.065,
2652,-0.155,0.095,
2653,-0.155,0.12,
2654,-0.155,0.115,
2655,-0.16,0.08,
2656,-0.175,0.065,
2657,-0.195,0.095,
2658,-0.18,0.105,
2659,-0.17,0.085,
2660,-0.155,0.075,
2661,-0.14,0.095,
2662,-0.13,0.095,
2663,-0.14,0.08,
2664,-0.16,0.07,
2665,-0.175,0.09,
2666,-0.19,0.105,
2667,-0.21,0.095,
2668,-0.2,0.055,
2669,-0.18,0.07,
2670,-0.17,0.12,
2671,-0.18,0.11,
2672,-0.17,0.095,
2673,-0.185,0.085,
2674,-0.18,0.1,
2675,-0.195,0.1,
2676,-0.185,0.075,
2677,-0.18,0.085,
2678,-0.175,0.1,
2679,-0.185,0.105,
2680,-0.2,0.075,
2681,-0.225,0.075,
2682,-0.225,0.09,
2683,-0.205,0.13,
2684,-0.185,0.1,
2685,-0.19,0.075,
2686,-0.195,0.075,
2687,-0.185,0.1,
2688,-0.17,0.105,
2689,-0.17,0.085,
2690,-0.19,0.075,
2691,-0.21,0.115,
2692,-0.22,0.11,
2693,-0.225,0.085,
2694,-0.2,0.075,
2695,-0.185,0.1,
2696,-0.18,0.115,
2697,-0.21,0.105,
2698,-0.215,0.075,
2699,-0.21,0.08,
2700,-0.195,0.1,
2701,-0.205,0.115,
2702,-0.215,0.08,
2703,-0.205,0.085,
2704,-0.195,0.095,
2705,-0.2,0.115,
2706,-0.21,0.1,
2707,-0.215,0.095,
2708,-0.215,0.11,
2709,-0.205,0.125,
2710,-0.195,0.105,
2711,-0.205,0.08,
2712,-0.18,0.095,
2713,-0.165,0.135,
2714,-0.16,0.13,
2715,-0.13,0.115,
2716,-0.13,0.1,
2717,-0.135,0.125,
2718,-0.125,0.13,
2719,-0.145,0.105,
2720,-0.155,0.115,
2721,-0.185,0.115,
2722,-0.2,0.11,
2723,-0.21,0.11,
2724,-0.205,0.1,
2725,-0.195,0.11,
2726,-0.19,0.125,
2727,-0.19,0.105,
2728,-0.185,0.075,
2729,-0.185,0.08,
2730,-0.17,0.11,
2731,-0.18,0.115,
2732,-0.18,0.09,
2733,-0.185,0.075,
2734,-0.18,0.09,
2735,-0.19,0.105,
2736,-0.22,0.095,
2737,-0.255,0.095,
2738,-0.26,0.095,
2739,-0.27,0.12,
2740,-0.265,0.115,
2741,-0.24,0.09,
2742,-0.23,0.095,
2743,-0.205,0.11,
2744,-0.21,0.12,
2745,-0.24,0.1,
2746,-0.26,0.085,
2747,-0.265,0.085,
2748,-0.27,0.11,
2749,-0.255,0.115,
2750,-0.26,0.09,
2751,-0.265,0.1,
2752,-0.275,0.105,
2753,-0.265,0.115,
2754,-0.255,0.085,
2755,-0.235,0.09,
2756,-0.245,0.11,
2757,-0.26,0.11,
2758,-0.26,0.09,
2759,-0.27,0.08,
2760,-0.255,0.095,
2761,-0.23,0.13,
2762,-0.23,0.115,
2763,-0.245,0.075,
2764,-0.24,0.085,
2765,-0.26,0.08,
2766,-0.27,0.105,
2767,-0.28,0.09,
2768,-0.285,0.07,
2769,-0.29,0.085,
2770,-0.295,0.095,
2771,-0.29,0.08,
2772,-0.255,0.065,
2773,-0.2,0.075,
2774,-0.12,0.09,
2775,-0.05,0.1,
2776,0.015,0.07,
2777,0.09,0.07,
2778,0.18,0.075,
2779,0.265,0.115,
2780,0.37,0.11,
2781,0.48,0.085,
2782,0.595,0.08,
2783,0.705,0.11,
2784,0.79,0.12,N
2785,0.85,0.105,
2786,0.855,0.095,
2787,0.795,0.115,
2788,0.685,0.125,
2789,0.515,0.12,
2790,0.28,0.12,
2791,0.015,0.14,
2792,-0.215,0.165,
2793,-0.39,0.155,
2794,-0.495,0.125,
2795,-0.555,0.14,
2796,-0.54,0.175,
2797,-0.485,0.165,
2798,-0.45,0.135,
2799,-0.44,0.115,
2800,-0.43,0.12,
2801,-0.445,0.125,
2802,-0.43,0.12,
2803,-0.415,0.105,
2804,-0.4,0.11,
2805,-0.4,0.115,
2806,-0.405,0.1,
2807,-0.42,0.075,
2808,-0.405,0.075,
2809,-0.395,0.105,
2810,-0.385,0.105,
2811,-0.375,0.07,
2812,-0.395,0.05,
2813,-0.41,0.05,
2814,-0.405,0.09,
2815,-0.365,0.105,
2816,-0.335,0.075,
2817,-0.32,0.06,
2818,-0.335,0.075,
2819,-0.34,0.09,
2820,-0.34,0.085,
2821,-0.335,0.075,
2822,-0.34,0.075,
2823,-0.335,0.09,
2824,-0.345,0.095,
2825,-0.35,0.07,
2826,-0.345,0.06,
2827,-0.335,0.075,
2828,-0.33,0.09,
2829,-0.32,0.08,
2830,-0.33,0.05,
2831,-0.335,0.05,
2832,-0.33,0.085,
2833,-0.33,0.1,
2834,-0.32,0.09,
2835,-0.31,0.055,
2836,-0.305,0.045,
2837,-0.305,0.07,
2838,-0.31,0.08,
2839,-0.31,0.075,
2840,-0.295,0.055,
2841,-0.3,0.08,
2842,-0.315,0.08,
2843,-0.32,0.065,
2844,-0.33,0.065,
2845,-0.315,0.07,
2846,-0.32,0.075,
2847,-0.32,0.06,
2848,-0.325,0.035,
2849,-0.31,0.03,
2850,-0.295,0.065,
2851,-0.285,0.08,
2852,-0.28,0.07,
2853,-0.3,0.05,
2854,-0.3,0.035,
2855,-0.285,0.055,
2856,-0.27,0.07,
2857,-0.245,0.075,
2858,-0.24,0.055,
2859,-0.26,0.07,
2860,-0.265,0.08,
2861,-0.28,0.08,
2862,-0.27,0.07,
2863,-0.28,0.075,
2864,-0.29,0.09,
2865,-0.29,0.08,
2866,-0.295,0.07,
2867,-0.27,0.055,
2868,-0.25,0.08,
2869,-0.235,0.105,
2870,-0.225,0.1,
2871,-0.245,0.085,
2872,-0.28,0.08,
2873,-0.285,0.085,
2874,-0.28,0.085,
2875,-0.26,0.08,
2876,-0.245,0.08,
2877,-0.24,0.095,
2878,-0.25,0.09,
2879,-0.255,0.095,
2880,-0.24,0.075,
2881,-0.225,0.095,
2882,-0.225,0.105,
2883,-0.23,0.105,
2884,-0.24,0.075,
2885,-0.235,0.06,
2886,-0.23,0.08,
2887,-0.205,0.1,
2888,-0.195,0.11,
2889,-0.195,0.085,
2890,-0.19,0.07,
2891,-0.195,0.08,
2892,-0.2,0.095,
2893,-0.205,0.09,
2894,-0.19,0.08,
2895,-0.21,0.08,
2896,-0.215,0.09,
2897,-0.22,0.105,
2898,-0.225,0.11,
2899,-0.205,0.09,
2900,-0.19,0.105,
2901,-0.195,0.105,
2902,-0.195,0.1,
2903,-0.205,0.075,
2904,-0.215,0.09,
2905,-0.18,0.105,
2906,-0.18,0.115,
2907,-0.19,0.12,
2908,-0.19,0.095,
2909,-0.19,0.095,
2910,-0.185,0.1,
2911,-0.165,0.12,
2912,-0.165,0.13,
2913,-0.19,0.1,
2914,-0.22,0.085,
2915,-0.23,0.09,
2916,-0.2,0.12,
2917,-0.205,0.13,
2918,-0.185,0.11,
2919,-0.2,0.11,
2920,-0.215,0.115,
2921,-0.24,0.115,
2922,-0.22,0.125,
2923,-0.21,0.11,
2924,-0.195,0.11,
2925,-0.22,0.115,
2926,-0.27,0.12,
2927,-0.27,0.105,
2928,-0.265,0.11,
2929,-0.245,0.13,
2930,-0.245,0.125,
2931,-0.24,0.115,
2932,-0.255,0.095,
2933,-0.265,0.085,
2934,-0.265,0.115,
2935,-0.26,0.14,
2936,-0.255,0.13,
2937,-0.23,0.105,
2938,-0.25,0.11,
2939,-0.26,0.115,
2940,-0.265,0.12,
2941,-0.26,0.115,
2942,-0.255,0.1,
2943,-0.265,0.11,
2944,-0.265,0.11,
2945,-0.275,0.12,
2946,-0.275,0.115,
2947,-0.27,0.12,
2948,-0.285,0.12,
2949,-0.295,0.11,
2950,-0.295,0.1,
2951,-0.295,0.08,
2952,-0.29,0.095,
2953,-0.25,0.125,
2954,-0.215,0.125,
2955,-0.21,0.11,
2956,-0.21,0.09,
2957,-0.225,0.095,
2958,-0.205,0.12,
2959,-0.185,0.125,
2960,-0.16,0.1,
2961,-0.13,0.085,
2962,-0.13,0.085,
2963,-0.135,0.11,
2964,-0.13,0.105,
2965,-0.11,0.1,
2966,-0.07,0.095,
2967,-0.06,0.08,
2968,-0.055,0.075,
2969,-0.035,0.07,
2970,0.03,0.045,
2971,0.115,0.045,
2972,0.16,0.065,
2973,0.16,0.055,
2974,0.12,0.035,
2975,0.11,0.035,
2976,0.1,0.03,
2977,0.075,0.05,
2978,-0.005,0.045,
2979,-0.16,0.01,
2980,-0.43,-0.02,
2981,-0.82,-0.005,
2982,-1.2,0.03,
2983,-1.525,0.055,
2984,-1.745,0.035,
2985,-1.865,0.02,
2986,-1.91,0.01,
2987,-1.955,0.04,
2988,-1.965,0.04,
2989,-1.94,0.035,V
2990,-1.91,0.035,
2991,-1.9,0.03,
2992,-1.89,0.06,
2993,-1.87,0.075,
2994,-1.785,0.07,
2995,-1.67,0.095,
2996,-1.525,0.1,
2997,-1.455,0.105,
2998,-1.42,0.09,
2999,-1.37,0.075,
3000,-1.3,0.09,
3001,-1.19,0.12,
3002,-1.075,0.135,
3003,-0.99,0.125,
3004,-0.945,0.105,
3005,-0.89,0.095,
3006,-0.825,0.11,
3007,-0.78,0.135,
3008,-0.735,0.095,
3009,-0.7,0.08,
3010,-0.65,0.075,
3011,-0.605,0.09,
3012,-0.55,0.105,
3013,-0.525,0.095,
3014,-0.51,0.075,
3015,-0.51,0.095,
3016,-0.5,0.09,
3017,-0.49,0.085,
3018,-0.45,0.08,
3019,-0.415,0.07,
3020,-0.39,0.075,
3021,-0.335,0.085,
3022,-0.29,0.09,
3023,-0.23,0.085,
3024,-0.16,0.08,
3025,-0.095,0.1,
3026,-0.03,0.115,
3027,0.01,0.105,
3028,0.03,0.075,
3029,0.055,0.065,
3030,0.09,0.095,
3031,0.12,0.11,
3032,0.145,0.115,
3033,0.16,0.11,
3034,0.175,0.115,
3035,0.165,0.11,
3036,0.175,0.095,
3037,0.195,0.09,
3038,0.235,0.1,
3039,0.25,0.11,
3040,0.255,0.115,
3041,0.24,0.105,
3042,0.27,0.11,
3043,0.28,0.115,
3044,0.3,0.13,
3045,0.33,0.115,
3046,0.355,0.085,
3047,0.37,0.075,
3048,0.39,0.11,
3049,0.395,0.14,
3050,0.41,0.135,
3051,0.425,0.105,
3052,0.43,0.095,
3053,0.47,0.1,
3054,0.485,0.13,
3055,0.52,0.13,
3056,0.54,0.1,
3057,0.535,0.095,
3058,0.535,0.12,
3059,0.545,0.14,
3060,0.57,0.13,
3061,0.59,0.115,
3062,0.615,0.115,
3063,0.61,0.13,
3064,0.62,0.125,
3065,0.61,0.12,
3066,0.615,0.105,
3067,0.63,0.1,
3068,0.635,0.11,
3069,0.635,0.125,
3070,0.655,0.13,
3071,0.66,0.1,
3072,0.66,0.1,
3073,0.66,0.12,
3074,0.655,0.14,
3075,0.645,0.125,
3076,0.61,0.09,
3077,0.59,0.085,
3078,0.605,0.115,
3079,0.615,0.135,
3080,0.625,0.14,
3081,0.62,0.11,
3082,0.59,0.105,
3083,0.56,0.135,
3084,0.565,0.15,
3085,0.56,0.14,
3086,0.56,0.105,
3087,0.53,0.085,
3088,0.495,0.11,
3089,0.475,0.125,
3090,0.465,0.115,
3091,0.475,0.115,
3092,0.47,0.11,
3093,0.44,0.12,
3094,0.42,0.125,
3095,0.39,0.11,
3096,0.385,0.105,
3097,0.36,0.11,
3098,0.35,0.12,
3099,0.315,0.125,
3100,0.28,0.1,
3101,0.245,0.105,
3102,0.225,0.11,
3103,0.215,0.14,
3104,0.19,0.135,
3105,0.165,0.12,
3106,0.15,0.085,
3107,0.12,0.09,
3108,0.11,0.13,
3109,0.085,0.15,
3110,0.08,0.125,
3111,0.05,0.095,
3112,0.03,0.09,
3113,0.01,0.11,
3114,0.005,0.135,
3115,0.005,0.125,
3116,0.0,0.105,
3117,0.005,0.085,
3118,-0.015,0.085,
3119,-0.05,0.11,
3120,-0.075,0.115,
3121,-0.1,0.11,
3122,-0.105,0.095,
3123,-0.085,0.105,
3124,-0.06,0.115,
3125,-0.06,0.12,
3126,-0.045,0.11,
3127,-0.05,0.1,
3128,-0.05,0.1,
3129,-0.05,0.12,
3130,-0.07,0.125,
3131,-0.075,0.1,
3132,-0.08,0.1,
3133,-0.095,0.12,
3134,-0.105,0.14,
3135,-0.085,0.135,
3136,-0.09,0.11,
3137,-0.105,0.09,
3138,-0.1,0.105,
3139,-0.1,0.14,
3140,-0.085,0.135,
3141,-0.09,0.115,
3142,-0.11,0.09,
3143,-0.12,0.1,
3144,-0.11,0.13,
3145,-0.085,0.145,
3146,-0.075,0.12,
3147,-0.085,0.09,
3148,-0.1,0.095,
3149,-0.13,0.12,
3150,-0.13,0.125,
3151,-0.14,0.12,
3152,-0.145,0.115,
3153,-0.145,0.125,
3154,-0.145,0.12,
3155,-0.15,0.115,
3156,-0.15,0.1,
3157,-0.15,0.1,
3158,-0.135,0.1,
3159,-0.13,0.11,
3160,-0.135,0.085,
3161,-0.14,0.095,
3162,-0.13,0.125,
3163,-0.12,0.14,
3164,-0.12,0.12,
3165,-0.12,0.1,
3166,-0.12,0.1,
3167,-0.135,0.115,
3168,-0.14,0.11,
3169,-0.15,0.115,
3170,-0.13,0.11,
3171,-0.12,0.115,
3172,-0.12,0.115,
3173,-0.125,0.12,
3174,-0.14,0.095,
3175,-0.16,0.105,
3176,-0.18,0.105,
3177,-0.205,0.115,
3178,-0.23,0.1,
3179,-0.205,0.09,
3180,-0.2,0.09,
3181,-0.19,0.12,
3182,-0.195,0.125,
3183,-0.19,0.11,
3184,-0.21,0.09,
3185,-0.24,0.09,
3186,-0.24,0.12,
3187,-0.235,0.135,
3188,-0.21,0.105,
3189,-0.19,0.095,
3190,-0.185,0.1,
3191,-0.2,0.115,
3192,-0.2,0.12,
3193,-0.2,0.105,
3194,-0.175,0.1,
3195,-0.17,0.115,
3196,-0.185,0.11,
3197,-0.21,0.09,
3198,-0.22,0.09,
3199,-0.215,0.115,
3200,-0.22,0.125,
3201,-0.23,0.115,
3202,-0.24,0.075,
3203,-0.235,0.08,
3204,-0.225,0.105,
3205,-0.2,0.115,
3206,-0.175,0.09,
3207,-0.175,0.08,
3208,-0.175,0.09,
3209,-0.185,0.1,
3210,-0.185,0.105,
3211,-0.175,0.09,
3212,-0.175,0.09,
3213,-0.195,0.1,
3214,-0.225,0.1,
3215,-0.245,0.075,
3216,-0.23,0.075,
3217,-0.21,0.1,
3218,-0.2,0.115,
3219,-0.19,0.1,
3220,-0.2,0.075,
3221,-0.205,0.065,
3222,-0.21,0.1,
3223,-0.215,0.1,
3224,-0.215,0.085,
3225,-0.22,0.07,
3226,-0.21,0.09,
3227,-0.175,0.1,
3228,-0.145,0.1,
3229,-0.125,0.09,
3230,-0.135,0.095,
3231,-0.14,0.1,
3232,-0.145,0.085,
3233,-0.155,0.065,
3234,-0.15,0.095,
3235,-0.15,0.12,
3236,-0.145,0.12,
3237,-0.14,0.085,
3238,-0.165,0.08,
3239,-0.18,0.085,
3240,-0.165,0.09,
3241,-0.16,0.085,
3242,-0.155,0.075,
3243,-0.175,0.1,
3244,-0.205,0.095,
3245,-0.225,0.075,
3246,-0.21,0.075,
3247,-0.185,0.105,
3248,-0.175,0.1,
3249,-0.175,0.09,
3250,-0.2,0.06,
3251,-0.225,0.065,
3252,-0.23,0.095,
3253,-0.215,0.105,
3254,-0.21,0.075,
3255,-0.21,0.075,
3256,-0.205,0.085,
3257,-0.2,0.08,
3258,-0.17,0.07,
3259,-0.15,0.065,
3260,-0.15,0.09,
3261,-0.17,0.11,
3262,-0.19,0.07,
3263,-0.22,0.07,
3264,-0.205,0.08,
3265,-0.21,0.095,
3266,-0.205,0.085,
3267,-0.2,0.075,
3268,-0.21,0.08,
3269,-0.22,0.1,
3270,-0.235,0.085,
3271,-0.25,0.08,
3272,-0.245,0.09,
3273,-0.26,0.095,
3274,-0.285,0.075,
3275,-0.285,0.075,
3276,-0.27,0.08,
3277,-0.255,0.1,
3278,-0.23,0.095,
3279,-0.195,0.085,
3280,-0.18,0.08,
3281,-0.185,0.09,
3282,-0.18,0.085,
3283,-0.2,0.09,
3284,-0.195,0.09,
3285,-0.19,0.095,
3286,-0.21,0.085,
3287,-0.23,0.065,
3288,-0.205,0.08,
3289,-0.155,0.095,
3290,-0.075,0.09,
3291,0.01,0.07,
3292,0.095,0.055,
3293,0.18,0.08,
3294,0.27,0.1,
3295,0.355,0.095,
3296,0.455,0.08,
3297,0.56,0.095,
3298,0.675,0.1,
3299,0.785,0.09,
3300,0.905,0.09,N
3301,1.005,0.12,
3302,1.03,0.135,
3303,0.995,0.125,
3304,0.875,0.1,
3305,0.625,0.12,
3306,0.22,0.155,
3307,-0.17,0.155,
3308,-0.39,0.15,
3309,-0.445,0.155,
3310,-0.475,0.18,
3311,-0.475,0.165,
3312,-0.42,0.155,
3313,-0.37,0.165,
3314,-0.345,0.155,
3315,-0.335,0.155,
3316,-0.34,0.125,
3317,-0.365,0.13,
3318,-0.38,0.15,
3319,-0.39,0.15,
3320,-0.4,0.13,
3321,-0.395,0.11,
3322,-0.38,0.115,
3323,-0.385,0.095,
3324,-0.385,0.08,
3325,-0.395,0.09,
3326,-0.375,0.105,
3327,-0.33,0.105,
3328,-0.3,0.085,
3329,-0.295,0.08,
3330,-0.325,0.095,
3331,-0.345,0.1,
3332,-0.35,0.09,
3333,-0.34,0.08,
3334,-0.32,0.075,
3335,-0.285,0.09,
3336,-0.27,0.11,
3337,-0.265,0.1,
3338,-0.27,0.105,
3339,-0.26,0.095,
3340,-0.295,0.085,
3341,-0.315,0.08,
3342,-0.32,0.09,
3343,-0.315,0.115,
3344,-0.295,0.115,
3345,-0.285,0.09,
3346,-0.275,0.09,
3347,-0.285,0.085,
3348,-0.275,0.095,
3349,-0.27,0.09,
3350,-0.265,0.085,
3351,-0.265,0.095,
3352,-0.27,0.095,
3353,-0.275,0.08,
3354,-0.28,0.085,
3355,-0.26,0.095,
3356,-0.26,0.1,
3357,-0.255,0.09,
3358,-0.26,0.07,
3359,-0.275,0.07,
3360,-0.26,0.095,
3361,-0.255,0.105,
3362,-0.25,0.095,
3363,-0.26,0.08,
3364,-0.265,0.08,
3365,-0.265,0.075,
3366,-0.28,0.065,
3367,-0.275,0.075,
3368,-0.265,0.1,
3369,-0.25,0.095,
3370,-0.24,0.055,
3371,-0.22,0.065,
3372,-0.19,0.08,
3373,-0.18,0.09,
3374,-0.21,0.055,
3375,-0.28,0.055,
3376,-0.355,0.06,
3377,-0.355,0.08,
3378,-0.3,0.085,
3379,-0.265,0.08,
3380,-0.25,0.08,
3381,-0.29,0.075,
3382,-0.33,0.045,
3383,-0.325,0.04,
3384,-0.28,0.07,
3385,-0.265,0.095,
3386,-0.25,0.085,
3387,-0.25,0.065,
3388,-0.245,0.06,
3389,-0.25,0.07,
3390,-0.25,0.06,
3391,-0.25,0.055,
3392,-0.24,0.06,
3393,-0.235,0.075,
3394,-0.235,0.07,
3395,-0.23,0.06,
3396,-0.195,0.055,
3397,-0.185,0.09,
3398,-0.165,0.085,
3399,-0.16,0.06,
3400,-0.175,0.04,
3401,-0.185,0.06,
3402,-0.165,0.08,
3403,-0.135,0.075,
3404,-0.135,0.055,
3405,-0.12,0.055,
3406,-0.14,0.075,
3407,-0.15,0.055,
3408,-0.14,0.045,
3409,-0.135,0.04,
3410,-0.15,0.07,
3411,-0.17,0.08,
3412,-0.165,0.055,
3413,-0.18,0.05,
3414,-0.175,0.07,
3415,-0.16,0.085,
3416,-0.15,0.08,
3417,-0.165,0.05,
3418,-0.155,0.045,
3419,-0.155,0.065,
3420,-0.15,0.09,
3421,-0.145,0.105,
3422,-0.145,0.075,
3423,-0.145,0.075,
3424,-0.145,0.075,
3425,-0.15,0.07,
3426,-0.165,0.06,
3427,-0.175,0.075,
3428,-0.16,0.08,
3429,-0.165,0.105,
3430,-0.19,0.075,
3431,-0.185,0.07,
3432,-0.19,0.1,
3433,-0.19,0.095,
3434,-0.185,0.085,
3435,-0.18,0.075,
3436,-0.205,0.06,
3437,-0.205,0.08,
3438,-0.21,0.085,
3439,-0.21,0.075,
3440,-0.205,0.075,
3441,-0.22,0.095,
3442,-0.215,0.07,
3443,-0.22,0.055,
3444,-0.2,0.05,
3445,-0.2,0.07,
3446,-0.195,0.09,
3447,-0.205,0.08,
3448,-0.23,0.06,
3449,-0.235,0.065,
3450,-0.23,0.09,
3451,-0.21,0.085,
3452,-0.22,0.075,
3453,-0.225,0.055,
3454,-0.235,0.07,
3455,-0.24,0.085,
3456,-0.21,0.08,
3457,-0.19,0.09,
3458,-0.13,0.085,
3459,-0.105,0.08,
3460,-0.08,0.075,
3461,-0.07,0.07,
3462,-0.055,0.07,
3463,-0.025,0.09,
3464,-0.005,0.105,
3465,0.01,0.075,
3466,0.0,0.055,
3467,-0.02,0.06,
3468,-0.01,0.07,
3469,0.03,0.06,
3470,0.06,0.02,
3471,0.055,-0.005,
3472,-0.015,0.005,
3473,-0.125,-0.005,
3474,-0.265,-0.02,
3475,-0.53,-0.03,
3476,-0.905,-0.035,
3477,-1.31,-0.035,
3478,-1.685,-0.06,
3479,-1.99,-0.09,
3480,-2.185,-0.06,
3481,-2.26,-0.03,
3482,-2.26,-0.035,
3483,-2.25,-0.04,
3484,-2.245,-0.04,V
3485,-2.205,-0.03,
3486,-2.14,-0.01,
3487,-2.08,-0.025,
3488,-2.005,-0.025,
3489,-1.905,-0.005,
3490,-1.815,0.015,
3491,-1.72,0.05,
3492,-1.64,0.05,
3493,-1.5,0.06,
3494,-1.33,0.07,
3495,-1.2,0.1,
3496,-1.075,0.07,
3497,-1.015,0.05,
3498,-0.945,0.06,
3499,-0.905,0.085,
3500,-0.84,0.095,
3501,-0.77,0.07,
3502,-0.725,0.05,
3503,-0.69,0.07,
3504,-0.65,0.085,
3505,-0.61,0.08,
3506,-0.54,0.065,
3507,-0.48,0.055,
3508,-0.445,0.065,
3509,-0.395,0.065,
3510,-0.34,0.07,
3511,-0.255,0.09,
3512,-0.16,0.085,
3513,-0.095,0.065,
3514,-0.045,0.05,
3515,-0.005,0.06,
3516,0.05,0.09,
3517,0.1,0.115,
3518,0.145,0.1,
3519,0.165,0.09,
3520,0.17,0.095,
3521,0.195,0.1,
3522,0.22,0.09,
3523,0.235,0.085,
3524,0.26,0.105,
3525,0.285,0.11,
3526,0.31,0.09,
3527,0.315,0.095,
3528,0.335,0.12,
3529,0.345,0.135,
3530,0.36,0.11,
3531,0.37,0.095,
3532,0.385,0.09,
3533,0.395,0.115,
3534,0.405,0.125,
3535,0.44,0.12,
3536,0.47,0.125,
3537,0.49,0.13,
3538,0.5,0.11,
3539,0.52,0.095,
3540,0.525,0.11,
3541,0.54,0.125,
3542,0.58,0.13,
3543,0.605,0.12,
3544,0.61,0.1,
3545,0.615,0.105,
3546,0.64,0.13,
3547,0.66,0.125,
3548,0.675,0.11,
3549,0.685,0.105,
3550,0.685,0.125,
3551,0.67,0.115,
3552,0.685,0.1,
3553,0.7,0.125,
3554,0.705,0.14,
3555,0.705,0.125,
3556,0.7,0.095,
3557,0.7,0.1,
3558,0.705,0.13,
3559,0.695,0.13,
3560,0.7,0.12,
3561,0.7,0.11,
3562,0.685,0.12,
3563,0.655,0.11,
3564,0.655,0.09,
3565,0.635,0.09,
3566,0.63,0.115,
3567,0.62,0.11,
3568,0.58,0.095,
3569,0.545,0.09,
3570,0.525,0.11,
3571,0.49,0.115,
3572,0.47,0.095,
3573,0.43,0.085,
3574,0.385,0.095,
3575,0.345,0.095,
3576,0.305,0.095,
3577,0.29,0.095,
3578,0.27,0.115,
3579,0.25,0.1,
3580,0.205,0.075,
3581,0.165,0.06,
3582,0.14,0.09,
3583,0.125,0.11,
3584,0.13,0.09,
3585,0.115,0.085,
3586,0.1,0.085,
3587,0.06,0.085,
3588,0.04,0.065,
3589,0.04,0.075,
3590,0.035,0.09,
3591,0.025,0.095,
3592,-0.005,0.07,
3593,-0.06,0.065,
3594,-0.08,0.095,
3595,-0.085,0.105,
3596,-0.075,0.08,
3597,-0.09,0.07,
3598,-0.11,0.08,
3599,-0.13,0.095,
3600,-0.12,0.08,
3601,-0.15,0.085,
3602,-0.145,0.09,
3603,-0.145,0.1,
3604,-0.16,0.085,
3605,-0.16,0.085,
3606,-0.15,0.09,
3607,-0.15,0.085,
3608,-0.15,0.06,
3609,-0.16,0.075,
3610,-0.19,0.07,
3611,-0.185,0.055,+
3612,-0.185,0.04,
3613,-0.18,0.065,
3614,-0.175,0.07,
3615,-0.18,0.05,
3616,-0.19,0.025,
3617,-0.22,0.045,
3618,-0.22,0.07,
3619,-0.225,0.06,
3620,-0.215,0.03,
3621,-0.195,0.04,
3622,-0.195,0.065,
3623,-0.21,0.05,
3624,-0.215,0.04,
3625,-0.23,0.06,
3626,-0.22,0.075,
3627,-0.22,0.055,
3628,-0.215,0.03,
3629,-0.24,0.045,
3630,-0.24,0.065,
3631,-0.24,0.06,
3632,-0.245,0.04,
3633,-0.245,0.05,
3634,-0.245,0.04,
3635,-0.255,0.03,
3636,-0.25,0.035,
3637,-0.25,0.06,
3638,-0.245,0.065,
3639,-0.24,0.05,
3640,-0.255,0.04,
3641,-0.27,0.055,
3642,-0.275,0.05,
3643,-0.275,0.045,
3644,-0.275,0.035,
3645,-0.285,0.06,
3646,-0.28,0.035,
3647,-0.28,0.01,
3648,-0.275,0.03,
3649,-0.28,0.06,
3650,-0.3,0.04,
3651,-0.305,0.005,
3652,-0.285,0.015,
3653,-0.28,0.035,
3654,-0.28,0.035,
3655,-0.29,0.025,
3656,-0.28,0.04,
3657,-0.295,0.05,
3658,-0.29,0.03,
3659,-0.295,0.005,
3660,-0.28,0.02,
3661,-0.29,0.055,
3662,-0.285,0.045,
3663,-0.29,0.025,
3664,-0.29,0.02,
3665,-0.305,0.04,
3666,-0.29,0.035,
3667,-0.295,0.025,
3668,-0.275,0.035,
3669,-0.28,0.05,
3670,-0.3,0.02,
3671,-0.31,0.02,
3672,-0.305,0.055,
3673,-0.3,0.065,
3674,-0.3,0.04,
3675,-0.295,0.03,
3676,-0.31,0.045,
3677,-0.315,0.045,
3678,-0.3,0.03,
3679,-0.275,0.05,
3680,-0.27,0.055,
3681,-0.25,0.055,
3682,-0.255,0.035,
3683,-0.265,0.04,
3684,-0.25,0.075,
3685,-0.23,0.08,
3686,-0.22,0.06,
3687,-0.225,0.06,
3688,-0.245,0.08,
3689,-0.255,0.055,
3690,-0.25,0.06,
3691,-0.25,0.075,
3692,-0.235,0.08,
3693,-0.26,0.075,
3694,-0.265,0.055,
3695,-0.28,0.065,
3696,-0.29,0.07,
3697,-0.28,0.06,
3698,-0.285,0.075,
3699,-0.305,0.065,
3700,-0.32,0.055,
3701,-0.32,0.04,
3702,-0.325,0.06,
3703,-0.32,0.09,
3704,-0.31,0.06,
3705,-0.285,0.045,
3706,-0.29,0.065,
3707,-0.315,0.07,
3708,-0.34,0.06,
3709,-0.345,0.06,
3710,-0.31,0.09,
3711,-0.31,0.07,
3712,-0.325,0.055,
3713,-0.34,0.045,
3714,-0.33,0.08,
3715,-0.33,0.085,
3716,-0.31,0.07,
3717,-0.305,0.055,
3718,-0.32,0.065,
3719,-0.33,0.065,
3720,-0.335,0.045,
3721,-0.335,0.07,
3722,-0.335,0.075,
3723,-0.33,0.065,
3724,-0.37,0.045,
3725,-0.39,0.055,
3726,-0.395,0.075,
3727,-0.375,0.06,
3728,-0.325,0.05,
3729,-0.25,0.05,
3730,-0.18,0.055,
3731,-0.09,0.04,
3732,0.0,0.05,
3733,0.135,0.075,
3734,0.23,0.075,
3735,0.335,0.05,
3736,0.425,0.045,
3737,0.515,0.06,
3738,0.605,0.065,N
3739,0.625,0.065,
3740,0.565,0.075,
3741,0.46,0.1,
3742,0.33,0.075,
3743,0.11,0.07,
3744,-0.175,0.105,
3745,-0.41,0.135,
3746,-0.545,0.125,
3747,-0.63,0.115,
3748,-0.65,0.12,
3749,-0.63,0.13,
3750,-0.57,0.11,
3751,-0.52,0.105,
3752,-0.48,0.11,
3753,-0.485,0.115,
3754,-0.48,0.1,
3755,-0.46,0.09,
3756,-0.44,0.11,
3757,-0.44,0.12,
3758,-0.45,0.085,
3759,-0.465,0.07,
3760,-0.48,0.075,
3761,-0.49,0.055,
3762,-0.47,0.04,
3763,-0.445,0.06,
3764,-0.42,0.08,
3765,-0.405,0.07,
3766,-0.415,0.03,
3767,-0.415,0.04,
3768,-0.415,0.065,
3769,-0.41,0.06,
3770,-0.4,0.04,
3771,-0.375,0.03,
3772,-0.4,0.05,
3773,-0.4,0.05,
3774,-0.405,0.035,
3775,-0.38,0.06,
3776,-0.375,0.075,
3777,-0.35,0.07,
3778,-0.36,0.03,
3779,-0.375,0.045,
3780,-0.37,0.065,
3781,-0.37,0.075,
3782,-0.365,0.05,
3783,-0.365,0.055,
3784,-0.385,0.06,
3785,-0.4,0.045,
3786,-0.4,0.025,
3787,-0.38,0.06,
3788,-0.38,0.07,
3789,-0.38,0.065,
3790,-0.37,0.035,
3791,-0.365,0.03,
3792,-0.36,0.07,
3793,-0.37,0.07,
3794,-0.355,0.05,
3795,-0.345,0.035,
3796,-0.36,0.055,
3797,-0.36,0.07,
3798,-0.355,0.055,
3799,-0.345,0.04,
3800,-0.33,0.045,
3801,-0.33,0.055,
3802,-0.33,0.035,
3803,-0.335,0.025,
3804,-0.34,0.045,
3805,-0.33,0.065,
3806,-0.335,0.055,
3807,-0.35,0.05,
3808,-0.35,0.035,
3809,-0.36,0.055,
3810,-0.345,0.06,
3811,-0.315,0.045,
3812,-0.29,0.04,
3813,-0.295,0.05,
3814,-0.305,0.055,
3815,-0.31,0.035,
3816,-0.32,0.04,
3817,-0.305,0.055,
3818,-0.3,0.055,
3819,-0.295,0.04,
3820,-0.295,0.025,
3821,-0.295,0.045,
3822,-0.295,0.075,
3823,-0.295,0.07,
3824,-0.29,0.055,
3825,-0.295,0.045,
3826,-0.295,0.045,
3827,-0.295,0.05,
3828,-0.27,0.045,
3829,-0.27,0.07,
3830,-0.26,0.08,
3831,-0.26,0.07,
3832,-0.28,0.04,
3833,-0.28,0.04,
3834,-0.265,0.06,
3835,-0.245,0.08,
3836,-0.23,0.07,
3837,-0.23,0.05,
3838,-0.235,0.06,
3839,-0.24,0.08,
3840,-0.24,0.08,
3841,-0.245,0.08,
3842,-0.24,0.065,
3843,-0.235,0.09,
3844,-0.24,0.07,
3845,-0.25,0.055,
3846,-0.25,0.06,
3847,-0.235,0.105,
3848,-0.24,0.105,
3849,-0.245,0.09,
3850,-0.255,0.07,
3851,-0.265,0.075,
3852,-0.28,0.09,
3853,-0.27,0.09,
3854,-0.27,0.075,
3855,-0.245,0.09,
3856,-0.26,0.085,
3857,-0.275,0.085,
3858,-0.29,0.085,
3859,-0.285,0.11,
3860,-0.285,0.105,
3861,-0.29,0.09,
3862,-0.3,0.075,
3863,-0.295,0.08,
3864,-0.275,0.1,
3865,-0.26,0.105,
3866,-0.26,0.09,
3867,-0.26,0.1,
3868,-0.275,0.095,
3869,-0.29,0.085,
3870,-0.285,0.08,
3871,-0.28,0.08,
3872,-0.29,0.1,
3873,-0.29,0.1,
3874,-0.31,0.08,
3875,-0.335,0.07,
3876,-0.325,0.085,
3877,-0.32,0.085,
3878,-0.32,0.06,
3879,-0.33,0.06,
3880,-0.335,0.075,
3881,-0.35,0.075,
3882,-0.34,0.065,
3883,-0.335,0.065,
3884,-0.33,0.075,
3885,-0.325,0.065,
3886,-0.325,0.04,
3887,-0.33,0.03,
3888,-0.335,0.055,
3889,-0.33,0.07,
3890,-0.34,0.065,
3891,-0.35,0.04,
3892,-0.345,0.045,
3893,-0.355,0.045,
3894,-0.345,0.055,
3895,-0.335,0.05,
3896,-0.335,0.07,
3897,-0.33,0.07,
3898,-0.345,0.04,
3899,-0.35,0.04,
3900,-0.35,0.055,
3901,-0.34,0.065,
3902,-0.325,0.045,
3903,-0.325,0.04,
3904,-0.33,0.05,
3905,-0.33,0.065,
3906,-0.31,0.075,
3907,-0.305,0.06,
3908,-0.31,0.07,
3909,-0.3,0.07,
3910,-0.295,0.045,
3911,-0.29,0.045,
3912,-0.28,0.07,
3913,-0.265,0.085,
3914,-0.255,0.07,
3915,-0.25,0.06,
3916,-0.245,0.05,
3917,-0.24,0.065,
3918,-0.235,0.07,
3919,-0.235,0.065,
3920,-0.24,0.07,
3921,-0.26,0.085,
3922,-0.275,0.04,
3923,-0.295,0.045,
3924,-0.29,0.065,
3925,-0.295,0.06,
3926,-0.29,0.04,
3927,-0.28,0.04,
3928,-0.285,0.055,
3929,-0.29,0.055,
3930,-0.305,0.04,
3931,-0.31,0.045,
3932,-0.305,0.04,
3933,-0.3,0.035,
3934,-0.31,0.0,
3935,-0.315,0.015,
3936,-0.305,0.025,
3937,-0.295,0.025,
3938,-0.275,0.025,
3939,-0.285,0.03,
3940,-0.295,0.015,
3941,-0.31,-0.005,
3942,-0.315,0.0,
3943,-0.34,0.02,
3944,-0.345,0.02,
3945,-0.345,0.0,
3946,-0.335,-0.01,
3947,-0.34,0.0,
3948,-0.325,-0.01,
3949,-0.315,-0.02,
3950,-0.305,-0.005,
3951,-0.32,0.02,
3952,-0.33,0.0,
3953,-0.345,-0.02,
3954,-0.335,-0.005,
3955,-0.3,0.03,
3956,-0.295,0.005,
3957,-0.285,0.0,
3958,-0.29,-0.005,
3959,-0.305,0.015,
3960,-0.295,0.005,
3961,-0.31,0.015,
3962,-0.33,0.02,
3963,-0.35,0.005,
3964,-0.35,-0.015,
3965,-0.315,-0.02,
3966,-0.25,0.01,
3967,-0.15,0.01,
3968,-0.04,0.0,
3969,0.08,-0.005,
3970,0.195,0.0,
3971,0.285,-0.025,
3972,0.385,-0.015,
3973,0.495,0.015,
3974,0.625,0.04,
3975,0.725,0.035,N
3976,0.79,0.005,
3977,0.74,0.02,
3978,0.63,0.035,
3979,0.525,0.025,
3980,0.335,0.02,
3981,0.025,0.05,
3982,-0.29,0.075,
3983,-0.51,0.05,
3984,-0.595,0.075,
3985,-0.605,0.11,
3986,-0.57,0.1,
3987,-0.505,0.06,
3988,-0.46,0.04,
3989,-0.465,0.06,
3990,-0.44,0.07,
3991,-0.415,0.08,
3992,-0.4,0.075,
3993,-0.395,0.065,
3994,-0.41,0.055,
3995,-0.435,0.03,
3996,-0.445,0.02,
3997,-0.445,0.065,
3998,-0.44,0.04,
3999,-0.45,0.03,
4000,-0.445,0.02,
4001,-0.445,0.045,
4002,-0.41,0.03,
4003,-0.375,0.025,
4004,-0.365,0.025,
4005,-0.385,0.045,
4006,-0.4,0.03,
4007,-0.43,0.02,
4008,-0.415,0.03,
4009,-0.4,0.04,
4010,-0.39,0.02,
4011,-0.395,0.01,
4012,-0.4,0.01,
4013,-0.405,0.03,
4014,-0.39,0.02,
4015,-0.38,0.02,
4016,-0.38,0.025,
4017,-0.375,0.035,
4018,-0.38,0.015,
4019,-0.395,-0.01,
4020,-0.385,0.015,
4021,-0.37,0.04,
4022,-0.375,0.035,
4023,-0.375,0.035,
4024,-0.39,0.02,
4025,-0.385,0.03,
4026,-0.365,0.035,
4027,-0.35,0.015,
4028,-0.335,0.02,
4029,-0.34,0.04,
4030,-0.35,0.05,
4031,-0.335,0.025,
4032,-0.315,0.03,
4033,-0.3,0.06,
4034,-0.27,0.045,
4035,-0.265,0.02,
4036,-0.29,0.02,
4037,-0.305,0.03,
4038,-0.29,0.05,
4039,-0.28,0.04,
4040,-0.26,0.04,
4041,-0.265,0.05,
4042,-0.28,0.03,
4043,-0.265,0.005,
4044,-0.25,0.02,
4045,-0.23,0.05,
4046,-0.225,0.06,
4047,-0.24,0.045,
4048,-0.255,0.04,
4049,-0.245,0.04,
4050,-0.23,0.045,
4051,-0.21,0.04,
4052,-0.21,0.03,
4053,-0.22,0.05,
4054,-0.22,0.05,
4055,-0.225,0.04,
4056,-0.21,0.035,
4057,-0.175,0.07,
4058,-0.14,0.06,
4059,-0.135,0.035,
4060,-0.14,0.015,
4061,-0.135,0.015,
4062,-0.13,0.055,
4063,-0.135,0.065,
4064,-0.14,0.04,
4065,-0.135,0.055,
4066,-0.135,0.05,
4067,-0.155,0.045,
4068,-0.165,0.035,
4069,-0.165,0.04,
4070,-0.165,0.07,
4071,-0.175,0.075,
4072,-0.18,0.055,
4073,-0.195,0.05,
4074,-0.2,0.075,
4075,-0.2,0.075,
4076,-0.205,0.04,
4077,-0.2,0.04,
4078,-0.225,0.06,
4079,-0.22,0.055,
4080,-0.225,0.05,
4081,-0.235,0.045,
4082,-0.24,0.08,
4083,-0.24,0.075,
4084,-0.25,0.035,
4085,-0.255,0.02,
4086,-0.24,0.045,
4087,-0.24,0.075,
4088,-0.245,0.06,
4089,-0.255,0.035,
4090,-0.27,0.03,
4091,-0.285,0.05,
4092,-0.295,0.045,
4093,-0.295,0.035,
4094,-0.29,0.025,
4095,-0.29,0.055,
4096,-0.29,0.03,
4097,-0.305,0.025,
4098,-0.3,0.015,
4099,-0.3,0.05,
4100,-0.285,0.06,
4101,-0.3,0.035,
4102,-0.295,0.01,
4103,-0.305,0.025,
4104,-0.315,0.065,
4105,-0.305,0.065,
4106,-0.31,0.03,
4107,-0.32,0.035,
4108,-0.33,0.045,
4109,-0.34,0.04,
4110,-0.335,0.03,
4111,-0.33,0.035,
4112,-0.335,0.055,
4113,-0.345,0.06,
4114,-0.35,0.025,
4115,-0.36,0.035,
4116,-0.365,0.06,
4117,-0.365,0.07,
4118,-0.355,0.04,
4119,-0.37,0.04,
4120,-0.365,0.055,
4121,-0.39,0.05,
4122,-0.385,0.05,
4123,-0.375,0.04,
4124,-0.365,0.07,
4125,-0.365,0.06,
4126,-0.355,0.035,
4127,-0.355,0.02,
4128,-0.355,0.04,
4129,-0.355,0.075,
4130,-0.35,0.06,
4131,-0.345,0.05,
4132,-0.34,0.045,
4133,-0.345,0.07,
4134,-0.335,0.075,
4135,-0.33,0.065,
4136,-0.34,0.045,
4137,-0.35,0.065,
4138,-0.365,0.06,
4139,-0.375,0.055,
4140,-0.385,0.04,
4141,-0.39,0.06,
4142,-0.38,0.08,
4143,-0.38,0.075,
4144,-0.375,0.02,
4145,-0.375,0.025,
4146,-0.375,0.05,
4147,-0.37,0.075,
4148,-0.37,0.06,
4149,-0.365,0.05,
4150,-0.375,0.06,
4151,-0.385,0.065,
4152,-0.365,0.055,
4153,-0.355,0.035,
4154,-0.34,0.04,
4155,-0.34,0.07,
4156,-0.325,0.055,
4157,-0.31,0.04,
4158,-0.295,0.065,
4159,-0.3,0.085,
4160,-0.3,0.075,
4161,-0.33,0.055,
4162,-0.35,0.03,
4163,-0.385,0.05,
4164,-0.395,0.08,
4165,-0.39,0.08,
4166,-0.39,0.065,
4167,-0.39,0.065,
4168,-0.42,0.08,
4169,-0.42,0.065,
4170,-0.4,0.045,
4171,-0.38,0.055,
4172,-0.375,0.07,
4173,-0.375,0.085,
4174,-0.385,0.055,
4175,-0.38,0.06,
4176,-0.375,0.075,
4177,-0.365,0.085,
4178,-0.35,0.055,
4179,-0.35,0.04,
4180,-0.35,0.05,
4181,-0.365,0.06,
4182,-0.36,0.06,
4183,-0.36,0.055,
4184,-0.375,0.075,
4185,-0.385,0.08,
4186,-0.405,0.055,
4187,-0.415,0.02,
4188,-0.42,0.04,
4189,-0.38,0.065,
4190,-0.325,0.065,
4191,-0.255,0.04,
4192,-0.205,0.04,
4193,-0.125,0.055,
4194,-0.015,0.065,
4195,0.09,0.045,
4196,0.195,0.045,
4197,0.29,0.06,
4198,0.39,0.07,
4199,0.5,0.045,
4200,0.615,0.055,
4201,0.665,0.085,N
4202,0.645,0.075,
4203,0.54,0.06,
4204,0.425,0.05,
4205,0.32,0.06,
4206,0.175,0.105,
4207,-0.055,0.125,
4208,-0.295,0.1,
4209,-0.465,0.115,
4210,-0.585,0.125,
4211,-0.64,0.115,
4212,-0.62,0.105,
4213,-0.58,0.115,
4214,-0.52,0.13,
4215,-0.49,0.12,
4216,-0.485,0.1,
4217,-0.475,0.09,
4218,-0.445,0.115,
4219,-0.425,0.125,
4220,-0.415,0.1,
4221,-0.435,0.085,
4222,-0.455,0.085,
4223,-0.46,0.095,
4224,-0.47,0.075,
4225,-0.49,0.075,
4226,-0.47,0.08,
4227,-0.455,0.075,
4228,-0.445,0.045,
4229,-0.43,0.03,
4230,-0.43,0.065,
4231,-0.44,0.08,
4232,-0.425,0.055,
4233,-0.425,0.045,
4234,-0.425,0.065,
4235,-0.425,0.05,
4236,-0.415,0.04,
4237,-0.415,0.05,
4238,-0.41,0.07,
4239,-0.4,0.065,
4240,-0.41,0.04,
4241,-0.41,0.04,
4242,-0.405,0.055,
4243,-0.39,0.04,
4244,-0.385,0.015,
4245,-0.365,0.025,
4246,-0.365,0.04,
4247,-0.375,0.02,
4248,-0.38,0.025,
4249,-0.39,0.045,
4250,-0.37,0.035,
4251,-0.365,0.025,
4252,-0.37,0.01,
4253,-0.385,0.03,
4254,-0.38,0.035,
4255,-0.375,0.01,
4256,-0.365,0.015,
4257,-0.365,0.055,
4258,-0.365,0.03,
4259,-0.36,0.01,
4260,-0.33,0.025,
4261,-0.335,0.06,
4262,-0.315,0.035,
4263,-0.305,0.02,
4264,-0.3,0.03,
4265,-0.3,0.04,
4266,-0.285,0.02,
4267,-0.26,0.03,
4268,-0.25,0.045,
4269,-0.245,0.03,
4270,-0.245,0.005,
4271,-0.245,0.015,
4272,-0.23,0.04,
4273,-0.21,0.035,
4274,-0.2,0.02,
4275,-0.195,0.04,
4276,-0.205,0.035,
4277,-0.22,0.01,
4278,-0.2,0.015,
4279,-0.18,0.05,
4280,-0.135,0.035,
4281,-0.135,0.015,
4282,-0.125,0.015,
4283,-0.14,0.03,
4284,-0.165,0.025,
4285,-0.17,0.02,
4286,-0.185,0.04,
4287,-0.155,0.05,
4288,-0.135,0.005,
4289,-0.16,0.005,
4290,-0.19,0.03,
4291,-0.215,0.035,
4292,-0.235,0.03,
4293,-0.23,0.045,
4294,-0.23,0.045,
4295,-0.245,0.025,
4296,-0.24,0.035,
4297,-0.245,0.065,
4298,-0.245,0.055,
4299,-0.245,0.03,
4300,-0.24,0.025,
4301,-0.26,0.05,
4302,-0.255,0.04,
4303,-0.25,0.03,
4304,-0.255,0.04,
4305,-0.265,0.04,
4306,-0.285,0.03,
4307,-0.295,0.01,
4308,-0.28,0.045,
4309,-0.275,0.065,
4310,-0.255,0.045,
4311,-0.25,0.03,
4312,-0.265,0.04,
4313,-0.285,0.035,
4314,-0.29,0.025,
4315,-0.285,0.025,
4316,-0.28,0.045,
4317,-0.29,0.06,
4318,-0.3,0.02,
4319,-0.305,0.025,
4320,-0.305,0.055,
4321,-0.295,0.065,
4322,-0.285,0.045,
4323,-0.28,0.04,
4324,-0.285,0.055,
4325,-0.31,0.055,
4326,-0.325,0.035,
4327,-0.315,0.055,
4328,-0.295,0.065,
4329,-0.295,0.055,
4330,-0.31,0.025,
4331,-0.33,0.04,
4332,-0.34,0.045,
4333,-0.34,0.055,
4334,-0.345,0.045,
4335,-0.355,0.065,
4336,-0.355,0.055,
4337,-0.36,0.035,
4338,-0.355,0.04,
4339,-0.335,0.075,
4340,-0.325,0.075,
4341,-0.32,0.04,
4342,-0.315,0.045,
4343,-0.315,0.05,
4344,-0.31,0.065,
4345,-0.3,0.07,
4346,-0.29,0.06,
4347,-0.3,0.085,
4348,-0.31,0.08,
4349,-0.315,0.045,
4350,-0.295,0.05,
4351,-0.29,0.075,
4352,-0.265,0.075,
4353,-0.28,0.045,
4354,-0.28,0.05,
4355,-0.29,0.065,
4356,-0.295,0.07,
4357,-0.305,0.05,
4358,-0.3,0.065,
4359,-0.32,0.065,
4360,-0.315,0.06,
4361,-0.32,0.04,
4362,-0.305,0.05,
4363,-0.29,0.085,
4364,-0.28,0.065,
4365,-0.28,0.04,
4366,-0.28,0.03,
4367,-0.295,0.04,
4368,-0.29,0.055,
4369,-0.29,0.045,
4370,-0.28,0.045,
4371,-0.28,0.055,
4372,-0.285,0.05,
4373,-0.275,0.025,
4374,-0.25,0.03,
4375,-0.235,0.055,
4376,-0.23,0.065,
4377,-0.235,0.045,
4378,-0.255,0.03,
4379,-0.275,0.05,
4380,-0.29,0.06,
4381,-0.295,0.035,
4382,-0.29,0.04,
4383,-0.275,0.03,
4384,-0.275,0.025,
4385,-0.295,0.015,
4386,-0.3,0.015,
4387,-0.3,0.05,
4388,-0.295,0.055,
4389,-0.275,0.035,
4390,-0.265,0.015,
4391,-0.275,0.015,
4392,-0.26,0.03,
4393,-0.255,0.025,
4394,-0.27,0.025,
4395,-0.25,0.03,
4396,-0.255,0.025,
4397,-0.265,0.01,
4398,-0.265,0.01,
4399,-0.26,0.02,
4400,-0.265,0.035,
4401,-0.26,0.015,
4402,-0.275,-0.005,
4403,-0.29,0.0,
4404,-0.285,0.01,
4405,-0.235,0.015,
4406,-0.155,0.005,
4407,-0.065,0.01,
4408,0.015,0.005,
4409,0.095,-0.005,
4410,0.195,-0.01,
4411,0.295,0.02,
4412,0.405,0.035,
4413,0.515,0.025,
4414,0.63,0.01,
4415,0.745,0.02,
4416,0.825,0.045,N
4417,0.87,0.03,
4418,0.845,0.01,
4419,0.745,0.03,
4420,0.615,0.045,
4421,0.41,0.05,
4422,0.08,0.04,
4423,-0.23,0.065,
4424,-0.425,0.09,
4425,-0.535,0.075,
4426,-0.585,0.065,
4427,-0.615,0.06,
4428,-0.56,0.08,
4429,-0.49,0.1,
4430,-0.425,0.075,
4431,-0.405,0.05,
4432,-0.405,0.055,
4433,-0.405,0.055,
4434,-0.38,0.065,
4435,-0.36,0.055,
4436,-0.34,0.045,
4437,-0.355,0.055,
4438,-0.39,0.05,
4439,-0.405,0.025,
4440,-0.405,0.02,
4441,-0.4,0.045,
4442,-0.39,0.035,
4443,-0.385,0.01,
4444,-0.375,0.005,
4445,-0.365,0.0,
4446,-0.34,0.025,
4447,-0.33,0.03,
4448,-0.34,0.015,
4449,-0.345,0.02,
4450,-0.34,0.015,
4451,-0.345,0.0,
4452,-0.335,0.01,
4453,-0.32,0.03,
4454,-0.31,0.02,
4455,-0.31,0.025,
4456,-0.305,0.005,
4457,-0.33,0.0,
4458,-0.315,0.02,
4459,-0.3,0.025,
4460,-0.28,0.0,
4461,-0.285,-0.005,
4462,-0.295,0.01,
4463,-0.29,0.015,
4464,-0.29,0.025,
4465,-0.275,0.025,
4466,-0.27,0.02,
4467,-0.265,0.035,
4468,-0.275,0.0,
4469,-0.28,0.0,
4470,-0.275,0.005,
4471,-0.275,0.03,
4472,-0.265,0.035,
4473,-0.27,0.015,
4474,-0.265,0.01,
4475,-0.265,0.015,
4476,-0.25,0.02,
4477,-0.235,0.01,
4478,-0.205,0.005,
4479,-0.19,0.02,
4480,-0.19,0.03,
4481,-0.2,0.025,
4482,-0.21,0.015,
4483,-0.19,0.015,
4484,-0.15,0.03,
4485,-0.145,0.03,
4486,-0.145,0.005,
4487,-0.16,0.005,
4488,-0.15,0.02,
4489,-0.135,0.035,
4490,-0.11,0.04,
4491,-0.12,0.02,
4492,-0.125,0.015,
4493,-0.12,0.03,
4494,-0.12,0.025,
4495,-0.115,0.035,
4496,-0.1,0.025,
4497,-0.1,0.035,
4498,-0.095,0.03,
4499,-0.1,0.025,
4500,-0.1,0.02,
4501,-0.09,0.035,
4502,-0.065,0.04,
4503,-0.06,0.04,
4504,-0.05,0.02,
4505,-0.055,0.01,
4506,-0.04,0.04,
4507,-0.01,0.055,
4508,0.01,0.05,
4509,0.0,0.02,
4510,-0.01,0.025,
4511,-0.005,0.04,
4512,-0.015,0.03,
4513,-0.01,0.04,
4514,-0.02,0.035,
4515,-0.02,0.045,
4516,-0.025,0.04,
4517,-0.045,0.03,
4518,-0.065,0.035,
4519,-0.065,0.055,
4520,-0.075,0.045,
4521,-0.095,0.045,
4522,-0.1,0.025,
4523,-0.085,0.035,
4524,-0.06,0.045,
4525,-0.035,0.055,
4526,-0.045,0.05,
4527,-0.05,0.03,
4528,-0.055,0.03,
4529,-0.06,0.04,
4530,-0.06,0.045,
4531,-0.05,0.035,
4532,-0.05,0.045,
4533,-0.05,0.05,
4534,-0.06,0.05,
4535,-0.08,0.05,
4536,-0.08,0.04,
4537,-0.075,0.07,
4538,-0.06,0.07,
4539,-0.075,0.065,
4540,-0.085,0.055,
4541,-0.095,0.06,
4542,-0.09,0.095,
4543,-0.09,0.085,
4544,-0.095,0.055,
4545,-0.09,0.06,
4546,-0.1,0.07,
4547,-0.115,0.055,
4548,-0.11,0.05,
4549,-0.095,0.07,
4550,-0.095,0.08,
4551,-0.09,0.08,
4552,-0.12,0.045,
4553,-0.145,0.055,
4554,-0.145,0.06,
4555,-0.14,0.075,
4556,-0.13,0.05,
4557,-0.125,0.045,
4558,-0.13,0.035,
4559,-0.145,0.055,
4560,-0.15,0.05,
4561,-0.15,0.05,
4562,-0.155,0.06,
4563,-0.155,0.065,
4564,-0.16,0.05,
4565,-0.16,0.03,
4566,-0.165,0.035,
4567,-0.155,0.055,
4568,-0.15,0.065,
4569,-0.155,0.045,
4570,-0.16,0.03,
4571,-0.185,0.05,
4572,-0.18,0.065,
4573,-0.18,0.065,
4574,-0.17,0.045,
4575,-0.135,0.055,
4576,-0.13,0.06,
4577,-0.11,0.06,
4578,-0.1,0.05,
4579,-0.095,0.06,
4580,-0.085,0.08,
4581,-0.105,0.065,
4582,-0.115,0.045,
4583,-0.125,0.03,
4584,-0.13,0.05,
4585,-0.145,0.065,
4586,-0.14,0.06,
4587,-0.16,0.055,
4588,-0.175,0.045,
4589,-0.19,0.05,
4590,-0.195,0.05,
4591,-0.175,0.035,
4592,-0.165,0.035,
4593,-0.15,0.06,
4594,-0.165,0.045,
4595,-0.17,0.03,
4596,-0.17,0.045,
4597,-0.145,0.06,
4598,-0.13,0.05,
4599,-0.135,0.015,
4600,-0.145,0.015,
4601,-0.16,0.035,
4602,-0.15,0.06,
4603,-0.14,0.06,
4604,-0.115,0.05,
4605,-0.12,0.06,
4606,-0.135,0.045,
4607,-0.145,0.02,
4608,-0.15,0.02,
4609,-0.145,0.055,
4610,-0.14,0.07,
4611,-0.14,0.045,
4612,-0.15,0.035,
4613,-0.17,0.05,
4614,-0.165,0.055,
4615,-0.155,0.05,
4616,-0.14,0.05,
4617,-0.14,0.06,
4618,-0.155,0.065,
4619,-0.155,0.05,
4620,-0.155,0.045,
4621,-0.15,0.065,
4622,-0.125,0.07,
4623,-0.13,0.05,
4624,-0.135,0.03,
4625,-0.145,0.03,
4626,-0.155,0.055,
4627,-0.15,0.065,
4628,-0.14,0.06,
4629,-0.145,0.06,
4630,-0.17,0.055,
4631,-0.19,0.035,
4632,-0.2,0.025,
4633,-0.175,0.035,
4634,-0.13,0.05,
4635,-0.045,0.05,
4636,0.03,0.03,
4637,0.085,0.015,
4638,0.195,0.03,
4639,0.31,0.05,
4640,0.41,0.03,
4641,0.505,0.02,
4642,0.595,0.03,
4643,0.715,0.05,
4644,0.84,0.055,
4645,0.965,0.075,
4646,1.075,0.06,N
4647,1.125,0.07,
4648,1.085,0.07,
4649,0.98,0.05,
4650,0.835,0.045,
4651,0.605,0.065,
4652,0.24,0.09,
4653,-0.08,0.095,
4654,-0.295,0.085,
4655,-0.385,0.095,
4656,-0.4,0.12,
4657,-0.39,0.12,
4658,-0.355,0.085,
4659,-0.32,0.095,
4660,-0.28,0.085,
4661,-0.255,0.1,
4662,-0.215,0.095,
4663,-0.21,0.095,
4664,-0.205,0.105,
4665,-0.21,0.105,
4666,-0.235,0.065,
4667,-0.255,0.055,
4668,-0.26,0.075,
4669,-0.275,0.08,
4670,-0.275,0.085,
4671,-0.265,0.065,
4672,-0.245,0.055,
4673,-0.235,0.055,
4674,-0.23,0.075,
4675,-0.19,0.06,
4676,-0.185,0.04,
4677,-0.185,0.05,
4678,-0.2,0.06,
4679,-0.21,0.06,
4680,-0.195,0.06,
4681,-0.21,0.075,
4682,-0.195,0.075,
4683,-0.195,0.07,
4684,-0.195,0.04,
4685,-0.21,0.035,
4686,-0.21,0.05,
4687,-0.21,0.07,
4688,-0.21,0.07,
4689,-0.19,0.055,
4690,-0.2,0.045,
4691,-0.205,0.055,
4692,-0.2,0.065,
4693,-0.2,0.045,
4694,-0.195,0.04,
4695,-0.195,0.06,
4696,-0.19,0.055,
4697,-0.205,0.05,
4698,-0.18,0.05,
4699,-0.175,0.055,
4700,-0.175,0.065,
4701,-0.175,0.065,
4702,-0.165,0.025,
4703,-0.17,0.01,
4704,-0.165,0.04,
4705,-0.17,0.06,
4706,-0.155,0.06,
4707,-0.15,0.04,
4708,-0.165,0.035,
4709,-0.17,0.04,
4710,-0.155,0.05,
4711,-0.14,0.05,
4712,-0.14,0.04,
4713,-0.125,0.04,
4714,-0.14,0.04,
4715,-0.15,0.035,
4716,-0.135,0.04,
4717,-0.115,0.06,
4718,-0.09,0.065,
4719,-0.085,0.05,
4720,-0.085,0.025,
4721,-0.095,0.025,
4722,-0.095,0.05,
4723,-0.07,0.07,
4724,-0.045,0.055,
4725,-0.035,0.04,
4726,-0.04,0.045,
4727,-0.04,0.055,
4728,-0.025,0.055,
4729,-0.005,0.045,
4730,0.02,0.04,
4731,0.025,0.065,
4732,0.03,0.06,
4733,0.01,0.055,
4734,0.005,0.05,
4735,0.02,0.065,
4736,0.015,0.08,
4737,0.015,0.075,
4738,0.03,0.05,
4739,0.035,0.04,
4740,0.045,0.06,
4741,0.04,0.09,
4742,0.055,0.08,
4743,0.05,0.06,
4744,0.045,0.06,
4745,0.025,0.065,
4746,0.03,0.075,
4747,0.035,0.075,
4748,0.045,0.045,
4749,0.045,0.05,
4750,0.025,0.05,
4751,0.0,0.065,
4752,0.005,0.055,
4753,0.005,0.045,
4754,0.005,0.07,
4755,0.005,0.07,
4756,-0.015,0.05,
4757,-0.025,0.025,
4758,-0.025,0.015,
4759,-0.025,0.06,
4760,-0.02,0.075,
4761,-0.03,0.055,
4762,-0.055,0.03,
4763,-0.06,0.055,
4764,-0.06,0.075,
4765,-0.06,0.07,
4766,-0.045,0.055,
4767,-0.045,0.04,
4768,-0.035,0.03,
4769,-0.045,0.06,
4770,-0.055,0.055,
4771,-0.05,0.035,
4772,-0.055,0.045,
4773,-0.06,0.065,
4774,-0.06,0.065,
4775,-0.07,0.025,
4776,-0.07,0.025,
4777,-0.08,0.055,
4778,-0.085,0.075,
4779,-0.08,0.07,
4780,-0.1,0.035,
4781,-0.11,0.025,
4782,-0.115,0.06,
4783,-0.135,0.08,
4784,-0.15,0.055,
4785,-0.17,0.025,
4786,-0.145,0.03,
4787,-0.15,0.05,
4788,-0.13,0.055,
4789,-0.12,0.045,
4790,-0.105,0.05,
4791,-0.1,0.06,
4792,-0.12,0.055,
4793,-0.13,0.035,
4794,-0.135,0.03,
4795,-0.13,0.04,
4796,-0.125,0.07,
4797,-0.135,0.075,
4798,-0.125,0.045,
4799,-0.125,0.025,
4800,-0.12,0.06,
4801,-0.115,0.08,
4802,-0.12,0.06,
4803,-0.12,0.045,
4804,-0.13,0.035,
4805,-0.145,0.045,
4806,-0.135,0.075,
4807,-0.12,0.07,
4808,-0.125,0.055,
4809,-0.115,0.06,
4810,-0.11,0.075,
4811,-0.115,0.06,
4812,-0.125,0.05,
4813,-0.125,0.055,
4814,-0.14,0.08,
4815,-0.14,0.09,
4816,-0.155,0.075,
4817,-0.18,0.05,
4818,-0.175,0.065,
4819,-0.165,0.09,
4820,-0.155,0.09,
4821,-0.145,0.07,
4822,-0.125,0.04,
4823,-0.14,0.055,
4824,-0.135,0.08,
4825,-0.13,0.085,
4826,-0.13,0.07,
4827,-0.155,0.055,
4828,-0.155,0.055,
4829,-0.18,0.075,
4830,-0.18,0.07,
4831,-0.185,0.055,
4832,-0.18,0.045,
4833,-0.2,0.07,
4834,-0.21,0.085,
4835,-0.21,0.07,
4836,-0.215,0.07,
4837,-0.195,0.075,
4838,-0.21,0.095,
4839,-0.205,0.09,
4840,-0.21,0.065,
4841,-0.215,0.04,
4842,-0.2,0.065,
4843,-0.185,0.095,
4844,-0.195,0.1,
4845,-0.185,0.085,
4846,-0.2,0.055,
4847,-0.195,0.07,
4848,-0.185,0.095,
4849,-0.165,0.1,
4850,-0.155,0.06,
4851,-0.155,0.06,
4852,-0.155,0.065,
4853,-0.165,0.085,
4854,-0.15,0.08,
4855,-0.145,0.075,
4856,-0.135,0.08,
4857,-0.145,0.105,
4858,-0.145,0.085,
4859,-0.15,0.07,
4860,-0.15,0.055,
4861,-0.13,0.085,
4862,-0.135,0.105,
4863,-0.165,0.08,
4864,-0.2,0.075,
4865,-0.23,0.045,
4866,-0.22,0.07,
4867,-0.175,0.09,
4868,-0.095,0.075,
4869,-0.02,0.045,
4870,0.04,0.03,
4871,0.095,0.045,
4872,0.185,0.075,
4873,0.275,0.09,
4874,0.37,0.07,
4875,0.455,0.055,
4876,0.545,0.07,
4877,0.655,0.095,
4878,0.77,0.08,
4879,0.875,0.075,
4880,0.96,0.08,N
4881,0.955,0.09,
4882,0.9,0.09,
4883,0.81,0.075,
4884,0.725,0.07,
4885,0.62,0.085,
4886,0.465,0.12,
4887,0.22,0.13,
4888,-0.02,0.115,
4889,-0.195,0.11,
4890,-0.32,0.125,
4891,-0.38,0.17,
4892,-0.4,0.155,
4893,-0.405,0.135,
4894,-0.39,0.11,
4895,-0.355,0.13,
4896,-0.315,0.145,
4897,-0.275,0.155,
4898,-0.255,0.115,
4899,-0.25,0.1,
4900,-0.25,0.11,
4901,-0.25,0.105,
4902,-0.245,0.115,
4903,-0.26,0.095,
4904,-0.265,0.085,
4905,-0.3,0.095,
4906,-0.305,0.1,
4907,-0.32,0.07,
4908,-0.305,0.05,
4909,-0.29,0.06,
4910,-0.27,0.08,
4911,-0.26,0.08,
4912,-0.27,0.05,
4913,-0.29,0.04,
4914,-0.275,0.05,
4915,-0.26,0.075,
4916,-0.255,0.075,
4917,-0.25,0.06,
4918,-0.245,0.03,
4919,-0.275,0.04,
4920,-0.255,0.075,
4921,-0.255,0.08,
4922,-0.26,0.055,
4923,-0.26,0.04,
4924,-0.245,0.065,
4925,-0.255,0.06,
4926,-0.255,0.055,
4927,-0.24,0.04,
4928,-0.23,0.045,
4929,-0.215,0.05,
4930,-0.215,0.065,
4931,-0.225,0.04,
4932,-0.22,0.015,
4933,-0.22,0.03,
4934,-0.215,0.065,
4935,-0.195,0.06,
4936,-0.175,0.015,
4937,-0.175,-0.005,
4938,-0.185,0.025,
4939,-0.215,0.045,
4940,-0.215,0.05,
4941,-0.225,0.025,
4942,-0.23,0.01,
4943,-0.225,0.025,
4944,-0.19,0.055,
4945,-0.175,0.05,
4946,-0.17,0.025,
4947,-0.17,0.015,
4948,-0.185,0.03,
4949,-0.18,0.04,
4950,-0.155,0.025,
4951,-0.145,0.015,
4952,-0.14,0.03,
4953,-0.12,0.04,
4954,-0.125,0.03,
4955,-0.115,-0.005,
4956,-0.105,0.0,
4957,-0.095,0.025,
4958,-0.07,0.045,
4959,-0.08,0.015,
4960,-0.075,0.01,
4961,-0.075,0.015,
4962,-0.05,0.035,
4963,-0.03,0.02,
4964,-0.025,0.005,
4965,-0.03,0.02,
4966,-0.03,0.035,
4967,-0.05,0.02,
4968,-0.025,0.0,
4969,-0.025,0.02,
4970,-0.015,0.045,
4971,0.015,0.045,
4972,0.015,0.005,
4973,0.015,-0.005,
4974,0.005,0.025,
4975,0.025,0.05,
4976,0.06,0.045,
4977,0.075,0.025,
4978,0.065,0.01,
4979,0.03,0.035,
4980,0.03,0.04,
4981,0.055,0.035,
4982,0.05,0.02,
4983,0.055,0.035,
4984,0.045,0.05,
4985,0.015,0.03,
4986,-0.005,0.025,
4987,-0.01,0.05,
4988,-0.015,0.055,
4989,-0.015,0.055,
4990,-0.03,0.03,
4991,-0.05,0.015,
4992,-0.05,0.05,
4993,-0.035,0.065,
4994,-0.03,0.05,
4995,-0.04,0.035,
4996,-0.055,0.05,
4997,-0.075,0.055,
4998,-0.095,0.045,
4999,-0.09,0.04,
5000,-0.07,0.05,
5001,-0.07,0.065,
5002,-0.09,0.045,
5003,-0.105,0.035,
5004,-0.105,0.05,
5005,-0.095,0.075,
5006,-0.095,0.07,
5007,-0.105,0.05,
5008,-0.115,0.035,
5009,-0.125,0.06,
5010,-0.125,0.05,
5011,-0.12,0.055,
5012,-0.115,0.045,
5013,-0.115,0.06,
5014,-0.13,0.065,
5015,-0.17,0.04,
5016,-0.17,0.035,
5017,-0.16,0.07,
5018,-0.14,0.07,
5019,-0.135,0.065,
5020,-0.155,0.035,
5021,-0.165,0.05,
5022,-0.17,0.07,
5023,-0.165,0.055,
5024,-0.155,0.055,
5025,-0.135,0.06,
5026,-0.15,0.05,
5027,-0.19,0.05,
5028,-0.2,0.04,
5029,-0.21,0.05,
5030,-0.18,0.075,
5031,-0.165,0.07,
5032,-0.185,0.04,
5033,-0.205,0.035,
5034,-0.22,0.075,
5035,-0.235,0.08,
5036,-0.23,0.055,
5037,-0.215,0.05,
5038,-0.21,0.06,
5039,-0.2,0.075,
5040,-0.19,0.065,
5041,-0.185,0.065,
5042,-0.185,0.075,
5043,-0.2,0.09,
5044,-0.2,0.075,
5045,-0.215,0.065,
5046,-0.21,0.075,
5047,-0.215,0.095,
5048,-0.205,0.095,
5049,-0.205,0.075,
5050,-0.215,0.07,
5051,-0.23,0.075,
5052,-0.215,0.09,
5053,-0.2,0.09,
5054,-0.185,0.09,
5055,-0.195,0.095,
5056,-0.2,0.095,
5057,-0.19,0.09,
5058,-0.18,0.095,
5059,-0.175,0.1,
5060,-0.145,0.075,
5061,-0.14,0.09,
5062,-0.135,0.1,
5063,-0.14,0.09,
5064,-0.13,0.085,
5065,-0.12,0.105,
5066,-0.115,0.12,
5067,-0.105,0.105,
5068,-0.11,0.08,
5069,-0.11,0.08,
5070,-0.09,0.1,
5071,-0.085,0.115,
5072,-0.095,0.105,
5073,-0.12,0.095,
5074,-0.14,0.095,
5075,-0.15,0.09,
5076,-0.155,0.08,
5077,-0.14,0.075,
5078,-0.155,0.095,
5079,-0.175,0.11,
5080,-0.19,0.09,
5081,-0.185,0.085,
5082,-0.155,0.1,
5083,-0.145,0.115,
5084,-0.15,0.11,
5085,-0.155,0.08,
5086,-0.135,0.07,
5087,-0.125,0.1,
5088,-0.115,0.1,
5089,-0.115,0.095,
5090,-0.12,0.075,
5091,-0.105,0.09,
5092,-0.095,0.09,
5093,-0.1,0.05,
5094,-0.11,0.045,
5095,-0.12,0.055,
5096,-0.14,0.085,
5097,-0.15,0.075,
5098,-0.175,0.045,
5099,-0.205,0.045,
5100,-0.19,0.065,
5101,-0.165,0.06,
5102,-0.145,0.03,
5103,-0.15,0.025,
5104,-0.18,0.035,
5105,-0.165,0.06,
5106,-0.145,0.045,
5107,-0.12,0.04,
5108,-0.1,0.04,
5109,-0.115,0.055,
5110,-0.135,0.03,
5111,-0.145,0.005,
5112,-0.135,0.03,
5113,-0.115,0.065,
5114,-0.105,0.055,
5115,-0.1,0.035,
5116,-0.105,0.04,
5117,-0.135,0.045,
5118,-0.155,0.055,
5119,-0.17,0.03,
5120,-0.165,0.025,
5121,-0.155,0.04,
5122,-0.12,0.045,
5123,-0.085,0.035,
5124,-0.025,0.025,
5125,0.055,0.05,
5126,0.16,0.06,
5127,0.265,0.055,
5128,0.355,0.02,
5129,0.405,0.03,
5130,0.475,0.07,
5131,0.595,0.085,
5132,0.72,0.07,
5133,0.845,0.065,
5134,0.945,0.075,N
5135,1.005,0.085,
5136,0.98,0.08,
5137,0.925,0.065,
5138,0.82,0.075,
5139,0.685,0.1,
5140,0.46,0.11,
5141,0.14,0.115,
5142,-0.145,0.11,
5143,-0.32,0.135,
5144,-0.415,0.135,
5145,-0.43,0.125,
5146,-0.425,0.1,
5147,-0.39,0.1,
5148,-0.35,0.125,
5149,-0.295,0.135,
5150,-0.27,0.115,
5151,-0.255,0.115,
5152,-0.245,0.12,
5153,-0.225,0.115,
5154,-0.21,0.085,
5155,-0.215,0.085,
5156,-0.22,0.09,
5157,-0.23,0.105,
5158,-0.24,0.08,
5159,-0.265,0.065,
5160,-0.28,0.075,
5161,-0.275,0.085,
5162,-0.27,0.075,
5163,-0.22,0.065,
5164,-0.205,0.04,
5165,-0.215,0.075,
5166,-0.215,0.095,
5167,-0.205,0.08,
5168,-0.195,0.07,
5169,-0.2,0.085,
5170,-0.2,0.085,
5171,-0.205,0.07,
5172,-0.205,0.04,
5173,-0.205,0.07,
5174,-0.205,0.075,
5175,-0.21,0.095,
5176,-0.22,0.07,
5177,-0.215,0.055,
5178,-0.19,0.075,
5179,-0.18,0.105,
5180,-0.17,0.085,
5181,-0.17,0.065,
5182,-0.165,0.04,
5183,-0.165,0.065,
5184,-0.17,0.09,
5185,-0.16,0.095,
5186,-0.18,0.085,
5187,-0.175,0.07,
5188,-0.17,0.08,
5189,-0.155,0.075,
5190,-0.145,0.065,
5191,-0.135,0.05,
5192,-0.15,0.065,
5193,-0.165,0.08,
5194,-0.175,0.06,
5195,-0.185,0.06,
5196,-0.16,0.07,
5197,-0.15,0.09,
5198,-0.135,0.1,
5199,-0.14,0.08,
5200,-0.135,0.05,
5201,-0.15,0.06,
5202,-0.145,0.095,
5203,-0.135,0.105,
5204,-0.11,0.085,
5205,-0.105,0.09,
5206,-0.115,0.09,
5207,-0.09,0.1,
5208,-0.08,0.09,
5209,-0.04,0.085,
5210,-0.015,0.09,
5211,-0.025,0.1,
5212,-0.04,0.09,
5213,-0.06,0.07,
5214,-0.05,0.07,
5215,-0.035,0.105,
5216,-0.015,0.1,
5217,0.0,0.09,
5218,0.0,0.05,
5219,-0.015,0.06,
5220,0.0,0.085,
5221,0.02,0.09,
5222,0.035,0.075,
5223,0.035,0.07,
5224,0.015,0.07,
5225,0.0,0.08,
5226,-0.015,0.075,
5227,0.005,0.07,
5228,0.02,0.05,
5229,0.02,0.055,
5230,0.005,0.08,
5231,0.015,0.075,
5232,0.035,0.065,
5233,0.05,0.08,
5234,0.065,0.09,
5235,0.09,0.1,
5236,0.095,0.075,
5237,0.085,0.06,
5238,0.085,0.065,
5239,0.09,0.095,
5240,0.085,0.115,
5241,0.075,0.1,
5242,0.06,0.085,
5243,0.065,0.085,
5244,0.07,0.11,
5245,0.065,0.11,
5246,0.04,0.09,
5247,0.015,0.085,
5248,0.01,0.08,
5249,0.005,0.095,
5250,0.025,0.095,
5251,0.055,0.09,
5252,0.065,0.105,
5253,0.035,0.105,
5254,-0.03,0.085,
5255,-0.07,0.065,
5256,-0.065,0.07,
5257,-0.05,0.1,
5258,-0.015,0.115,
5259,-0.01,0.09,
5260,-0.005,0.075,
5261,-0.03,0.085,
5262,-0.025,0.11,
5263,-0.01,0.115,
5264,-0.005,0.095,
5265,0.0,0.07,
5266,-0.02,0.08,
5267,-0.045,0.09,
5268,-0.045,0.095,
5269,-0.06,0.075,
5270,-0.045,0.08,
5271,-0.05,0.085,
5272,-0.065,0.065,
5273,-0.075,0.05,
5274,-0.075,0.04,
5275,-0.05,0.05,
5276,-0.025,0.08,
5277,-0.02,0.08,
5278,-0.04,0.05,
5279,-0.08,0.04,
5280,-0.065,0.08,
5281,-0.055,0.085,
5282,-0.05,0.055,
5283,-0.04,0.03,
5284,-0.06,0.03,
5285,-0.08,0.035,
5286,-0.095,0.045,
5287,-0.085,0.025,
5288,-0.075,0.015,
5289,-0.07,0.025,
5290,-0.075,0.02,
5291,-0.09,-0.005,
5292,-0.09,-0.005,
5293,-0.09,0.0,
5294,-0.08,0.03,
5295,-0.08,0.045,
5296,-0.075,-0.005,
5297,-0.095,-0.01,
5298,-0.105,0.02,
5299,-0.12,0.04,
5300,-0.125,0.025,
5301,-0.125,0.01,
5302,-0.13,0.005,
5303,-0.135,0.03,
5304,-0.125,0.045,
5305,-0.13,0.035,
5306,-0.115,0.02,
5307,-0.09,0.03,
5308,-0.065,0.045,
5309,-0.08,0.035,
5310,-0.075,0.015,
5311,-0.045,0.01,
5312,-0.04,0.04,
5313,-0.055,0.055,
5314,-0.065,0.04,
5315,-0.065,0.02,
5316,-0.045,0.035,
5317,-0.045,0.055,
5318,-0.06,0.055,
5319,-0.065,0.025,
5320,-0.075,0.0,
5321,-0.085,0.02,
5322,-0.095,0.035,
5323,-0.09,0.035,
5324,-0.09,0.015,
5325,-0.095,0.03,
5326,-0.1,0.035,
5327,-0.095,0.045,
5328,-0.1,0.015,
5329,-0.095,0.035,
5330,-0.095,0.055,
5331,-0.095,0.065,
5332,-0.09,0.035,
5333,-0.09,0.02,
5334,-0.075,0.04,
5335,-0.06,0.075,
5336,-0.055,0.055,
5337,-0.05,0.04,
5338,-0.055,0.02,
5339,-0.06,0.04,
5340,-0.065,0.07,
5341,-0.07,0.06,
5342,-0.06,0.055,
5343,-0.075,0.065,
5344,-0.085,0.065,
5345,-0.1,0.05,
5346,-0.095,0.035,
5347,-0.095,0.055,
5348,-0.11,0.07,
5349,-0.11,0.08,
5350,-0.12,0.05,
5351,-0.135,0.045,
5352,-0.125,0.085,
5353,-0.11,0.1,
5354,-0.08,0.075,
5355,-0.06,0.06,
5356,-0.045,0.06,
5357,-0.06,0.095,
5358,-0.065,0.095,
5359,-0.07,0.085,
5360,-0.04,0.095,
5361,-0.02,0.115,
5362,-0.03,0.095,
5363,-0.055,0.07,
5364,-0.07,0.065,
5365,-0.035,0.095,
5366,-0.035,0.105,
5367,-0.045,0.07,
5368,-0.075,0.05,
5369,-0.085,0.075,
5370,-0.055,0.08,
5371,0.015,0.065,
5372,0.095,0.05,
5373,0.175,0.07,
5374,0.27,0.08,
5375,0.37,0.065,
5376,0.475,0.06,
5377,0.6,0.095,
5378,0.77,0.125,
5379,0.925,0.105,
5380,1.065,0.075,
5381,1.19,0.075,N
5382,1.29,0.12,
5383,1.3,0.115,
5384,1.24,0.1,
5385,1.1,0.1,
5386,0.82,0.12,
5387,0.375,0.12,
5388,-0.02,0.105,
5389,-0.23,0.125,
5390,-0.305,0.12,
5391,-0.32,0.145,
5392,-0.33,0.11,
5393,-0.325,0.12,
5394,-0.26,0.135,
5395,-0.18,0.135,
5396,-0.125,0.1,
5397,-0.13,0.1,
5398,-0.125,0.125,
5399,-0.135,0.105,
5400,-0.155,0.1,
5401,-0.165,0.1,
5402,-0.175,0.11,
5403,-0.185,0.1,
5404,-0.2,0.07,
5405,-0.225,0.05,
5406,-0.22,0.07,
5407,-0.185,0.09,
5408,-0.14,0.07,
5409,-0.14,0.06,
5410,-0.115,0.055,
5411,-0.125,0.065,
5412,-0.15,0.05,
5413,-0.17,0.035,
5414,-0.195,0.055,
5415,-0.19,0.075,
5416,-0.175,0.065,
5417,-0.17,0.04,
5418,-0.155,0.065,
5419,-0.14,0.085,
5420,-0.125,0.08,
5421,-0.125,0.055,
5422,-0.145,0.05,
5423,-0.155,0.08,
5424,-0.15,0.075,
5425,-0.135,0.065,
5426,-0.12,0.07,
5427,-0.12,0.085,
5428,-0.11,0.04,
5429,-0.125,0.03,
5430,-0.11,0.035,
5431,-0.11,0.06,
5432,-0.065,0.07,
5433,-0.055,0.05,
5434,-0.06,0.035,
5435,-0.085,0.04,
5436,-0.08,0.035,
5437,-0.08,0.03,
5438,-0.095,0.03,
5439,-0.1,0.05,
5440,-0.105,0.03,
5441,-0.105,0.02,
5442,-0.075,0.025,
5443,-0.045,0.055,
5444,-0.035,0.045,
5445,-0.02,0.035,
5446,-0.01,0.02,
5447,0.0,0.05,
5448,0.01,0.04,
5449,0.005,0.03,
5450,0.005,0.03,
5451,0.025,0.045,
5452,0.04,0.025,
5453,0.065,0.01,
5454,0.085,0.01,
5455,0.09,0.05,
5456,0.095,0.04,
5457,0.095,0.01,
5458,0.095,0.005,
5459,0.1,0.02,
5460,0.11,0.025,
5461,0.085,0.0,
5462,0.07,0.02,
5463,0.08,0.03,
5464,0.11,0.02,
5465,0.145,-0.005,
5466,0.165,0.005,
5467,0.19,0.045,
5468,0.19,0.055,
5469,0.175,0.03,
5470,0.15,0.01,
5471,0.13,0.02,
5472,0.115,0.045,
5473,0.115,0.035,
5474,0.12,0.015,
5475,0.105,0.055,
5476,0.12,0.045,
5477,0.13,0.02,
5478,0.13,0.02,
5479,0.13,0.045,
5480,0.1,0.07,
5481,0.085,0.055,
5482,0.085,0.015,
5483,0.08,0.03,
5484,0.06,0.06,
5485,0.055,0.04,
5486,0.05,0.025,
5487,0.05,0.045,
5488,0.05,0.045,
5489,0.04,0.03,
5490,0.045,0.035,
5491,0.06,0.07,
5492,0.055,0.08,
5493,0.035,0.05,
5494,-0.01,0.025,
5495,-0.015,0.045,
5496,0.0,0.065,
5497,0.03,0.05,
5498,0.04,0.04,
5499,0.035,0.06,
5500,0.01,0.05,
5501,-0.03,0.02,
5502,-0.02,0.04,
5503,-0.005,0.07,
5504,0.015,0.08,
5505,0.01,0.055,
5506,0.0,0.035,
5507,-0.04,0.065,
5508,-0.04,0.075,
5509,-0.04,0.05,
5510,-0.03,0.055,
5511,-0.02,0.08,
5512,-0.01,0.075,
5513,0.0,0.055,
5514,-0.005,0.06,
5515,0.005,0.08,
5516,0.02,0.11,
5517,0.01,0.075,
5518,-0.005,0.045,
5519,-0.02,0.07,
5520,-0.03,0.08,
5521,-0.025,0.085,
5522,-0.02,0.07,
5523,0.01,0.075,
5524,0.005,0.09,
5525,0.0,0.07,
5526,-0.005,0.06,
5527,-0.01,0.085,
5528,-0.015,0.095,
5529,-0.03,0.095,
5530,-0.005,0.06,
5531,0.02,0.075,
5532,0.01,0.1,
5533,0.01,0.105,
5534,0.025,0.085,
5535,0.02,0.085,
5536,0.055,0.1,
5537,0.07,0.095,
5538,0.075,0.085,
5539,0.085,0.095,
5540,0.09,0.115,
5541,0.09,0.12,
5542,0.07,0.08,
5543,0.035,0.065,
5544,0.0,0.09,
5545,-0.01,0.105,
5546,0.01,0.1,
5547,0.03,0.08,
5548,0.035,0.075,
5549,0.02,0.09,
5550,0.005,0.085,
5551,-0.02,0.065,
5552,-0.025,0.08,
5553,-0.035,0.085,
5554,-0.025,0.08,
5555,-0.03,0.05,
5556,-0.055,0.055,
5557,-0.035,0.085,
5558,-0.01,0.1,
5559,0.01,0.065,
5560,0.015,0.05,
5561,-0.005,0.055,
5562,0.0,0.07,
5563,0.005,0.085,
5564,0.005,0.065,
5565,0.01,0.055,
5566,0.005,0.085,
5567,-0.015,0.075,
5568,-0.02,0.06,
5569,-0.035,0.055,
5570,-0.03,0.085,
5571,-0.01,0.075,
5572,-0.02,0.055,
5573,-0.035,0.045,
5574,-0.04,0.09,
5575,-0.06,0.085,
5576,-0.02,0.065,
5577,-0.01,0.055,
5578,-0.015,0.065,
5579,-0.07,0.06,
5580,-0.085,0.055,
5581,-0.085,0.06,
5582,-0.055,0.08,
5583,-0.035,0.085,
5584,-0.05,0.06,
5585,-0.07,0.035,
5586,-0.06,0.06,
5587,-0.04,0.085,
5588,-0.025,0.085,
5589,-0.01,0.055,
5590,-0.03,0.045,
5591,-0.07,0.06,
5592,-0.09,0.065,
5593,-0.07,0.055,
5594,0.0,0.035,
5595,0.075,0.055,
5596,0.165,0.045,
5597,0.235,0.04,
5598,0.325,0.035,
5599,0.415,0.055,
5600,0.535,0.075,
5601,0.65,0.06,
5602,0.77,0.045,
5603,0.92,0.045,
5604,1.035,0.075,
5605,1.16,0.075,N
5606,1.245,0.065,
5607,1.265,0.055,
5608,1.22,0.07,
5609,1.08,0.075,
5610,0.87,0.07,
5611,0.52,0.07,
5612,0.17,0.1,
5613,-0.055,0.105,
5614,-0.165,0.09,
5615,-0.225,0.06,
5616,-0.26,0.08,
5617,-0.255,0.105,
5618,-0.2,0.1,
5619,-0.145,0.07,
5620,-0.08,0.06,
5621,-0.05,0.075,
5622,-0.07,0.07,
5623,-0.08,0.055,
5624,-0.1,0.05,
5625,-0.12,0.065,
5626,-0.145,0.06,
5627,-0.15,0.04,
5628,-0.15,0.02,
5629,-0.16,0.045,
5630,-0.165,0.06,
5631,-0.16,0.05,
5632,-0.14,0.01,
5633,-0.125,0.005,
5634,-0.105,0.04,
5635,-0.095,0.07,
5636,-0.085,0.045,
5637,-0.085,0.03,
5638,-0.09,0.035,
5639,-0.085,0.04,
5640,-0.08,0.025,
5641,-0.09,0.03,
5642,-0.085,0.02,
5643,-0.1,0.045,
5644,-0.12,0.04,
5645,-0.145,0.01,
5646,-0.125,0.02,
5647,-0.09,0.045,
5648,-0.085,0.03,
5649,-0.12,0.015,
5650,-0.16,0.005,
5651,-0.17,0.025,
5652,-0.15,0.045,
5653,-0.125,0.04,
5654,-0.095,0.02,
5655,-0.065,0.03,
5656,-0.05,0.03,
5657,-0.06,0.005,
5658,-0.085,0.005,
5659,-0.085,0.025,
5660,-0.08,0.035,
5661,-0.075,0.015,
5662,-0.065,0.005,
5663,-0.06,0.005,
5664,-0.075,0.02,
5665,-0.085,0.025,
5666,-0.115,0.01,
5667,-0.115,0.005,
5668,-0.085,0.025,
5669,-0.05,0.015,
5670,-0.04,0.005,
5671,-0.05,0.0,
5672,-0.07,0.025,
5673,-0.07,0.03,
5674,-0.045,0.01,
5675,-0.035,-0.02,
5676,-0.045,0.02,
5677,-0.035,0.04,
5678,-0.015,0.04,
5679,-0.01,0.01,
5680,0.005,0.005,
5681,-0.01,0.02,
5682,-0.005,0.01,
5683,0.005,0.005,
5684,0.015,0.015,
5685,0.02,0.03,
5686,0.035,0.015,
5687,0.07,0.0,
5688,0.11,0.025,
5689,0.12,0.025,
5690,0.12,0.02,
5691,0.095,0.005,
5692,0.05,-0.005,
5693,0.015,0.01,
5694,-0.005,0.015,
5695,0.025,0.015,
5696,0.075,0.01,
5697,0.085,0.01,
5698,0.075,0.005,
5699,0.07,-0.02,
5700,0.075,-0.015,
5701,0.085,0.01,
5702,0.075,0.03,
5703,0.035,0.015,
5704,0.015,-0.005,
5705,0.0,-0.005,
5706,-0.01,0.015,
5707,0.005,0.01,
5708,0.01,-0.005,
5709,0.01,-0.005,
5710,-0.005,0.0,
5711,-0.02,0.0,
5712,-0.035,0.0,
5713,-0.06,0.0,
5714,-0.065,0.02,
5715,-0.055,0.02,
5716,-0.055,-0.005,
5717,-0.06,-0.015,
5718,-0.065,0.01,
5719,-0.08,0.02,
5720,-0.085,0.025,
5721,-0.075,0.025,
5722,-0.065,0.0,
5723,-0.06,0.02,
5724,-0.095,0.03,
5725,-0.12,0.01,
5726,-0.115,0.03,
5727,-0.09,0.06,
5728,-0.075,0.03,
5729,-0.095,0.03,
5730,-0.085,0.04,
5731,-0.085,0.055,
5732,-0.095,0.07,
5733,-0.1,0.055,
5734,-0.12,0.045,
5735,-0.15,0.065,
5736,-0.145,0.075,
5737,-0.13,0.065,
5738,-0.085,0.075,
5739,-0.07,0.085,
5740,-0.09,0.07,
5741,-0.145,0.04,
5742,-0.175,0.05,
5743,-0.17,0.085,
5744,-0.135,0.095,
5745,-0.105,0.07,
5746,-0.085,0.055,
5747,-0.09,0.06,
5748,-0.085,0.065,
5749,-0.075,0.065,
5750,-0.075,0.08,
5751,-0.07,0.095,
5752,-0.065,0.085,
5753,-0.075,0.065,
5754,-0.045,0.085,
5755,-0.045,0.095,
5756,-0.025,0.08,
5757,-0.02,0.06,
5758,-0.03,0.045,
5759,-0.04,0.065,
5760,-0.075,0.07,
5761,-0.07,0.055,
5762,-0.08,0.06,
5763,-0.08,0.07,
5764,-0.075,0.06,
5765,-0.08,0.03,
5766,-0.085,0.025,
5767,-0.065,0.05,
5768,-0.045,0.075,
5769,-0.035,0.07,
5770,-0.035,0.035,
5771,-0.055,0.035,
5772,-0.085,0.05,
5773,-0.1,0.06,
5774,-0.08,0.04,
5775,-0.07,0.025,
5776,-0.08,0.045,
5777,-0.085,0.04,
5778,-0.105,0.035,
5779,-0.12,0.035,
5780,-0.125,0.06,
5781,-0.13,0.055,
5782,-0.12,0.035,
5783,-0.115,0.005,
5784,-0.115,0.03,
5785,-0.115,0.06,
5786,-0.1,0.06,
5787,-0.095,0.035,
5788,-0.1,0.02,
5789,-0.115,0.04,
5790,-0.125,0.045,
5791,-0.105,0.02,
5792,-0.1,0.02,
5793,-0.09,0.05,
5794,-0.105,0.055,
5795,-0.12,0.02,
5796,-0.12,0.015,
5797,-0.12,0.035,
5798,-0.105,0.045,
5799,-0.105,0.025,
5800,-0.1,0.005,
5801,-0.11,0.015,
5802,-0.11,0.05,
5803,-0.1,0.05,
5804,-0.115,0.03,
5805,-0.13,0.02,
5806,-0.145,0.03,
5807,-0.14,0.02,
5808,-0.105,-0.005,
5809,-0.08,0.0,
5810,-0.05,0.025,
5811,-0.015,0.035,
5812,0.02,0.0,
5813,0.08,-0.01,
5814,0.205,0.02,
5815,0.345,0.06,
5816,0.465,0.035,
5817,0.575,0.015,
5818,0.675,0.01,
5819,0.81,0.025,
5820,0.93,0.035,
5821,1.03,0.035,N
5822,1.075,0.04,
5823,1.035,0.045,
5824,0.935,0.06,
5825,0.815,0.035,
5826,0.645,0.02,
5827,0.4,0.05,
5828,0.105,0.09,
5829,-0.11,0.1,
5830,-0.245,0.07,
5831,-0.33,0.08,
5832,-0.35,0.105,
5833,-0.335,0.115,
5834,-0.29,0.08,
5835,-0.255,0.07,
5836,-0.25,0.075,
5837,-0.245,0.085,
5838,-0.22,0.085,
5839,-0.19,0.08,
5840,-0.205,0.09,
5841,-0.24,0.095,
5842,-0.305,0.07,
5843,-0.32,0.03,
5844,-0.31,0.035,
5845,-0.28,0.07,
5846,-0.275,0.07,
5847,-0.285,0.055,
5848,-0.285,0.035,
5849,-0.295,0.055,
5850,-0.26,0.07,
5851,-0.245,0.045,
5852,-0.24,0.045,
5853,-0.24,0.06,
5854,-0.25,0.07,
5855,-0.25,0.055,
5856,-0.245,0.05,
5857,-0.22,0.055,
5858,-0.205,0.09,
5859,-0.205,0.08,
5860,-0.205,0.05,
5861,-0.22,0.025,
5862,-0.225,0.055,
5863,-0.21,0.075,
5864,-0.19,0.06,
5865,-0.2,0.04,
5866,-0.215,0.05,
5867,-0.2,0.055,
5868,-0.18,0.06,
5869,-0.18,0.04,
5870,-0.185,0.045,
5871,-0.195,0.065,
5872,-0.195,0.06,
5873,-0.19,0.03,
5874,-0.18,0.025,
5875,-0.17,0.06,
5876,-0.185,0.07,
5877,-0.185,0.045,
5878,-0.195,0.015,
5879,-0.175,0.035,
5880,-0.155,0.065,
5881,-0.135,0.07,
5882,-0.115,0.05,
5883,-0.095,0.065,
5884,-0.085,0.065,
5885,-0.12,0.055,
5886,-0.155,0.04,
5887,-0.165,0.035,
5888,-0.175,0.06,
5889,-0.145,0.075,
5890,-0.11,0.06,
5891,-0.105,0.025,
5892,-0.095,0.05,
5893,-0.1,0.075,
5894,-0.07,0.07,
5895,-0.05,0.04,
5896,-0.065,0.03,
5897,-0.06,0.05,
5898,-0.045,0.065,
5899,-0.03,0.065,
5900,-0.02,0.055,
5901,-0.02,0.065,
5902,-0.04,0.07,
5903,-0.055,0.065,
5904,-0.04,0.035,
5905,0.0,0.045,
5906,0.015,0.075,
5907,0.01,0.075,
5908,0.025,0.045,
5909,0.03,0.04,
5910,0.045,0.075,
5911,0.06,0.075,
5912,0.06,0.075,
5913,0.05,0.04,
5914,0.035,0.025,
5915,0.015,0.055,
5916,0.01,0.075,
5917,0.005,0.06,
5918,0.005,0.05,
5919,0.015,0.07,
5920,0.015,0.065,
5921,0.015,0.045,
5922,-0.005,0.025,
5923,-0.015,0.055,
5924,-0.02,0.07,
5925,-0.025,0.06,
5926,-0.045,0.03,
5927,-0.065,0.03,
5928,-0.065,0.07,
5929,-0.065,0.085,
5930,-0.05,0.06,
5931,-0.045,0.03,
5932,-0.065,0.04,
5933,-0.065,0.06,
5934,-0.07,0.06,
5935,-0.06,0.03,
5936,-0.04,0.035,
5937,-0.035,0.06,
5938,-0.03,0.06,
5939,-0.045,0.035,
5940,-0.05,0.02,
5941,-0.09,0.05,
5942,-0.105,0.075,
5943,-0.115,0.065,
5944,-0.11,0.02,
5945,-0.115,0.02,
5946,-0.13,0.06,
5947,-0.155,0.065,
5948,-0.175,0.04,
5949,-0.21,0.03,
5950,-0.215,0.045,
5951,-0.2,0.055,
5952,-0.175,0.045,
5953,-0.15,0.035,
5954,-0.14,0.055,
5955,-0.14,0.065,
5956,-0.15,0.065,
5957,-0.17,0.035,
5958,-0.165,0.025,
5959,-0.16,0.045,
5960,-0.165,0.07,
5961,-0.165,0.06,
5962,-0.185,0.035,
5963,-0.2,0.025,
5964,-0.205,0.055,
5965,-0.2,0.08,
5966,-0.195,0.06,
5967,-0.2,0.045,
5968,-0.2,0.045,
5969,-0.21,0.06,
5970,-0.21,0.065,
5971,-0.22,0.05,
5972,-0.225,0.055,
5973,-0.245,0.075,
5974,-0.255,0.075,
5975,-0.255,0.045,
5976,-0.25,0.035,
5977,-0.23,0.07,
5978,-0.22,0.08,
5979,-0.23,0.075,
5980,-0.235,0.045,
5981,-0.245,0.06,
5982,-0.25,0.085,
5983,-0.24,0.09,
5984,-0.24,0.06,
5985,-0.225,0.04,
5986,-0.235,0.055,
5987,-0.22,0.08,
5988,-0.23,0.065,
5989,-0.225,0.055,
5990,-0.215,0.065,
5991,-0.2,0.085,
5992,-0.21,0.07,
5993,-0.235,0.045,
5994,-0.275,0.04,
5995,-0.285,0.07,
5996,-0.275,0.08,
5997,-0.25,0.07,
5998,-0.25,0.045,
5999,-0.265,0.05,
6000,-0.26,0.08,
6001,-0.24,0.1,
6002,-0.24,0.075,
6003,-0.23,0.06,
6004,-0.23,0.06,
6005,-0.235,0.08,
6006,-0.22,0.075,
6007,-0.2,0.075,
6008,-0.18,0.065,
6009,-0.17,0.085,
6010,-0.155,0.1,
6011,-0.165,0.075,
6012,-0.175,0.06,
6013,-0.18,0.075,
6014,-0.17,0.105,
6015,-0.165,0.1,
6016,-0.15,0.075,
6017,-0.155,0.07,
6018,-0.15,0.095,
6019,-0.14,0.12,
6020,-0.145,0.12,
6021,-0.145,0.085,
6022,-0.15,0.075,
6023,-0.16,0.095,
6024,-0.15,0.115,
6025,-0.165,0.135,
6026,-0.17,0.135,
6027,-0.185,0.14,
6028,-0.18,0.11,
6029,-0.19,0.09,
6030,-0.195,0.105,
6031,-0.18,0.11,
6032,-0.16,0.11,
6033,-0.17,0.095,
6034,-0.175,0.08,
6035,-0.205,0.08,
6036,-0.195,0.105,
6037,-0.185,0.11,
6038,-0.17,0.105,
6039,-0.17,0.11,
6040,-0.18,0.1,
6041,-0.185,0.09,
6042,-0.175,0.08,
6043,-0.155,0.095,
6044,-0.155,0.11,
6045,-0.15,0.12,
6046,-0.17,0.095,
6047,-0.19,0.07,
6048,-0.2,0.1,
6049,-0.19,0.11,
6050,-0.19,0.12,
6051,-0.19,0.09,
6052,-0.205,0.09,
6053,-0.21,0.105,
6054,-0.2,0.115,
6055,-0.17,0.11,
6056,-0.15,0.1,
6057,-0.145,0.1,
6058,-0.15,0.1,
6059,-0.19,0.085,
6060,-0.215,0.075,
6061,-0.23,0.08,
6062,-0.235,0.105,
6063,-0.21,0.115,
6064,-0.205,0.09,
6065,-0.235,0.075,
6066,-0.245,0.095,
6067,-0.225,0.1,
6068,-0.2,0.08,
6069,-0.195,0.055,
6070,-0.215,0.065,
6071,-0.23,0.085,
6072,-0.24,0.085,
6073,-0.25,0.065,
6074,-0.24,0.065,
6075,-0.235,0.075,
6076,-0.19,0.06,
6077,-0.13,0.04,
6078,-0.05,0.03,
6079,0.04,0.055,
6080,0.13,0.075,
6081,0.205,0.07,
6082,0.3,0.04,
6083,0.39,0.045,
6084,0.51,0.065,
6085,0.635,0.08,
6086,0.755,0.07,
6087,0.845,0.055,N
6088,0.915,0.075,
6089,0.92,0.08,
6090,0.84,0.075,
6091,0.705,0.085,
6092,0.52,0.105,
6093,0.25,0.12,
6094,-0.065,0.105,
6095,-0.3,0.085,
6096,-0.43,0.115,
6097,-0.495,0.145,
6098,-0.52,0.13,
6099,-0.495,0.115,
6100,-0.45,0.105,
6101,-0.41,0.115,
6102,-0.385,0.095,
6103,-0.36,0.08,
6104,-0.33,0.085,
6105,-0.3,0.105,
6106,-0.28,0.095,
6107,-0.3,0.065,
6108,-0.33,0.065,
6109,-0.335,0.09,
6110,-0.34,0.065,
6111,-0.35,0.04,
6112,-0.34,0.04,
6113,-0.345,0.055,
6114,-0.345,0.06,
6115,-0.335,0.06,
6116,-0.325,0.055,
6117,-0.315,0.065,
6118,-0.31,0.05,
6119,-0.325,0.035,
6120,-0.325,0.035,
6121,-0.305,0.06,
6122,-0.29,0.08,
6123,-0.3,0.075,
6124,-0.31,0.05,
6125,-0.31,0.065,
6126,-0.29,0.075,
6127,-0.295,0.06,
6128,-0.295,0.04,
6129,-0.305,0.05,
6130,-0.31,0.065,
6131,-0.305,0.045,
6132,-0.31,0.05,
6133,-0.27,0.07,
6134,-0.245,0.07,
6135,-0.24,0.06,
6136,-0.265,0.03,
6137,-0.295,0.05,
6138,-0.305,0.065,
6139,-0.3,0.075,
6140,-0.285,0.075,
6141,-0.28,0.085,
6142,-0.285,0.075,
6143,-0.275,0.055,
6144,-0.255,0.04,
6145,-0.21,0.07,
6146,-0.19,0.085,
6147,-0.195,0.08,
6148,-0.22,0.06,
6149,-0.25,0.07,
6150,-0.25,0.085,
6151,-0.22,0.085,
6152,-0.19,0.07,
6153,-0.175,0.07,
6154,-0.175,0.08,
6155,-0.18,0.075,
6156,-0.18,0.07,
6157,-0.19,0.08,
6158,-0.175,0.095,
6159,-0.18,0.08,
6160,-0.18,0.055,
6161,-0.175,0.065,
6162,-0.165,0.08,
6163,-0.155,0.09,
6164,-0.14,0.085,
6165,-0.15,0.09,
6166,-0.15,0.08,
6167,-0.165,0.055,
6168,-0.16,0.06,
6169,-0.145,0.085,
6170,-0.125,0.105,
6171,-0.13,0.1,
6172,-0.125,0.075,
6173,-0.13,0.09,
6174,-0.11,0.1,
6175,-0.075,0.095,
6176,-0.065,0.085,
6177,-0.095,0.1,
6178,-0.095,0.105,
6179,-0.09,0.1,
6180,-0.08,0.1,
6181,-0.085,0.125,
6182,-0.095,0.12,
6183,-0.115,0.1,
6184,-0.13,0.075,
6185,-0.135,0.09,
6186,-0.12,0.11,
6187,-0.105,0.11,
6188,-0.115,0.1,
6189,-0.125,0.11,
6190,-0.13,0.11,
6191,-0.12,0.085,
6192,-0.11,0.075,
6193,-0.1,0.105,
6194,-0.105,0.125,
6195,-0.14,0.115,
6196,-0.19,0.095,
6197,-0.215,0.1,
6198,-0.215,0.105,
6199,-0.2,0.1,
6200,-0.185,0.08,
6201,-0.185,0.085,
6202,-0.195,0.105,
6203,-0.21,0.095,
6204,-0.215,0.085,
6205,-0.225,0.1,
6206,-0.205,0.115,
6207,-0.205,0.085,
6208,-0.195,0.07,
6209,-0.205,0.085,
6210,-0.22,0.11,
6211,-0.23,0.11,
6212,-0.23,0.095,
6213,-0.215,0.1,
6214,-0.205,0.095,
6215,-0.225,0.06,
6216,-0.205,0.06,
6217,-0.2,0.08,
6218,-0.19,0.1,
6219,-0.195,0.085,
6220,-0.22,0.07,
6221,-0.26,0.085,
6222,-0.27,0.09,
6223,-0.255,0.085,
6224,-0.225,0.06,
6225,-0.235,0.085,
6226,-0.235,0.085,
6227,-0.26,0.065,
6228,-0.27,0.06,
6229,-0.27,0.075,
6230,-0.25,0.085,
6231,-0.23,0.065,
6232,-0.235,0.04,
6233,-0.245,0.045,
6234,-0.245,0.07,
6235,-0.235,0.08,
6236,-0.23,0.05,
6237,-0.235,0.055,
6238,-0.245,0.07,
6239,-0.25,0.04,
6240,-0.25,0.025,
6241,-0.23,0.04,
6242,-0.215,0.06,
6243,-0.21,0.055,
6244,-0.21,0.025,
6245,-0.225,0.035,
6246,-0.21,0.065,
6247,-0.19,0.055,
6248,-0.175,0.03,
6249,-0.185,0.035,
6250,-0.18,0.055,
6251,-0.18,0.055,
6252,-0.175,0.035,
6253,-0.145,0.045,
6254,-0.12,0.07,
6255,-0.1,0.06,
6256,-0.105,0.015,
6257,-0.125,0.01,
6258,-0.1,0.045,
6259,-0.09,0.06,
6260,-0.05,0.03,
6261,-0.05,0.025,
6262,-0.035,0.025,
6263,-0.04,0.025,
6264,-0.015,0.0,
6265,0.01,0.0,
6266,0.07,0.01,
6267,0.12,0.005,
6268,0.155,-0.015,
6269,0.16,-0.04,
6270,0.205,-0.02,
6271,0.265,-0.005,
6272,0.29,-0.05,
6273,0.28,-0.065,
6274,0.26,-0.065,
6275,0.215,-0.045,
6276,0.07,-0.065,
6277,-0.2,-0.07,
6278,-0.6,-0.05,
6279,-1.07,-0.04,
6280,-1.45,-0.07,
6281,-1.72,-0.085,
6282,-1.865,-0.055,
6283,-1.955,-0.02,
6284,-2.0,-0.025,
6285,-2.025,-0.035,V
6286,-2.015,-0.03,
6287,-1.98,0.005,
6288,-1.89,0.0,
6289,-1.75,0.0,
6290,-1.615,0.02,
6291,-1.545,0.045,
6292,-1.48,0.055,
6293,-1.405,0.05,
6294,-1.325,0.06,
6295,-1.25,0.08,
6296,-1.17,0.08,
6297,-1.055,0.06,
6298,-0.97,0.045,
6299,-0.895,0.06,
6300,-0.835,0.09,
6301,-0.79,0.085,
6302,-0.725,0.055,
6303,-0.685,0.065,
6304,-0.64,0.085,
6305,-0.615,0.055,
6306,-0.585,0.04,
6307,-0.54,0.045,
6308,-0.49,0.085,
6309,-0.465,0.085,
6310,-0.45,0.06,
6311,-0.425,0.04,
6312,-0.37,0.065,
6313,-0.295,0.1,
6314,-0.215,0.085,
6315,-0.15,0.06,
6316,-0.1,0.065,
6317,-0.07,0.095,
6318,-0.025,0.105,
6319,0.015,0.085,
6320,0.065,0.1,
6321,0.105,0.115,
6322,0.125,0.11,
6323,0.14,0.09,
6324,0.15,0.09,
6325,0.185,0.105,
6326,0.21,0.135,
6327,0.235,0.125,
6328,0.24,0.1,
6329,0.255,0.105,
6330,0.27,0.135,
6331,0.29,0.125,
6332,0.325,0.105,
6333,0.34,0.095,
6334,0.35,0.105,
6335,0.355,0.12,
6336,0.375,0.115,
6337,0.415,0.105,
6338,0.455,0.12,
6339,0.48,0.14,
6340,0.49,0.115,
6341,0.5,0.095,
6342,0.51,0.12,
6343,0.535,0.145,
6344,0.545,0.14,
6345,0.555,0.12,
6346,0.575,0.12,
6347,0.6,0.14,
6348,0.62,0.15,
6349,0.645,0.135,
6350,0.66,0.115,
6351,0.685,0.125,
6352,0.705,0.13,
6353,0.71,0.145,
6354,0.725,0.125,
6355,0.72,0.125,
6356,0.73,0.15,
6357,0.735,0.155,
6358,0.725,0.135,
6359,0.73,0.11,
6360,0.75,0.13,
6361,0.75,0.16,
6362,0.77,0.17,
6363,0.73,0.15,
6364,0.73,0.13,
6365,0.705,0.15,
6366,0.695,0.16,
6367,0.67,0.14,
6368,0.67,0.12,
6369,0.66,0.14,
6370,0.66,0.15,
6371,0.625,0.13,
6372,0.61,0.12,
6373,0.605,0.145,
6374,0.575,0.17,
6375,0.555,0.15,
6376,0.525,0.115,
6377,0.49,0.11,
6378,0.46,0.145,
6379,0.445,0.16,
6380,0.43,0.145,
6381,0.395,0.135,
6382,0.36,0.15,
6383,0.335,0.15,
6384,0.29,0.145,
6385,0.265,0.14,
6386,0.245,0.145,
6387,0.225,0.16,
6388,0.205,0.155,
6389,0.165,0.13,
6390,0.145,0.125,
6391,0.125,0.165,
6392,0.1,0.17,
6393,0.07,0.14,
6394,0.06,0.115,
6395,0.055,0.12,
6396,0.055,0.155,
6397,0.035,0.165,
6398,0.025,0.145,
6399,0.025,0.15,
6400,0.005,0.155,
6401,-0.02,0.15,
6402,-0.03,0.115,
6403,-0.05,0.12,
6404,-0.035,0.135,
6405,-0.04,0.15,
6406,-0.05,0.125,
6407,-0.065,0.125,
6408,-0.065,0.14,
6409,-0.075,0.165,
6410,-0.075,0.135,
6411,-0.11,0.115,
6412,-0.105,0.11,
6413,-0.115,0.135,
6414,-0.11,0.14,
6415,-0.085,0.12,
6416,-0.075,0.135,
6417,-0.09,0.155,
6418,-0.105,0.14,
6419,-0.095,0.105,
6420,-0.085,0.1,
6421,-0.065,0.145,
6422,-0.055,0.145,
6423,-0.08,0.13,
6424,-0.1,0.095,
6425,-0.1,0.1,
6426,-0.095,0.14,
6427,-0.09,0.135,
6428,-0.08,0.095,
6429,-0.08,0.095,
6430,-0.095,0.12,
6431,-0.105,0.115,
6432,-0.105,0.11,
6433,-0.105,0.105,
6434,-0.105,0.125,
6435,-0.105,0.135,
6436,-0.115,0.095,
6437,-0.135,0.07,
6438,-0.13,0.095,
6439,-0.13,0.12,
6440,-0.12,0.105,
6441,-0.125,0.1,
6442,-0.14,0.085,
6443,-0.145,0.11,
6444,-0.135,0.1,
6445,-0.135,0.085,
6446,-0.13,0.085,
6447,-0.13,0.105,
6448,-0.145,0.1,
6449,-0.16,0.07,
6450,-0.15,0.075,
6451,-0.135,0.105,
6452,-0.115,0.1,
6453,-0.115,0.085,
6454,-0.13,0.07,
6455,-0.155,0.08,
6456,-0.16,0.095,
6457,-0.17,0.085,
6458,-0.155,0.075,
6459,-0.155,0.09,
6460,-0.175,0.095,
6461,-0.205,0.08,
6462,-0.205,0.06,
6463,-0.2,0.095,
6464,-0.18,0.115,
6465,-0.155,0.1,
6466,-0.155,0.07,
6467,-0.17,0.075,
6468,-0.17,0.11,
6469,-0.165,0.09,
6470,-0.155,0.08,
6471,-0.155,0.075,
6472,-0.155,0.09,
6473,-0.15,0.09,
6474,-0.14,0.07,
6475,-0.14,0.08,
6476,-0.125,0.11,
6477,-0.135,0.115,
6478,-0.13,0.08,
6479,-0.13,0.07,
6480,-0.125,0.095,
6481,-0.115,0.115,
6482,-0.105,0.105,
6483,-0.11,0.105,
6484,-0.125,0.105,
6485,-0.13,0.095,
6486,-0.11,0.085,
6487,-0.105,0.095,
6488,-0.12,0.11,
6489,-0.15,0.105,
6490,-0.175,0.075,
6491,-0.175,0.06,
6492,-0.16,0.09,
6493,-0.17,0.105,
6494,-0.175,0.085,
6495,-0.18,0.07,
6496,-0.185,0.085,
6497,-0.19,0.085,
6498,-0.195,0.07,
6499,-0.185,0.065,
6500,-0.175,0.1,
6501,-0.18,0.1,
6502,-0.185,0.065,
6503,-0.195,0.05,
6504,-0.18,0.075,
6505,-0.175,0.085,
6506,-0.185,0.07,
6507,-0.185,0.08,
6508,-0.195,0.095,
6509,-0.175,0.09,
6510,-0.17,0.075,
6511,-0.165,0.07,
6512,-0.16,0.095,
6513,-0.195,0.095,
6514,-0.225,0.075,
6515,-0.225,0.06,
6516,-0.235,0.09,
6517,-0.225,0.105,
6518,-0.21,0.095,
6519,-0.205,0.08,
6520,-0.195,0.075,
6521,-0.21,0.08,
6522,-0.205,0.075,
6523,-0.205,0.09,
6524,-0.195,0.105,
6525,-0.21,0.1,
6526,-0.205,0.075,
6527,-0.22,0.065,
6528,-0.22,0.1,
6529,-0.22,0.105,
6530,-0.205,0.09,
6531,-0.205,0.1,
6532,-0.23,0.1,
6533,-0.25,0.085,
6534,-0.27,0.065,
6535,-0.255,0.085,
6536,-0.225,0.095,
6537,-0.16,0.08,
6538,-0.09,0.065,
6539,-0.015,0.07,
6540,0.09,0.09,
6541,0.2,0.095,
6542,0.325,0.08,
6543,0.43,0.1,
6544,0.55,0.1,
6545,0.675,0.1,
6546,0.825,0.095,
6547,0.975,0.125,N
6548,1.07,0.13,
6549,1.085,0.12,
6550,1.015,0.11,
6551,0.865,0.12,
6552,0.605,0.13,
6553,0.205,0.14,
6554,-0.175,0.155,
6555,-0.38,0.185,
6556,-0.44,0.175,
6557,-0.445,0.135,
6558,-0.39,0.145,
6559,-0.32,0.17,
6560,-0.275,0.16,
6561,-0.26,0.15,
6562,-0.28,0.165,
6563,-0.3,0.175,
6564,-0.305,0.145,
6565,-0.305,0.14,
6566,-0.31,0.15,
6567,-0.345,0.145,
6568,-0.345,0.105,
6569,-0.35,0.105,
6570,-0.37,0.13,
6571,-0.36,0.125,
6572,-0.335,0.105,
6573,-0.305,0.125,
6574,-0.305,0.12,
6575,-0.305,0.09,
6576,-0.305,0.09,
6577,-0.31,0.12,
6578,-0.3,0.135,
6579,-0.31,0.105,
6580,-0.315,0.08,
6581,-0.32,0.095,
6582,-0.31,0.11,
6583,-0.3,0.09,
6584,-0.3,0.1,
6585,-0.305,0.11,
6586,-0.31,0.095,
6587,-0.315,0.07,
6588,-0.31,0.065,
6589,-0.3,0.1,
6590,-0.29,0.095,
6591,-0.295,0.07,
6592,-0.3,0.085,
6593,-0.3,0.08,
6594,-0.3,0.07,
6595,-0.28,0.08,
6596,-0.26,0.09,
6597,-0.265,0.1,
6598,-0.275,0.06,
6599,-0.29,0.045,
6600,-0.28,0.08,
6601,-0.26,0.095,
6602,-0.24,0.07,
6603,-0.24,0.06,
6604,-0.25,0.075,
6605,-0.24,0.055,
6606,-0.24,0.05,
6607,-0.245,0.08,
6608,-0.23,0.1,
6609,-0.245,0.07,
6610,-0.25,0.055,
6611,-0.265,0.065,
6612,-0.255,0.07,
6613,-0.23,0.07,
6614,-0.205,0.065,
6615,-0.205,0.085,
6616,-0.19,0.08,
6617,-0.2,0.04,
6618,-0.195,0.06,
6619,-0.185,0.08,
6620,-0.19,0.08,
6621,-0.19,0.055,
6622,-0.175,0.055,
6623,-0.175,0.075,
6624,-0.17,0.065,
6625,-0.16,0.07,
6626,-0.155,0.075,
6627,-0.155,0.1,
6628,-0.145,0.065,
6629,-0.145,0.06,
6630,-0.15,0.075,
6631,-0.135,0.1,
6632,-0.125,0.085,
6633,-0.135,0.08,
6634,-0.14,0.085,
6635,-0.13,0.085,
6636,-0.12,0.075,
6637,-0.115,0.085,
6638,-0.095,0.115,
6639,-0.1,0.115,
6640,-0.11,0.085,
6641,-0.12,0.065,
6642,-0.12,0.085,
6643,-0.115,0.095,
6644,-0.105,0.085,
6645,-0.11,0.08,
6646,-0.125,0.1,
6647,-0.135,0.085,
6648,-0.15,0.095,
6649,-0.155,0.1,
6650,-0.155,0.11,
6651,-0.16,0.105,
6652,-0.15,0.075,
6653,-0.145,0.065,
6654,-0.14,0.105,
6655,-0.13,0.125,
6656,-0.13,0.105,
6657,-0.13,0.11,
6658,-0.125,0.11,
6659,-0.125,0.115,
6660,-0.12,0.105,
6661,-0.125,0.1,
6662,-0.12,0.12,
6663,-0.11,0.12,
6664,-0.095,0.11,
6665,-0.095,0.105,
6666,-0.085,0.125,
6667,-0.095,0.145,
6668,-0.065,0.12,
6669,-0.065,0.12,
6670,-0.085,0.125,
6671,-0.105,0.13,
6672,-0.13,0.13,
6673,-0.145,0.135,
6674,-0.14,0.135,
6675,-0.155,0.145,
6676,-0.165,0.115,
6677,-0.18,0.105,
6678,-0.195,0.13,
6679,-0.195,0.15,
6680,-0.16,0.14,
6681,-0.155,0.13,
6682,-0.16,0.125,
6683,-0.185,0.13,
6684,-0.18,0.105,
6685,-0.195,0.1,
6686,-0.185,0.1,
6687,-0.19,0.13,
6688,-0.19,0.11,
6689,-0.185,0.1,
6690,-0.185,0.1,
6691,-0.155,0.12,
6692,-0.135,0.12,
6693,-0.12,0.095,
6694,-0.11,0.075,
6695,-0.11,0.095,
6696,-0.095,0.115,
6697,-0.08,0.11,
6698,-0.05,0.1,
6699,-0.045,0.105,
6700,-0.06,0.09,
6701,-0.065,0.075,
6702,-0.1,0.06,
6703,-0.125,0.075,
6704,-0.12,0.075,
6705,-0.075,0.06,
6706,-0.08,0.03,
6707,-0.145,0.01,
6708,-0.22,0.01,
6709,-0.335,0.01,
6710,-0.54,-0.025,
6711,-0.865,-0.025,
6712,-1.235,-0.025,
6713,-1.585,-0.015,
6714,-1.89,-0.005,
6715,-2.085,-0.015,
6716,-2.155,0.02,
6717,-2.185,0.025,
6718,-2.2,0.005,V
6719,-2.2,-0.01,
6720,-2.14,0.02,
6721,-2.035,0.055,
6722,-1.92,0.065,
6723,-1.785,0.06,
6724,-1.685,0.09,
6725,-1.6,0.11,
6726,-1.515,0.13,
6727,-1.39,0.145,
6728,-1.26,0.135,
6729,-1.135,0.15,
6730,-1.04,0.165,
6731,-0.975,0.155,
6732,-0.925,0.155,
6733,-0.89,0.17,
6734,-0.825,0.175,
6735,-0.775,0.16,
6736,-0.745,0.135,
6737,-0.7,0.13,
6738,-0.665,0.155,
6739,-0.615,0.19,
6740,-0.55,0.17,
6741,-0.505,0.15,
6742,-0.46,0.15,
6743,-0.385,0.15,
6744,-0.32,0.155,
6745,-0.25,0.15,
6746,-0.195,0.15,
6747,-0.105,0.165,
6748,-0.05,0.165,
6749,0.0,0.15,
6750,0.055,0.16,
6751,0.105,0.18,
6752,0.125,0.18,
6753,0.14,0.16,
6754,0.175,0.15,
6755,0.185,0.145,
6756,0.19,0.175,
6757,0.2,0.18,
6758,0.235,0.165,
6759,0.255,0.165,
6760,0.28,0.165,
6761,0.295,0.155,
6762,0.295,0.145,
6763,0.305,0.155,
6764,0.345,0.18,
6765,0.37,0.18,
6766,0.38,0.155,
6767,0.39,0.145,
6768,0.4,0.16,
6769,0.405,0.175,
6770,0.43,0.15,
6771,0.435,0.135,
6772,0.445,0.15,
6773,0.45,0.145,
6774,0.455,0.155,
6775,0.49,0.155,
6776,0.525,0.165,
6777,0.55,0.165,
6778,0.57,0.16,
6779,0.575,0.135,
6780,0.58,0.14,
6781,0.59,0.175,
6782,0.62,0.185,
6783,0.635,0.17,
6784,0.64,0.15,
6785,0.64,0.15,
6786,0.625,0.145,
6787,0.64,0.13,
6788,0.645,0.145,
6789,0.645,0.165,
6790,0.64,0.155,
6791,0.63,0.13,
6792,0.615,0.135,
6793,0.615,0.16,
6794,0.61,0.145,
6795,0.605,0.125,
6796,0.585,0.105,
6797,0.565,0.11,
6798,0.54,0.14,
6799,0.52,0.135,
6800,0.53,0.12,
6801,0.52,0.13,
6802,0.515,0.125,
6803,0.48,0.105,
6804,0.44,0.095,
6805,0.43,0.12,
6806,0.405,0.14,
6807,0.375,0.145,
6808,0.345,0.105,
6809,0.315,0.1,
6810,0.285,0.125,
6811,0.26,0.135,
6812,0.25,0.11,
6813,0.215,0.095,
6814,0.195,0.115,
6815,0.155,0.115,
6816,0.115,0.1,
6817,0.085,0.1,
6818,0.07,0.125,
6819,0.075,0.12,
6820,0.065,0.085,
6821,0.045,0.08,
6822,0.015,0.115,
6823,0.0,0.12,
6824,-0.03,0.125,
6825,-0.04,0.12,
6826,-0.055,0.11,
6827,-0.08,0.115,
6828,-0.09,0.1,
6829,-0.095,0.105,
6830,-0.095,0.125,
6831,-0.105,0.125,
6832,-0.12,0.105,
6833,-0.135,0.095,
6834,-0.165,0.12,
6835,-0.17,0.13,
6836,-0.175,0.115,
6837,-0.175,0.1,
