,MLII,V1,symbol
0,-0.26,-0.21,
1,-0.26,-0.21,
2,-0.26,-0.21,
3,-0.26,-0.21,
4,-0.26,-0.21,
5,-0.26,-0.21,
6,-0.26,-0.21,
7,-0.26,-0.21,
8,-0.26,-0.195,
9,-0.25,-0.185,
10,-0.24,-0.175,
11,-0.225,-0.17,
12,-0.21,-0.18,
13,-0.2,-0.18,
14,-0.2,-0.19,
15,-0.2,-0.17,
16,-0.18,-0.18,
17,-0.17,-0.185,
18,-0.155,-0.185,
19,-0.165,-0.19,
20,-0.17,-0.195,
21,-0.175,-0.195,
22,-0.17,-0.175,
23,-0.165,-0.165,
24,-0.16,-0.16,
25,-0.17,-0.205,
26,-0.175,-0.26,
27,-0.185,-0.295,
28,-0.175,-0.295,
29,-0.17,-0.255,
30,-0.165,-0.24,
31,-0.175,-0.245,
32,-0.2,-0.26,
33,-0.205,-0.295,
34,-0.21,-0.3,
35,-0.21,-0.29,
36,-0.21,-0.28,
37,-0.225,-0.285,
38,-0.24,-0.285,
39,-0.25,-0.275,
40,-0.245,-0.265,
41,-0.245,-0.245,
42,-0.25,-0.245,
43,-0.255,-0.255,
44,-0.27,-0.255,
45,-0.29,-0.245,
46,-0.305,-0.23,
47,-0.31,-0.215,
48,-0.305,-0.2,
49,-0.305,-0.19,
50,-0.31,-0.2,
51,-0.31,-0.185,
52,-0.31,-0.18,
53,-0.295,-0.165,
54,-0.3,-0.175,
55,-0.32,-0.16,
56,-0.325,-0.155,
57,-0.325,-0.13,
58,-0.32,-0.125,
59,-0.305,-0.14,
60,-0.29,-0.155,+
61,-0.295,-0.155,
62,-0.29,-0.16,
63,-0.305,-0.14,
64,-0.295,-0.12,
65,-0.285,-0.09,
66,-0.295,-0.115,
67,-0.295,-0.13,
68,-0.3,-0.135,
69,-0.305,-0.125,
70,-0.285,-0.1,
71,-0.285,-0.085,
72,-0.28,-0.095,
73,-0.285,-0.11,
74,-0.29,-0.115,
75,-0.295,-0.095,
76,-0.295,-0.085,
77,-0.28,-0.075,
78,-0.275,-0.065,
79,-0.265,-0.065,
80,-0.255,-0.085,
81,-0.26,-0.085,
82,-0.245,-0.1,
83,-0.235,-0.105,
84,-0.235,-0.11,
85,-0.24,-0.14,
86,-0.24,-0.155,
87,-0.255,-0.165,
88,-0.25,-0.175,
89,-0.245,-0.19,
90,-0.245,-0.2,
91,-0.255,-0.21,
92,-0.26,-0.23,
93,-0.265,-0.22,
94,-0.26,-0.215,
95,-0.27,-0.205,
96,-0.275,-0.195,
97,-0.29,-0.205,
98,-0.3,-0.23,
99,-0.305,-0.235,
100,-0.31,-0.22,
101,-0.305,-0.215,
102,-0.29,-0.235,
103,-0.285,-0.26,
104,-0.3,-0.265,
105,-0.3,-0.265,
106,-0.295,-0.245,
107,-0.285,-0.225,
108,-0.285,-0.22,
109,-0.28,-0.23,
110,-0.29,-0.26,
111,-0.305,-0.26,
112,-0.3,-0.245,
113,-0.3,-0.23,
114,-0.305,-0.225,
115,-0.315,-0.235,
116,-0.335,-0.23,
117,-0.345,-0.2,
118,-0.34,-0.17,
119,-0.33,-0.155,
120,-0.325,-0.145,
121,-0.325,-0.145,
122,-0.33,-0.165,
123,-0.325,-0.175,
124,-0.315,-0.175,
125,-0.3,-0.155,
126,-0.305,-0.15,
127,-0.315,-0.145,
128,-0.335,-0.12,
129,-0.335,-0.1,
130,-0.325,-0.075,
131,-0.31,-0.08,
132,-0.305,-0.11,
133,-0.32,-0.145,
134,-0.33,-0.17,
135,-0.33,-0.17,
136,-0.31,-0.15,
137,-0.305,-0.14,
138,-0.31,-0.135,
139,-0.32,-0.135,
140,-0.335,-0.135,
141,-0.33,-0.115,
142,-0.315,-0.075,
143,-0.305,-0.05,
144,-0.265,-0.05,
145,-0.24,-0.09,
146,-0.21,-0.17,
147,-0.19,-0.235,
148,-0.17,-0.3,
149,-0.13,-0.355,
150,-0.08,-0.44,
151,0.005,-0.535,
152,0.1,-0.64,
153,0.185,-0.74,
154,0.305,-0.84,
155,0.43,-0.87,
156,0.58,-0.86,
157,0.705,-0.845,
158,0.765,-0.815,
159,0.835,-0.755,N
160,0.89,-0.625,
161,0.87,-0.485,
162,0.75,-0.36,
163,0.575,-0.275,
164,0.375,-0.255,
165,0.15,-0.26,
166,-0.03,-0.28,
167,-0.13,-0.28,
168,-0.18,-0.265,
169,-0.22,-0.255,
170,-0.23,-0.23,
171,-0.235,-0.205,
172,-0.215,-0.175,
173,-0.215,-0.175,
174,-0.22,-0.16,
175,-0.235,-0.175,
176,-0.255,-0.175,
177,-0.265,-0.165,
178,-0.275,-0.145,
179,-0.275,-0.125,
180,-0.295,-0.11,
181,-0.3,-0.09,
182,-0.305,-0.07,
183,-0.31,-0.05,
184,-0.3,-0.035,
185,-0.315,-0.02,
186,-0.325,-0.075,
187,-0.345,-0.17,
188,-0.335,-0.255,
189,-0.34,-0.27,
190,-0.32,-0.24,
191,-0.295,-0.2,
192,-0.285,-0.19,
193,-0.295,-0.185,
194,-0.315,-0.185,
195,-0.32,-0.185,
196,-0.325,-0.175,
197,-0.325,-0.16,
198,-0.325,-0.15,
199,-0.335,-0.145,
200,-0.325,-0.155,
201,-0.335,-0.145,
202,-0.32,-0.115,
203,-0.32,-0.105,
204,-0.31,-0.095,
205,-0.31,-0.08,
206,-0.3,-0.085,
207,-0.28,-0.08,
208,-0.255,-0.07,
209,-0.235,-0.065,
210,-0.21,-0.07,
211,-0.205,-0.08,
212,-0.2,-0.08,
213,-0.205,-0.07,
214,-0.215,-0.07,
215,-0.195,-0.045,
216,-0.195,-0.06,
217,-0.205,-0.115,
218,-0.21,-0.175,
219,-0.215,-0.18,
220,-0.21,-0.16,
221,-0.195,-0.15,
222,-0.175,-0.19,
223,-0.165,-0.23,
224,-0.175,-0.235,
225,-0.165,-0.23,
226,-0.16,-0.21,
227,-0.16,-0.21,
228,-0.16,-0.205,
229,-0.165,-0.22,
230,-0.17,-0.255,
231,-0.185,-0.3,
232,-0.2,-0.315,
233,-0.19,-0.325,
234,-0.18,-0.32,
235,-0.175,-0.325,
236,-0.165,-0.315,
237,-0.175,-0.295,
238,-0.17,-0.29,
239,-0.165,-0.26,
240,-0.17,-0.26,
241,-0.175,-0.26,
242,-0.19,-0.255,
243,-0.195,-0.245,
244,-0.205,-0.21,
245,-0.195,-0.165,
246,-0.21,-0.16,
247,-0.205,-0.175,
248,-0.215,-0.195,
249,-0.225,-0.195,
250,-0.225,-0.145,
251,-0.22,-0.105,
252,-0.23,-0.11,
253,-0.25,-0.15,
254,-0.265,-0.135,
255,-0.29,-0.06,
256,-0.285,0.005,
257,-0.275,0.03,
258,-0.275,-0.03,
259,-0.3,-0.14,
260,-0.33,-0.21,
261,-0.335,-0.23,
262,-0.31,-0.21,
263,-0.28,-0.165,
264,-0.265,-0.135,
265,-0.255,-0.115,
266,-0.25,-0.12,
267,-0.255,-0.09,
268,-0.27,-0.08,
269,-0.26,-0.075,
270,-0.25,-0.075,
271,-0.24,-0.09,
272,-0.24,-0.095,
273,-0.24,-0.08,
274,-0.215,-0.075,
275,-0.215,-0.04,
276,-0.22,-0.055,
277,-0.235,-0.08,
278,-0.24,-0.12,
279,-0.26,-0.15,
280,-0.255,-0.125,
281,-0.255,-0.12,
282,-0.26,-0.125,
283,-0.255,-0.115,
284,-0.26,-0.11,
285,-0.265,-0.085,
286,-0.255,-0.065,
287,-0.255,-0.09,
288,-0.265,-0.145,
289,-0.27,-0.22,
290,-0.275,-0.23,
291,-0.28,-0.225,
292,-0.265,-0.2,
293,-0.27,-0.17,
294,-0.265,-0.14,
295,-0.275,-0.155,
296,-0.275,-0.19,
297,-0.29,-0.225,
298,-0.295,-0.245,
299,-0.3,-0.255,
300,-0.29,-0.25,
301,-0.295,-0.245,
302,-0.305,-0.24,
303,-0.315,-0.22,
304,-0.315,-0.185,
305,-0.31,-0.16,
306,-0.305,-0.15,
307,-0.305,-0.16,
308,-0.295,-0.165,
309,-0.32,-0.16,
310,-0.33,-0.14,
311,-0.33,-0.13,
312,-0.33,-0.12,
313,-0.335,-0.08,
314,-0.35,-0.035,
315,-0.34,-0.005,
316,-0.325,0.005,
317,-0.305,0.02,
318,-0.295,0.055,
319,-0.3,0.045,
320,-0.32,-0.02,
321,-0.35,-0.065,
322,-0.36,-0.045,
323,-0.345,0.01,
324,-0.315,0.015,
325,-0.29,-0.03,
326,-0.29,-0.085,
327,-0.295,-0.15,
328,-0.335,-0.165,
329,-0.335,-0.175,
330,-0.32,-0.17,
331,-0.295,-0.17,
332,-0.29,-0.17,
333,-0.285,-0.175,
334,-0.275,-0.165,
335,-0.28,-0.15,
336,-0.27,-0.13,
337,-0.265,-0.115,
338,-0.285,-0.09,
339,-0.285,-0.07,
340,-0.27,-0.06,
341,-0.275,-0.07,
342,-0.29,-0.07,
343,-0.3,-0.05,
344,-0.31,-0.075,
345,-0.315,-0.15,
346,-0.32,-0.215,
347,-0.305,-0.245,
348,-0.29,-0.2,
349,-0.28,-0.145,
350,-0.285,-0.115,
351,-0.29,-0.1,
352,-0.29,-0.135,
353,-0.29,-0.2,
354,-0.295,-0.24,
355,-0.305,-0.25,
356,-0.31,-0.255,
357,-0.29,-0.25,
358,-0.27,-0.235,
359,-0.255,-0.2,
360,-0.25,-0.165,
361,-0.28,-0.16,
362,-0.315,-0.175,
363,-0.35,-0.2,
364,-0.365,-0.18,
365,-0.36,-0.165,
366,-0.345,-0.14,
367,-0.335,-0.13,
368,-0.345,-0.125,
369,-0.325,-0.085,
370,-0.31,-0.07,
371,-0.295,-0.055,
372,-0.3,-0.025,
373,-0.285,0.04,
374,-0.27,0.12,
375,-0.265,0.15,
376,-0.26,0.1,
377,-0.29,0.03,
378,-0.29,-0.045,
379,-0.285,-0.11,
380,-0.265,-0.14,
381,-0.265,-0.125,
382,-0.24,-0.09,
383,-0.23,-0.115,
384,-0.24,-0.185,
385,-0.27,-0.235,
386,-0.28,-0.255,
387,-0.285,-0.235,
388,-0.27,-0.23,
389,-0.245,-0.225,
390,-0.225,-0.21,
391,-0.215,-0.215,
392,-0.215,-0.23,
393,-0.235,-0.23,
394,-0.245,-0.215,
395,-0.255,-0.2,
396,-0.26,-0.195,
397,-0.275,-0.19,
398,-0.295,-0.18,
399,-0.3,-0.145,
400,-0.28,-0.13,
401,-0.265,-0.125,
402,-0.235,-0.155,
403,-0.21,-0.24,
404,-0.195,-0.35,
405,-0.18,-0.445,
406,-0.12,-0.545,
407,-0.04,-0.63,
408,0.1,-0.735,
409,0.235,-0.845,
410,0.35,-0.905,
411,0.475,-0.855,
412,0.62,-0.74,
413,0.735,-0.61,
414,0.85,-0.545,
415,0.945,-0.505,N
416,0.98,-0.43,
417,0.89,-0.3,
418,0.72,-0.145,
419,0.5,-0.02,
420,0.27,0.065,
421,0.045,0.09,
422,-0.12,0.01,
423,-0.245,-0.095,
424,-0.33,-0.16,
425,-0.35,-0.175,
426,-0.3,-0.175,
427,-0.235,-0.175,
428,-0.205,-0.225,
429,-0.195,-0.245,
430,-0.2,-0.235,
431,-0.195,-0.2,
432,-0.2,-0.19,
433,-0.21,-0.205,
434,-0.215,-0.22,
435,-0.23,-0.215,
436,-0.235,-0.225,
437,-0.23,-0.23,
438,-0.22,-0.22,
439,-0.225,-0.24,
440,-0.24,-0.25,
441,-0.25,-0.25,
442,-0.235,-0.235,
443,-0.24,-0.23,
444,-0.245,-0.235,
445,-0.245,-0.24,
446,-0.255,-0.26,
447,-0.255,-0.245,
448,-0.255,-0.235,
449,-0.25,-0.22,
450,-0.25,-0.195,
451,-0.25,-0.195,
452,-0.24,-0.19,
453,-0.24,-0.175,
454,-0.235,-0.19,
455,-0.22,-0.205,
456,-0.225,-0.27,
457,-0.23,-0.325,
458,-0.22,-0.32,
459,-0.205,-0.27,
460,-0.19,-0.245,
461,-0.18,-0.235,
462,-0.18,-0.27,
463,-0.185,-0.315,
464,-0.215,-0.35,
465,-0.21,-0.335,
466,-0.18,-0.305,
467,-0.165,-0.295,
468,-0.14,-0.285,
469,-0.125,-0.27,
470,-0.13,-0.265,
471,-0.12,-0.255,
472,-0.12,-0.245,
473,-0.11,-0.235,
474,-0.11,-0.24,
475,-0.105,-0.245,
476,-0.1,-0.255,
477,-0.095,-0.26,
478,-0.09,-0.24,
479,-0.085,-0.245,
480,-0.075,-0.25,
481,-0.085,-0.26,
482,-0.085,-0.275,
483,-0.09,-0.26,
484,-0.065,-0.255,
485,-0.05,-0.235,
486,-0.045,-0.235,
487,-0.055,-0.24,
488,-0.06,-0.28,
489,-0.06,-0.305,
490,-0.045,-0.315,
491,-0.045,-0.3,
492,-0.025,-0.29,
493,-0.025,-0.29,
494,-0.03,-0.32,
495,-0.025,-0.335,
496,-0.025,-0.345,
497,-0.01,-0.35,
498,-0.005,-0.35,
499,0.0,-0.36,
500,-0.01,-0.355,
501,-0.005,-0.345,
502,-0.005,-0.32,
503,-0.01,-0.305,
504,-0.015,-0.29,
505,-0.03,-0.305,
506,-0.05,-0.3,
507,-0.075,-0.29,
508,-0.06,-0.28,
509,-0.07,-0.255,
510,-0.07,-0.255,
511,-0.08,-0.26,
512,-0.09,-0.265,
513,-0.11,-0.27,
514,-0.09,-0.245,
515,-0.095,-0.23,
516,-0.095,-0.21,
517,-0.11,-0.205,
518,-0.14,-0.22,
519,-0.145,-0.215,
520,-0.16,-0.21,
521,-0.145,-0.21,
522,-0.155,-0.21,
523,-0.15,-0.205,
524,-0.16,-0.2,
525,-0.16,-0.205,
526,-0.16,-0.21,
527,-0.15,-0.195,
528,-0.14,-0.195,
529,-0.15,-0.19,
530,-0.155,-0.195,
531,-0.17,-0.185,
532,-0.15,-0.185,
533,-0.14,-0.165,
534,-0.125,-0.16,
535,-0.13,-0.17,
536,-0.14,-0.175,
537,-0.155,-0.175,
538,-0.14,-0.16,
539,-0.125,-0.16,
540,-0.13,-0.175,
541,-0.135,-0.185,
542,-0.145,-0.195,
543,-0.155,-0.185,
544,-0.145,-0.19,
545,-0.13,-0.18,
546,-0.125,-0.185,
547,-0.135,-0.205,
548,-0.135,-0.215,
549,-0.135,-0.2,
550,-0.125,-0.165,
551,-0.11,-0.16,
552,-0.11,-0.16,
553,-0.095,-0.155,
554,-0.115,-0.165,
555,-0.115,-0.165,
556,-0.11,-0.18,
557,-0.095,-0.185,
558,-0.105,-0.18,
559,-0.115,-0.165,
560,-0.13,-0.16,
561,-0.135,-0.18,
562,-0.125,-0.185,
563,-0.13,-0.205,
564,-0.125,-0.205,
565,-0.14,-0.205,
566,-0.15,-0.21,
567,-0.15,-0.205,
568,-0.145,-0.195,
569,-0.135,-0.205,
570,-0.135,-0.23,
571,-0.155,-0.245,
572,-0.16,-0.245,
573,-0.175,-0.235,
574,-0.155,-0.205,
575,-0.15,-0.195,
576,-0.155,-0.195,
577,-0.16,-0.2,
578,-0.175,-0.215,
579,-0.175,-0.195,
580,-0.16,-0.175,
581,-0.16,-0.18,
582,-0.16,-0.17,
583,-0.16,-0.18,
584,-0.16,-0.185,
585,-0.17,-0.185,
586,-0.155,-0.17,
587,-0.145,-0.175,
588,-0.155,-0.19,
589,-0.175,-0.195,
590,-0.17,-0.21,
591,-0.17,-0.21,
592,-0.155,-0.205,
593,-0.14,-0.195,
594,-0.145,-0.205,
595,-0.16,-0.225,
596,-0.18,-0.23,
597,-0.18,-0.235,
598,-0.175,-0.22,
599,-0.155,-0.21,
600,-0.155,-0.215,
601,-0.155,-0.225,
602,-0.155,-0.23,
603,-0.165,-0.215,
604,-0.16,-0.2,
605,-0.145,-0.2,
606,-0.145,-0.195,
607,-0.155,-0.205,
608,-0.15,-0.21,
609,-0.155,-0.185,
610,-0.14,-0.18,
611,-0.135,-0.18,
612,-0.135,-0.2,
613,-0.15,-0.22,
614,-0.16,-0.23,
615,-0.175,-0.2,
616,-0.165,-0.19,
617,-0.145,-0.17,
618,-0.14,-0.17,
619,-0.155,-0.2,
620,-0.175,-0.21,
621,-0.19,-0.2,
622,-0.175,-0.195,
623,-0.165,-0.195,
624,-0.16,-0.2,
625,-0.18,-0.2,
626,-0.195,-0.195,
627,-0.2,-0.18,
628,-0.185,-0.165,
629,-0.175,-0.155,
630,-0.18,-0.17,
631,-0.185,-0.195,
632,-0.19,-0.215,
633,-0.19,-0.2,
634,-0.18,-0.21,
635,-0.18,-0.175,
636,-0.17,-0.17,
637,-0.165,-0.175,
638,-0.18,-0.18,
639,-0.19,-0.17,
640,-0.17,-0.145,
641,-0.16,-0.135,
642,-0.165,-0.145,
643,-0.175,-0.155,
644,-0.175,-0.18,
645,-0.175,-0.185,
646,-0.17,-0.175,
647,-0.17,-0.165,
648,-0.17,-0.17,
649,-0.175,-0.19,
650,-0.18,-0.195,
651,-0.19,-0.19,
652,-0.17,-0.19,
653,-0.16,-0.18,
654,-0.155,-0.2,
655,-0.16,-0.215,
656,-0.17,-0.22,
657,-0.165,-0.21,
658,-0.15,-0.2,
659,-0.135,-0.2,
660,-0.145,-0.2,
661,-0.17,-0.205,
662,-0.185,-0.235,
663,-0.185,-0.235,
664,-0.165,-0.22,
665,-0.17,-0.225,
666,-0.16,-0.22,
667,-0.17,-0.235,
668,-0.18,-0.225,
669,-0.195,-0.195,
670,-0.18,-0.145,
671,-0.14,-0.09,
672,-0.125,-0.11,
673,-0.105,-0.19,
674,-0.095,-0.33,
675,-0.075,-0.43,
676,-0.035,-0.5,
677,0.025,-0.545,
678,0.115,-0.61,
679,0.22,-0.705,
680,0.325,-0.815,
681,0.44,-0.885,
682,0.585,-0.905,
683,0.71,-0.845,
684,0.82,-0.78,
685,0.915,-0.705,
686,1.005,-0.62,N
687,1.055,-0.49,
688,1.04,-0.355,
689,0.935,-0.24,
690,0.76,-0.145,
691,0.555,-0.095,
692,0.33,-0.08,
693,0.135,-0.1,
694,0.0,-0.14,
695,-0.095,-0.175,
696,-0.155,-0.2,
697,-0.195,-0.21,
698,-0.19,-0.21,
699,-0.155,-0.205,
700,-0.115,-0.175,
701,-0.105,-0.17,
702,-0.105,-0.17,
703,-0.13,-0.175,
704,-0.145,-0.185,
705,-0.165,-0.19,
706,-0.165,-0.175,
707,-0.16,-0.175,
708,-0.16,-0.17,
709,-0.17,-0.19,
710,-0.19,-0.215,
711,-0.19,-0.2,
712,-0.18,-0.215,
713,-0.17,-0.225,
714,-0.175,-0.235,
715,-0.185,-0.26,
716,-0.18,-0.29,
717,-0.19,-0.29,
718,-0.185,-0.275,
719,-0.175,-0.265,
720,-0.175,-0.265,
721,-0.17,-0.26,
722,-0.175,-0.27,
723,-0.185,-0.255,
724,-0.18,-0.23,
725,-0.155,-0.225,
726,-0.15,-0.22,
727,-0.16,-0.23,
728,-0.165,-0.235,
729,-0.17,-0.235,
730,-0.16,-0.225,
731,-0.145,-0.225,
732,-0.155,-0.235,
733,-0.16,-0.24,
734,-0.17,-0.255,
735,-0.165,-0.245,
736,-0.16,-0.23,
737,-0.15,-0.235,
738,-0.145,-0.235,
739,-0.145,-0.24,
740,-0.15,-0.255,
741,-0.155,-0.24,
742,-0.145,-0.225,
743,-0.14,-0.225,
744,-0.135,-0.225,
745,-0.145,-0.23,
746,-0.145,-0.235,
747,-0.15,-0.225,
748,-0.135,-0.21,
749,-0.12,-0.205,
750,-0.125,-0.205,
751,-0.125,-0.225,
752,-0.135,-0.23,
753,-0.14,-0.215,
754,-0.125,-0.21,
755,-0.115,-0.205,
756,-0.13,-0.205,
757,-0.125,-0.225,
758,-0.135,-0.26,
759,-0.13,-0.255,
760,-0.125,-0.245,
761,-0.105,-0.22,
762,-0.1,-0.225,
763,-0.1,-0.225,
764,-0.09,-0.235,
765,-0.08,-0.235,
766,-0.055,-0.235,
767,-0.04,-0.235,
768,-0.03,-0.245,
769,-0.04,-0.24,
770,-0.045,-0.25,
771,-0.04,-0.24,
772,-0.025,-0.24,
773,-0.02,-0.24,
774,-0.01,-0.225,
775,-0.015,-0.23,
776,-0.025,-0.23,
777,-0.035,-0.225,
778,-0.025,-0.225,
779,-0.03,-0.205,
780,-0.04,-0.205,
781,-0.055,-0.21,
782,-0.075,-0.21,
783,-0.085,-0.195,
784,-0.085,-0.175,
785,-0.075,-0.165,
786,-0.09,-0.17,
787,-0.1,-0.18,
788,-0.13,-0.185,
789,-0.135,-0.17,
790,-0.14,-0.14,
791,-0.14,-0.13,
792,-0.145,-0.135,
793,-0.15,-0.15,
794,-0.165,-0.19,
795,-0.17,-0.205,
796,-0.165,-0.21,
797,-0.155,-0.205,
798,-0.17,-0.185,
799,-0.17,-0.18,
800,-0.175,-0.18,
801,-0.175,-0.165,
802,-0.17,-0.16,
803,-0.155,-0.145,
804,-0.16,-0.145,
805,-0.165,-0.16,
806,-0.175,-0.165,
807,-0.17,-0.16,
808,-0.16,-0.15,
809,-0.16,-0.145,
810,-0.17,-0.155,
811,-0.17,-0.165,
812,-0.19,-0.18,
813,-0.185,-0.165,
814,-0.19,-0.16,
815,-0.185,-0.15,
816,-0.19,-0.17,
817,-0.185,-0.18,
818,-0.195,-0.195,
819,-0.2,-0.2,
820,-0.195,-0.21,
821,-0.195,-0.2,
822,-0.185,-0.205,
823,-0.18,-0.215,
824,-0.18,-0.225,
825,-0.165,-0.215,
826,-0.17,-0.195,
827,-0.16,-0.2,
828,-0.165,-0.185,
829,-0.16,-0.21,
830,-0.16,-0.23,
831,-0.16,-0.205,
832,-0.15,-0.19,
833,-0.14,-0.185,
834,-0.145,-0.195,
835,-0.145,-0.205,
836,-0.16,-0.205,
837,-0.175,-0.195,
838,-0.165,-0.185,
839,-0.16,-0.18,
840,-0.165,-0.195,
841,-0.175,-0.205,
842,-0.17,-0.255,
843,-0.185,-0.245,
844,-0.175,-0.235,
845,-0.17,-0.22,
846,-0.175,-0.22,
847,-0.18,-0.22,
848,-0.195,-0.24,
849,-0.195,-0.235,
850,-0.185,-0.25,
851,-0.18,-0.245,
852,-0.165,-0.245,
853,-0.18,-0.235,
854,-0.19,-0.25,
855,-0.195,-0.235,
856,-0.195,-0.22,
857,-0.185,-0.205,
858,-0.18,-0.2,
859,-0.19,-0.2,
860,-0.195,-0.215,
861,-0.21,-0.2,
862,-0.195,-0.185,
863,-0.19,-0.18,
864,-0.19,-0.18,
865,-0.205,-0.18,
866,-0.19,-0.18,
867,-0.21,-0.17,
868,-0.19,-0.155,
869,-0.19,-0.15,
870,-0.195,-0.14,
871,-0.205,-0.14,
872,-0.205,-0.155,
873,-0.215,-0.145,
874,-0.21,-0.135,
875,-0.195,-0.13,
876,-0.195,-0.14,
877,-0.205,-0.135,
878,-0.205,-0.145,
879,-0.215,-0.14,
880,-0.22,-0.115,
881,-0.21,-0.1,
882,-0.22,-0.105,
883,-0.22,-0.135,
884,-0.23,-0.16,
885,-0.22,-0.155,
886,-0.2,-0.145,
887,-0.185,-0.135,
888,-0.165,-0.135,
889,-0.15,-0.15,
890,-0.14,-0.185,
891,-0.12,-0.255,
892,-0.1,-0.335,
893,-0.085,-0.42,
894,-0.06,-0.475,
895,0.0,-0.54,
896,0.075,-0.61,
897,0.165,-0.68,
898,0.27,-0.79,
899,0.365,-0.88,
900,0.475,-0.955,
901,0.6,-0.98,
902,0.69,-0.935,
903,0.77,-0.88,
904,0.85,-0.8,
905,0.91,-0.7,N
906,0.91,-0.555,
907,0.835,-0.435,
908,0.725,-0.365,
909,0.59,-0.28,
910,0.43,-0.245,
911,0.25,-0.245,
912,0.1,-0.26,
913,0.0,-0.275,
914,-0.065,-0.275,
915,-0.105,-0.245,
916,-0.12,-0.235,
917,-0.115,-0.22,
918,-0.105,-0.205,
919,-0.11,-0.21,
920,-0.135,-0.205,
921,-0.155,-0.195,
922,-0.165,-0.19,
923,-0.17,-0.185,
924,-0.165,-0.195,
925,-0.18,-0.19,
926,-0.195,-0.19,
927,-0.2,-0.185,
928,-0.2,-0.175,
929,-0.2,-0.18,
930,-0.21,-0.2,
931,-0.215,-0.205,
932,-0.21,-0.2,
933,-0.215,-0.19,
934,-0.215,-0.17,
935,-0.21,-0.175,
936,-0.225,-0.17,
937,-0.225,-0.17,
938,-0.24,-0.175,
939,-0.24,-0.165,
940,-0.245,-0.16,
941,-0.24,-0.135,
942,-0.24,-0.145,
943,-0.25,-0.16,
944,-0.26,-0.16,
945,-0.26,-0.16,
946,-0.25,-0.16,
947,-0.255,-0.155,
948,-0.255,-0.165,
949,-0.265,-0.18,
950,-0.275,-0.19,
951,-0.29,-0.195,
952,-0.285,-0.175,
953,-0.285,-0.175,
954,-0.295,-0.17,
955,-0.31,-0.185,
956,-0.315,-0.205,
957,-0.3,-0.21,
958,-0.265,-0.205,
959,-0.25,-0.2,
960,-0.235,-0.215,
961,-0.235,-0.215,
962,-0.235,-0.23,
963,-0.225,-0.21,
964,-0.205,-0.22,
965,-0.18,-0.205,
966,-0.17,-0.22,
967,-0.17,-0.22,
968,-0.175,-0.23,
969,-0.18,-0.23,
970,-0.165,-0.235,
971,-0.145,-0.245,
972,-0.15,-0.26,
973,-0.145,-0.275,
974,-0.135,-0.27,
975,-0.14,-0.28,
976,-0.14,-0.245,
977,-0.135,-0.255,
978,-0.125,-0.26,
979,-0.125,-0.26,
980,-0.12,-0.265,
981,-0.115,-0.255,
982,-0.115,-0.26,
983,-0.105,-0.255,
984,-0.1,-0.25,
985,-0.105,-0.27,
986,-0.105,-0.27,
987,-0.11,-0.265,
988,-0.1,-0.245,
989,-0.095,-0.255,
990,-0.085,-0.275,
991,-0.1,-0.265,
992,-0.1,-0.275,
993,-0.105,-0.255,
994,-0.095,-0.26,
995,-0.09,-0.25,
996,-0.095,-0.26,
997,-0.105,-0.245,
998,-0.115,-0.255,
999,-0.125,-0.25,
1000,-0.12,-0.24,
1001,-0.12,-0.21,
1002,-0.14,-0.21,
1003,-0.15,-0.21,
1004,-0.175,-0.2,
1005,-0.185,-0.19,
1006,-0.185,-0.18,
1007,-0.19,-0.19,
1008,-0.21,-0.19,
1009,-0.22,-0.205,
1010,-0.23,-0.195,
1011,-0.23,-0.2,
1012,-0.24,-0.185,
1013,-0.255,-0.2,
1014,-0.26,-0.21,
1015,-0.285,-0.205,
1016,-0.3,-0.21,
1017,-0.29,-0.215,
1018,-0.28,-0.23,
1019,-0.28,-0.23,
1020,-0.265,-0.225,
1021,-0.285,-0.23,
1022,-0.26,-0.215,
1023,-0.225,-0.2,
1024,-0.2,-0.2,
1025,-0.18,-0.2,
1026,-0.165,-0.2,
1027,-0.16,-0.2,
1028,-0.17,-0.18,
1029,-0.16,-0.165,
1030,-0.155,-0.17,
1031,-0.155,-0.17,
1032,-0.155,-0.175,
1033,-0.16,-0.19,
1034,-0.16,-0.17,
1035,-0.15,-0.16,
1036,-0.15,-0.15,
1037,-0.155,-0.155,
1038,-0.165,-0.165,
1039,-0.175,-0.17,
1040,-0.18,-0.165,
1041,-0.16,-0.155,
1042,-0.16,-0.15,
1043,-0.15,-0.16,
1044,-0.165,-0.18,
1045,-0.165,-0.185,
1046,-0.165,-0.18,
1047,-0.17,-0.18,
1048,-0.165,-0.17,
1049,-0.17,-0.17,
1050,-0.18,-0.17,
1051,-0.18,-0.19,
1052,-0.18,-0.175,
1053,-0.17,-0.16,
1054,-0.17,-0.155,
1055,-0.185,-0.16,
1056,-0.2,-0.17,
1057,-0.22,-0.19,
1058,-0.22,-0.185,
1059,-0.22,-0.18,
1060,-0.21,-0.17,
1061,-0.215,-0.17,
1062,-0.225,-0.17,
1063,-0.24,-0.175,
1064,-0.245,-0.15,
1065,-0.235,-0.135,
1066,-0.23,-0.14,
1067,-0.245,-0.16,
1068,-0.265,-0.175,
1069,-0.28,-0.195,
1070,-0.285,-0.205,
1071,-0.285,-0.205,
1072,-0.28,-0.215,
1073,-0.295,-0.235,
1074,-0.305,-0.26,
1075,-0.305,-0.28,
1076,-0.31,-0.27,
1077,-0.295,-0.255,
1078,-0.285,-0.24,
1079,-0.275,-0.235,
1080,-0.265,-0.23,
1081,-0.265,-0.23,
1082,-0.25,-0.215,
1083,-0.225,-0.19,
1084,-0.195,-0.185,
1085,-0.19,-0.19,
1086,-0.195,-0.2,
1087,-0.2,-0.205,
1088,-0.21,-0.195,
1089,-0.21,-0.165,
1090,-0.2,-0.135,
1091,-0.2,-0.12,
1092,-0.205,-0.12,
1093,-0.215,-0.15,
1094,-0.215,-0.185,
1095,-0.195,-0.21,
1096,-0.2,-0.21,
1097,-0.18,-0.225,
1098,-0.19,-0.23,
1099,-0.19,-0.235,
1100,-0.195,-0.21,
1101,-0.195,-0.2,
1102,-0.195,-0.195,
1103,-0.205,-0.19,
1104,-0.2,-0.195,
1105,-0.21,-0.205,
1106,-0.215,-0.185,
1107,-0.21,-0.18,
1108,-0.205,-0.175,
1109,-0.205,-0.17,
1110,-0.21,-0.185,
1111,-0.225,-0.205,
1112,-0.22,-0.185,
1113,-0.215,-0.175,
1114,-0.205,-0.165,
1115,-0.215,-0.17,
1116,-0.23,-0.18,
1117,-0.23,-0.185,
1118,-0.23,-0.17,
1119,-0.23,-0.155,
1120,-0.23,-0.16,
1121,-0.235,-0.15,
1122,-0.25,-0.16,
1123,-0.265,-0.175,
1124,-0.26,-0.175,
1125,-0.255,-0.165,
1126,-0.25,-0.17,
1127,-0.255,-0.185,
1128,-0.265,-0.195,
1129,-0.275,-0.205,
1130,-0.285,-0.205,
1131,-0.275,-0.195,
1132,-0.27,-0.175,
1133,-0.26,-0.175,
1134,-0.275,-0.175,
1135,-0.28,-0.18,
1136,-0.275,-0.175,
1137,-0.265,-0.175,
1138,-0.25,-0.165,
1139,-0.24,-0.155,
1140,-0.23,-0.165,
1141,-0.22,-0.17,
1142,-0.21,-0.16,
1143,-0.19,-0.185,
1144,-0.18,-0.2,
1145,-0.175,-0.22,
1146,-0.19,-0.24,
1147,-0.18,-0.245,
1148,-0.175,-0.245,
1149,-0.175,-0.235,
1150,-0.17,-0.235,
1151,-0.175,-0.23,
1152,-0.18,-0.24,
1153,-0.185,-0.25,
1154,-0.19,-0.245,
1155,-0.18,-0.225,
1156,-0.175,-0.23,
1157,-0.175,-0.23,
1158,-0.175,-0.235,
1159,-0.2,-0.24,
1160,-0.19,-0.235,
1161,-0.175,-0.22,
1162,-0.17,-0.225,
1163,-0.175,-0.225,
1164,-0.185,-0.225,
1165,-0.18,-0.24,
1166,-0.185,-0.23,
1167,-0.165,-0.23,
1168,-0.16,-0.215,
1169,-0.17,-0.195,
1170,-0.175,-0.195,
1171,-0.18,-0.195,
1172,-0.18,-0.175,
1173,-0.155,-0.16,
1174,-0.135,-0.175,
1175,-0.125,-0.23,
1176,-0.1,-0.32,
1177,-0.095,-0.41,
1178,-0.08,-0.47,
1179,-0.035,-0.535,
1180,0.035,-0.585,
1181,0.135,-0.645,
1182,0.24,-0.74,
1183,0.34,-0.835,
1184,0.465,-0.88,
1185,0.61,-0.86,
1186,0.735,-0.8,
1187,0.845,-0.715,
1188,0.94,-0.655,
1189,1.01,-0.58,N
1190,1.025,-0.45,
1191,0.94,-0.325,
1192,0.775,-0.21,
1193,0.55,-0.12,
1194,0.31,-0.08,
1195,0.1,-0.075,
1196,-0.04,-0.105,
1197,-0.135,-0.135,
1198,-0.21,-0.175,
1199,-0.28,-0.205,
1200,-0.315,-0.22,
1201,-0.305,-0.225,
1202,-0.27,-0.205,
1203,-0.235,-0.195,
1204,-0.23,-0.18,
1205,-0.23,-0.185,
1206,-0.235,-0.205,
1207,-0.245,-0.22,
1208,-0.245,-0.2,
1209,-0.245,-0.19,
1210,-0.24,-0.205,
1211,-0.25,-0.21,
1212,-0.25,-0.235,
1213,-0.25,-0.24,
1214,-0.245,-0.245,
1215,-0.235,-0.23,
1216,-0.225,-0.215,
1217,-0.22,-0.225,
1218,-0.23,-0.24,
1219,-0.24,-0.245,
1220,-0.25,-0.25,
1221,-0.245,-0.235,
1222,-0.235,-0.225,
1223,-0.235,-0.225,
1224,-0.25,-0.23,
1225,-0.25,-0.235,
1226,-0.25,-0.23,
1227,-0.235,-0.225,
1228,-0.24,-0.215,
1229,-0.235,-0.21,
1230,-0.23,-0.24,
1231,-0.245,-0.245,
1232,-0.25,-0.235,
1233,-0.235,-0.245,
1234,-0.235,-0.235,
1235,-0.235,-0.245,
1236,-0.23,-0.25,
1237,-0.235,-0.255,
1238,-0.235,-0.255,
1239,-0.22,-0.26,
1240,-0.215,-0.255,
1241,-0.215,-0.24,
1242,-0.225,-0.255,
1243,-0.23,-0.265,
1244,-0.225,-0.275,
1245,-0.215,-0.26,
1246,-0.21,-0.26,
1247,-0.205,-0.26,
1248,-0.21,-0.255,
1249,-0.215,-0.26,
1250,-0.21,-0.25,
1251,-0.195,-0.235,
1252,-0.175,-0.225,
1253,-0.17,-0.22,
1254,-0.175,-0.22,
1255,-0.17,-0.225,
1256,-0.185,-0.21,
1257,-0.155,-0.2,
1258,-0.155,-0.2,
1259,-0.155,-0.21,
1260,-0.155,-0.22,
1261,-0.15,-0.235,
1262,-0.14,-0.225,
1263,-0.135,-0.22,
1264,-0.135,-0.215,
1265,-0.13,-0.22,
1266,-0.14,-0.24,
1267,-0.135,-0.255,
1268,-0.135,-0.26,
1269,-0.13,-0.25,
1270,-0.13,-0.24,
1271,-0.13,-0.235,
1272,-0.135,-0.245,
1273,-0.13,-0.25,
1274,-0.115,-0.24,
1275,-0.09,-0.225,
1276,-0.07,-0.24,
1277,-0.065,-0.255,
1278,-0.065,-0.27,
1279,-0.08,-0.29,
1280,-0.085,-0.295,
1281,-0.065,-0.305,
1282,-0.065,-0.315,
1283,-0.065,-0.315,
1284,-0.08,-0.315,
1285,-0.08,-0.33,
1286,-0.08,-0.31,
1287,-0.085,-0.31,
1288,-0.075,-0.305,
1289,-0.085,-0.3,
1290,-0.105,-0.295,
1291,-0.12,-0.295,
1292,-0.13,-0.29,
1293,-0.12,-0.27,
1294,-0.125,-0.275,
1295,-0.135,-0.25,
1296,-0.14,-0.245,
1297,-0.155,-0.27,
1298,-0.165,-0.27,
1299,-0.17,-0.255,
1300,-0.17,-0.265,
1301,-0.165,-0.265,
1302,-0.175,-0.27,
1303,-0.19,-0.275,
1304,-0.205,-0.245,
1305,-0.205,-0.23,
1306,-0.19,-0.23,
1307,-0.205,-0.225,
1308,-0.205,-0.23,
1309,-0.21,-0.23,
1310,-0.21,-0.235,
1311,-0.195,-0.21,
1312,-0.195,-0.185,
1313,-0.195,-0.18,
1314,-0.2,-0.17,
1315,-0.22,-0.18,
1316,-0.235,-0.175,
1317,-0.215,-0.165,
1318,-0.19,-0.175,
1319,-0.18,-0.18,
1320,-0.18,-0.18,
1321,-0.195,-0.185,
1322,-0.2,-0.175,
1323,-0.19,-0.165,
1324,-0.17,-0.155,
1325,-0.16,-0.175,
1326,-0.165,-0.185,
1327,-0.18,-0.2,
1328,-0.175,-0.175,
1329,-0.16,-0.175,
1330,-0.16,-0.16,
1331,-0.165,-0.17,
1332,-0.175,-0.19,
1333,-0.195,-0.19,
1334,-0.2,-0.18,
1335,-0.2,-0.165,
1336,-0.195,-0.145,
1337,-0.2,-0.15,
1338,-0.205,-0.16,
1339,-0.225,-0.17,
1340,-0.23,-0.15,
1341,-0.22,-0.14,
1342,-0.19,-0.135,
1343,-0.18,-0.155,
1344,-0.185,-0.17,
1345,-0.19,-0.19,
1346,-0.2,-0.19,
1347,-0.19,-0.195,
1348,-0.18,-0.185,
1349,-0.18,-0.2,
1350,-0.185,-0.21,
1351,-0.205,-0.235,
1352,-0.21,-0.225,
1353,-0.205,-0.22,
1354,-0.21,-0.225,
1355,-0.215,-0.235,
1356,-0.22,-0.26,
1357,-0.24,-0.27,
1358,-0.245,-0.265,
1359,-0.24,-0.255,
1360,-0.22,-0.25,
1361,-0.22,-0.25,
1362,-0.215,-0.26,
1363,-0.225,-0.26,
1364,-0.23,-0.245,
1365,-0.225,-0.23,
1366,-0.225,-0.225,
1367,-0.22,-0.22,
1368,-0.225,-0.22,
1369,-0.24,-0.245,
1370,-0.245,-0.24,
1371,-0.225,-0.225,
1372,-0.22,-0.21,
1373,-0.215,-0.225,
1374,-0.21,-0.22,
1375,-0.215,-0.23,
1376,-0.235,-0.22,
1377,-0.215,-0.205,
1378,-0.215,-0.2,
1379,-0.21,-0.195,
1380,-0.215,-0.2,
1381,-0.215,-0.2,
1382,-0.22,-0.195,
1383,-0.215,-0.19,
1384,-0.205,-0.18,
1385,-0.19,-0.19,
1386,-0.195,-0.19,
1387,-0.19,-0.2,
1388,-0.205,-0.195,
1389,-0.185,-0.185,
1390,-0.18,-0.185,
1391,-0.185,-0.18,
1392,-0.19,-0.2,
1393,-0.195,-0.2,
1394,-0.205,-0.205,
1395,-0.215,-0.195,
1396,-0.205,-0.195,
1397,-0.21,-0.185,
1398,-0.21,-0.19,
1399,-0.225,-0.195,
1400,-0.215,-0.17,
1401,-0.205,-0.17,
1402,-0.205,-0.16,
1403,-0.205,-0.155,
1404,-0.22,-0.14,
1405,-0.24,-0.145,
1406,-0.24,-0.125,
1407,-0.215,-0.125,
1408,-0.2,-0.14,
1409,-0.18,-0.215,
1410,-0.15,-0.32,
1411,-0.13,-0.425,
1412,-0.08,-0.5,
1413,-0.005,-0.59,
1414,0.115,-0.655,
1415,0.23,-0.76,
1416,0.315,-0.875,
1417,0.405,-0.95,
1418,0.515,-0.98,
1419,0.65,-0.93,
1420,0.74,-0.88,
1421,0.81,-0.82,
1422,0.89,-0.745,N
1423,0.925,-0.625,
1424,0.885,-0.475,
1425,0.765,-0.345,
1426,0.64,-0.265,
1427,0.46,-0.22,
1428,0.255,-0.215,
1429,0.085,-0.245,
1430,-0.025,-0.255,
1431,-0.085,-0.26,
1432,-0.135,-0.23,
1433,-0.155,-0.22,
1434,-0.145,-0.225,
1435,-0.14,-0.225,
1436,-0.13,-0.215,
1437,-0.12,-0.205,
1438,-0.13,-0.2,
1439,-0.155,-0.2,
1440,-0.17,-0.205,
1441,-0.185,-0.21,
1442,-0.2,-0.2,
1443,-0.215,-0.205,
1444,-0.2,-0.19,
1445,-0.205,-0.195,
1446,-0.205,-0.205,
1447,-0.22,-0.205,
1448,-0.225,-0.21,
1449,-0.225,-0.19,
1450,-0.205,-0.175,
1451,-0.215,-0.185,
1452,-0.215,-0.195,
1453,-0.225,-0.205,
1454,-0.225,-0.19,
1455,-0.225,-0.18,
1456,-0.215,-0.18,
1457,-0.215,-0.175,
1458,-0.225,-0.175,
1459,-0.235,-0.19,
1460,-0.25,-0.175,
1461,-0.24,-0.175,
1462,-0.235,-0.17,
1463,-0.23,-0.16,
1464,-0.235,-0.175,
1465,-0.235,-0.17,
1466,-0.25,-0.165,
1467,-0.25,-0.16,
1468,-0.255,-0.155,
1469,-0.25,-0.165,
1470,-0.255,-0.16,
1471,-0.265,-0.175,
1472,-0.27,-0.16,
1473,-0.265,-0.155,
1474,-0.245,-0.145,
1475,-0.245,-0.15,
1476,-0.24,-0.155,
1477,-0.24,-0.17,
1478,-0.24,-0.17,
1479,-0.235,-0.185,
1480,-0.225,-0.195,
1481,-0.21,-0.195,
1482,-0.22,-0.2,
1483,-0.225,-0.215,
1484,-0.22,-0.215,
1485,-0.2,-0.215,
1486,-0.185,-0.21,
1487,-0.165,-0.225,
1488,-0.165,-0.25,
1489,-0.17,-0.265,
1490,-0.15,-0.245,
1491,-0.145,-0.245,
1492,-0.135,-0.235,
1493,-0.135,-0.24,
1494,-0.125,-0.245,
1495,-0.135,-0.265,
1496,-0.135,-0.255,
1497,-0.14,-0.245,
1498,-0.125,-0.245,
1499,-0.12,-0.24,
1500,-0.13,-0.245,
1501,-0.14,-0.275,
1502,-0.15,-0.27,
1503,-0.14,-0.26,
1504,-0.115,-0.245,
1505,-0.105,-0.245,
1506,-0.115,-0.255,
1507,-0.115,-0.26,
1508,-0.125,-0.26,
1509,-0.115,-0.245,
1510,-0.11,-0.235,
1511,-0.125,-0.235,
1512,-0.14,-0.245,
1513,-0.15,-0.24,
1514,-0.155,-0.245,
1515,-0.16,-0.23,
1516,-0.17,-0.215,
1517,-0.17,-0.21,
1518,-0.185,-0.21,
1519,-0.2,-0.215,
1520,-0.22,-0.205,
1521,-0.225,-0.2,
1522,-0.225,-0.19,
1523,-0.235,-0.185,
1524,-0.24,-0.2,
1525,-0.255,-0.195,
1526,-0.265,-0.19,
1527,-0.275,-0.185,
1528,-0.27,-0.175,
1529,-0.27,-0.18,
1530,-0.275,-0.175,
1531,-0.285,-0.175,
1532,-0.29,-0.17,
1533,-0.29,-0.165,
1534,-0.28,-0.16,
1535,-0.295,-0.165,
1536,-0.295,-0.16,
1537,-0.305,-0.16,
1538,-0.305,-0.15,
1539,-0.31,-0.125,
1540,-0.29,-0.115,
1541,-0.275,-0.11,
1542,-0.26,-0.115,
1543,-0.265,-0.135,
1544,-0.25,-0.135,
1545,-0.225,-0.135,
1546,-0.215,-0.135,
1547,-0.2,-0.165,
1548,-0.19,-0.195,
1549,-0.2,-0.19,
1550,-0.19,-0.18,
1551,-0.17,-0.175,
1552,-0.155,-0.18,
1553,-0.15,-0.205,
1554,-0.155,-0.205,
1555,-0.17,-0.215,
1556,-0.165,-0.205,
1557,-0.155,-0.195,
1558,-0.15,-0.195,
1559,-0.155,-0.195,
1560,-0.16,-0.205,
1561,-0.175,-0.21,
1562,-0.17,-0.22,
1563,-0.165,-0.2,
1564,-0.17,-0.19,
1565,-0.175,-0.2,
1566,-0.165,-0.21,
1567,-0.165,-0.21,
1568,-0.18,-0.2,
1569,-0.185,-0.19,
1570,-0.17,-0.19,
1571,-0.185,-0.195,
1572,-0.19,-0.22,
1573,-0.2,-0.225,
1574,-0.205,-0.22,
1575,-0.205,-0.2,
1576,-0.215,-0.2,
1577,-0.21,-0.195,
1578,-0.215,-0.2,
1579,-0.22,-0.22,
1580,-0.23,-0.21,
1581,-0.225,-0.2,
1582,-0.22,-0.18,
1583,-0.22,-0.19,
1584,-0.225,-0.205,
1585,-0.235,-0.21,
1586,-0.25,-0.205,
1587,-0.245,-0.185,
1588,-0.24,-0.185,
1589,-0.25,-0.185,
1590,-0.26,-0.195,
1591,-0.275,-0.205,
1592,-0.29,-0.205,
1593,-0.29,-0.205,
1594,-0.285,-0.195,
1595,-0.29,-0.205,
1596,-0.3,-0.21,
1597,-0.305,-0.225,
1598,-0.315,-0.215,
1599,-0.31,-0.21,
1600,-0.31,-0.19,
1601,-0.3,-0.18,
1602,-0.32,-0.17,
1603,-0.315,-0.17,
1604,-0.32,-0.15,
1605,-0.31,-0.135,
1606,-0.285,-0.15,
1607,-0.255,-0.225,
1608,-0.21,-0.315,
1609,-0.175,-0.4,
1610,-0.135,-0.46,
1611,-0.075,-0.505,
1612,0.01,-0.55,
1613,0.09,-0.615,
1614,0.16,-0.705,
1615,0.23,-0.825,
1616,0.315,-0.9,
1617,0.42,-0.945,
1618,0.525,-0.925,
1619,0.6,-0.885,
1620,0.66,-0.83,
1621,0.715,-0.75,N
1622,0.725,-0.61,
1623,0.7,-0.455,
1624,0.62,-0.32,
1625,0.5,-0.255,
1626,0.325,-0.235,
1627,0.135,-0.255,
1628,-0.02,-0.265,
1629,-0.095,-0.265,
1630,-0.135,-0.24,
1631,-0.175,-0.225,
1632,-0.21,-0.22,
1633,-0.22,-0.21,
1634,-0.215,-0.185,
1635,-0.205,-0.175,
1636,-0.215,-0.18,
1637,-0.225,-0.185,
1638,-0.25,-0.18,
1639,-0.265,-0.185,
1640,-0.275,-0.175,
1641,-0.275,-0.17,
1642,-0.28,-0.155,
1643,-0.27,-0.16,
1644,-0.285,-0.16,
1645,-0.295,-0.17,
1646,-0.3,-0.16,
1647,-0.3,-0.155,
1648,-0.295,-0.15,
1649,-0.3,-0.17,
1650,-0.32,-0.175,
1651,-0.32,-0.19,
1652,-0.315,-0.185,
1653,-0.3,-0.16,
1654,-0.3,-0.165,
1655,-0.31,-0.18,
1656,-0.31,-0.185,
1657,-0.33,-0.195,
1658,-0.32,-0.195,
1659,-0.315,-0.175,
1660,-0.315,-0.18,
1661,-0.315,-0.195,
1662,-0.32,-0.215,
1663,-0.325,-0.235,
1664,-0.315,-0.225,
1665,-0.32,-0.215,
1666,-0.3,-0.22,
1667,-0.29,-0.22,
1668,-0.3,-0.245,
1669,-0.31,-0.255,
1670,-0.315,-0.24,
1671,-0.3,-0.235,
1672,-0.29,-0.24,
1673,-0.3,-0.24,
1674,-0.295,-0.245,
1675,-0.29,-0.255,
1676,-0.28,-0.24,
1677,-0.255,-0.245,
1678,-0.23,-0.23,
1679,-0.225,-0.24,
1680,-0.235,-0.26,
1681,-0.245,-0.27,
1682,-0.235,-0.25,
1683,-0.22,-0.245,
1684,-0.215,-0.245,
1685,-0.215,-0.24,
1686,-0.225,-0.24,
1687,-0.225,-0.25,
1688,-0.21,-0.23,
1689,-0.2,-0.22,
1690,-0.195,-0.225,
1691,-0.19,-0.235,
1692,-0.195,-0.245,
1693,-0.19,-0.26,
1694,-0.195,-0.245,
1695,-0.19,-0.22,
1696,-0.17,-0.215,
1697,-0.175,-0.225,
1698,-0.165,-0.235,
1699,-0.16,-0.245,
1700,-0.15,-0.24,
1701,-0.13,-0.22,
1702,-0.13,-0.215,
1703,-0.135,-0.215,
1704,-0.13,-0.22,
1705,-0.135,-0.21,
1706,-0.14,-0.2,
1707,-0.125,-0.2,
1708,-0.115,-0.185,
1709,-0.12,-0.2,
1710,-0.135,-0.19,
1711,-0.15,-0.2,
1712,-0.16,-0.195,
1713,-0.16,-0.19,
1714,-0.165,-0.185,
1715,-0.175,-0.175,
1716,-0.2,-0.2,
1717,-0.21,-0.205,
1718,-0.225,-0.19,
1719,-0.215,-0.185,
1720,-0.21,-0.185,
1721,-0.215,-0.19,
1722,-0.245,-0.205,
1723,-0.26,-0.215,
1724,-0.26,-0.21,
1725,-0.275,-0.2,
1726,-0.265,-0.2,
1727,-0.275,-0.215,
1728,-0.285,-0.23,
1729,-0.295,-0.25,
1730,-0.3,-0.235,
1731,-0.295,-0.22,
1732,-0.285,-0.215,
1733,-0.29,-0.225,
1734,-0.29,-0.245,
1735,-0.295,-0.26,
1736,-0.285,-0.255,
1737,-0.28,-0.235,
1738,-0.26,-0.2,
1739,-0.27,-0.185,
1740,-0.27,-0.195,
1741,-0.285,-0.215,
1742,-0.285,-0.21,
1743,-0.275,-0.205,
1744,-0.27,-0.2,
1745,-0.275,-0.195,
1746,-0.285,-0.195,
1747,-0.3,-0.215,
1748,-0.3,-0.205,
1749,-0.29,-0.195,
1750,-0.275,-0.185,
1751,-0.285,-0.185,
1752,-0.29,-0.19,
1753,-0.295,-0.195,
1754,-0.285,-0.19,
1755,-0.27,-0.17,
1756,-0.265,-0.16,
1757,-0.275,-0.16,
1758,-0.275,-0.155,
1759,-0.28,-0.165,
1760,-0.275,-0.15,
1761,-0.275,-0.15,
1762,-0.26,-0.15,
1763,-0.26,-0.16,
1764,-0.275,-0.18,
1765,-0.29,-0.185,
1766,-0.275,-0.165,
1767,-0.26,-0.145,
1768,-0.255,-0.15,
1769,-0.255,-0.15,
1770,-0.265,-0.145,
1771,-0.27,-0.145,
1772,-0.26,-0.135,
1773,-0.27,-0.12,
1774,-0.265,-0.11,
1775,-0.26,-0.115,
1776,-0.28,-0.125,
1777,-0.295,-0.135,
1778,-0.275,-0.13,
1779,-0.265,-0.105,
1780,-0.255,-0.105,
1781,-0.26,-0.12,
1782,-0.28,-0.145,
1783,-0.3,-0.14,
1784,-0.295,-0.145,
1785,-0.29,-0.135,
1786,-0.28,-0.155,
1787,-0.29,-0.155,
1788,-0.295,-0.175,
1789,-0.305,-0.205,
1790,-0.295,-0.205,
1791,-0.295,-0.205,
1792,-0.275,-0.195,
1793,-0.285,-0.2,
1794,-0.29,-0.225,
1795,-0.295,-0.25,
1796,-0.295,-0.245,
1797,-0.28,-0.235,
1798,-0.28,-0.22,
1799,-0.28,-0.225,
1800,-0.28,-0.23,
1801,-0.28,-0.25,
1802,-0.285,-0.235,
1803,-0.265,-0.22,
1804,-0.255,-0.22,
1805,-0.265,-0.225,
1806,-0.275,-0.24,
1807,-0.29,-0.245,
1808,-0.305,-0.235,
1809,-0.285,-0.2,
1810,-0.28,-0.185,
1811,-0.28,-0.195,
1812,-0.285,-0.21,
1813,-0.29,-0.23,
1814,-0.305,-0.235,
1815,-0.29,-0.23,
1816,-0.275,-0.225,
1817,-0.275,-0.225,
1818,-0.28,-0.22,
1819,-0.285,-0.23,
1820,-0.29,-0.23,
1821,-0.29,-0.22,
1822,-0.27,-0.22,
1823,-0.28,-0.225,
1824,-0.275,-0.22,
1825,-0.285,-0.22,
1826,-0.29,-0.215,
1827,-0.275,-0.195,
1828,-0.265,-0.18,
1829,-0.275,-0.18,
1830,-0.265,-0.175,
1831,-0.27,-0.18,
1832,-0.27,-0.175,
1833,-0.265,-0.165,
1834,-0.26,-0.175,
1835,-0.27,-0.165,
1836,-0.27,-0.175,
1837,-0.285,-0.175,
1838,-0.295,-0.165,
1839,-0.29,-0.16,
1840,-0.29,-0.165,
1841,-0.29,-0.15,
1842,-0.3,-0.16,
1843,-0.305,-0.165,
1844,-0.31,-0.165,
1845,-0.31,-0.175,
1846,-0.31,-0.165,
1847,-0.31,-0.17,
1848,-0.305,-0.18,
1849,-0.315,-0.175,
1850,-0.315,-0.17,
1851,-0.315,-0.165,
1852,-0.31,-0.16,
1853,-0.31,-0.155,
1854,-0.32,-0.17,
1855,-0.32,-0.19,
1856,-0.325,-0.185,
1857,-0.32,-0.16,
1858,-0.315,-0.165,
1859,-0.325,-0.175,
1860,-0.32,-0.2,
1861,-0.335,-0.21,
1862,-0.32,-0.2,
1863,-0.3,-0.19,
1864,-0.29,-0.185,
1865,-0.28,-0.185,
1866,-0.255,-0.2,
1867,-0.27,-0.215,
1868,-0.265,-0.22,
1869,-0.265,-0.225,
1870,-0.255,-0.235,
1871,-0.27,-0.235,
1872,-0.27,-0.255,
1873,-0.285,-0.27,
1874,-0.28,-0.255,
1875,-0.275,-0.25,
1876,-0.27,-0.245,
1877,-0.28,-0.25,
1878,-0.285,-0.255,
1879,-0.29,-0.265,
1880,-0.3,-0.275,
1881,-0.3,-0.26,
1882,-0.3,-0.255,
1883,-0.295,-0.25,
1884,-0.295,-0.265,
1885,-0.3,-0.265,
1886,-0.315,-0.25,
1887,-0.305,-0.24,
1888,-0.3,-0.23,
1889,-0.285,-0.225,
1890,-0.29,-0.225,
1891,-0.295,-0.235,
1892,-0.31,-0.235,
1893,-0.3,-0.23,
1894,-0.29,-0.225,
1895,-0.29,-0.225,
1896,-0.295,-0.24,
1897,-0.3,-0.23,
1898,-0.3,-0.225,
1899,-0.3,-0.205,
1900,-0.3,-0.195,
1901,-0.31,-0.2,
1902,-0.305,-0.21,
1903,-0.315,-0.22,
1904,-0.315,-0.21,
1905,-0.315,-0.205,
1906,-0.31,-0.195,
1907,-0.3,-0.2,
1908,-0.305,-0.215,
1909,-0.31,-0.215,
1910,-0.31,-0.21,
1911,-0.295,-0.19,
1912,-0.295,-0.175,
1913,-0.295,-0.18,
1914,-0.295,-0.19,
1915,-0.3,-0.19,
1916,-0.29,-0.18,
1917,-0.285,-0.175,
1918,-0.27,-0.165,
1919,-0.275,-0.165,
1920,-0.27,-0.17,
1921,-0.28,-0.18,
1922,-0.275,-0.18,
1923,-0.27,-0.18,
1924,-0.275,-0.155,
1925,-0.285,-0.16,
1926,-0.275,-0.16,
1927,-0.275,-0.18,
1928,-0.27,-0.195,
1929,-0.27,-0.205,
1930,-0.265,-0.195,
1931,-0.27,-0.19,
1932,-0.265,-0.195,
1933,-0.26,-0.195,
1934,-0.255,-0.21,
1935,-0.23,-0.21,
1936,-0.22,-0.22,
1937,-0.225,-0.225,
1938,-0.24,-0.24,
1939,-0.245,-0.25,
1940,-0.24,-0.245,
1941,-0.245,-0.24,
1942,-0.235,-0.24,
1943,-0.23,-0.225,
1944,-0.225,-0.245,
1945,-0.22,-0.26,
1946,-0.225,-0.24,
1947,-0.205,-0.215,
1948,-0.2,-0.205,
1949,-0.2,-0.205,
1950,-0.19,-0.215,
1951,-0.18,-0.25,
1952,-0.14,-0.29,
1953,-0.125,-0.38,
1954,-0.11,-0.47,
1955,-0.08,-0.54,
1956,-0.045,-0.625,
1957,0.03,-0.69,
1958,0.125,-0.775,
1959,0.245,-0.855,
1960,0.35,-0.95,
1961,0.465,-0.985,
1962,0.565,-0.98,
1963,0.66,-0.925,
1964,0.74,-0.845,
1965,0.82,-0.77,N
1966,0.885,-0.66,
1967,0.875,-0.525,
1968,0.75,-0.395,
1969,0.58,-0.295,
1970,0.37,-0.2,
1971,0.165,-0.16,
1972,-0.005,-0.165,
1973,-0.125,-0.225,
1974,-0.205,-0.275,
1975,-0.27,-0.295,
1976,-0.29,-0.275,
1977,-0.285,-0.24,
1978,-0.245,-0.23,
1979,-0.22,-0.225,
1980,-0.22,-0.225,
1981,-0.23,-0.22,
1982,-0.245,-0.205,
1983,-0.245,-0.19,
1984,-0.26,-0.18,
1985,-0.26,-0.18,
1986,-0.29,-0.19,
1987,-0.285,-0.195,
1988,-0.305,-0.185,
1989,-0.3,-0.17,
1990,-0.3,-0.18,
1991,-0.315,-0.175,
1992,-0.335,-0.19,
1993,-0.335,-0.19,
1994,-0.35,-0.19,
1995,-0.36,-0.175,
1996,-0.355,-0.16,
1997,-0.37,-0.145,
1998,-0.37,-0.165,
1999,-0.36,-0.165,
2000,-0.335,-0.155,
2001,-0.3,-0.16,
2002,-0.285,-0.16,
2003,-0.28,-0.175,
2004,-0.275,-0.19,
2005,-0.285,-0.205,
2006,-0.295,-0.21,
2007,-0.29,-0.235,
2008,-0.285,-0.255,
2009,-0.275,-0.285,
2010,-0.285,-0.305,
2011,-0.285,-0.32,
2012,-0.28,-0.31,
2013,-0.285,-0.295,
2014,-0.275,-0.295,
2015,-0.28,-0.29,
2016,-0.27,-0.29,
2017,-0.265,-0.305,
2018,-0.255,-0.305,
2019,-0.25,-0.295,
2020,-0.24,-0.29,
2021,-0.235,-0.295,
2022,-0.245,-0.315,
2023,-0.25,-0.32,
2024,-0.245,-0.295,
2025,-0.23,-0.295,
2026,-0.205,-0.28,
2027,-0.205,-0.29,
2028,-0.2,-0.305,
2029,-0.21,-0.315,
2030,-0.205,-0.305,
2031,-0.205,-0.3,
2032,-0.2,-0.29,
2033,-0.205,-0.295,
2034,-0.21,-0.295,
2035,-0.205,-0.31,
2036,-0.215,-0.3,
2037,-0.205,-0.295,
2038,-0.18,-0.285,
2039,-0.175,-0.29,
2040,-0.18,-0.285,
2041,-0.18,-0.28,
2042,-0.175,-0.275,
2043,-0.17,-0.265,
2044,-0.165,-0.27,
2045,-0.175,-0.29,
2046,-0.18,-0.295,
2047,-0.19,-0.31,
2048,-0.18,-0.295,
2049,-0.16,-0.285,
2050,-0.155,-0.28,
2051,-0.155,-0.29,
2052,-0.15,-0.295,
2053,-0.15,-0.31,
2054,-0.14,-0.315,
2055,-0.135,-0.305,
2056,-0.13,-0.295,
2057,-0.125,-0.285,
2058,-0.14,-0.29,
2059,-0.15,-0.295,
2060,-0.155,-0.275,
2061,-0.15,-0.27,
2062,-0.155,-0.25,
2063,-0.155,-0.25,
2064,-0.165,-0.24,
2065,-0.17,-0.24,
2066,-0.165,-0.23,
2067,-0.14,-0.235,
2068,-0.14,-0.26,
2069,-0.14,-0.28,
2070,-0.15,-0.3,
2071,-0.17,-0.315,
2072,-0.16,-0.31,
2073,-0.175,-0.285,
2074,-0.17,-0.28,
2075,-0.175,-0.28,
2076,-0.19,-0.295,
2077,-0.205,-0.295,
2078,-0.22,-0.285,
2079,-0.21,-0.28,
2080,-0.2,-0.27,
2081,-0.2,-0.27,
2082,-0.21,-0.28,
2083,-0.215,-0.27,
2084,-0.22,-0.265,
2085,-0.21,-0.24,
2086,-0.205,-0.235,
2087,-0.2,-0.225,
2088,-0.215,-0.245,
2089,-0.21,-0.24,
2090,-0.21,-0.225,
2091,-0.2,-0.205,
2092,-0.2,-0.21,
2093,-0.205,-0.21,
2094,-0.215,-0.215,
2095,-0.22,-0.22,
2096,-0.225,-0.215,
2097,-0.225,-0.195,
2098,-0.215,-0.19,
2099,-0.225,-0.2,
2100,-0.23,-0.195,
2101,-0.245,-0.19,
2102,-0.235,-0.17,
2103,-0.225,-0.16,
2104,-0.225,-0.16,
2105,-0.23,-0.175,
2106,-0.23,-0.195,
2107,-0.23,-0.19,
2108,-0.22,-0.175,
2109,-0.215,-0.165,
2110,-0.205,-0.155,
2111,-0.21,-0.165,
2112,-0.22,-0.175,
2113,-0.23,-0.195,
2114,-0.245,-0.2,
2115,-0.235,-0.2,
2116,-0.24,-0.2,
2117,-0.255,-0.19,
2118,-0.265,-0.19,
2119,-0.28,-0.195,
2120,-0.285,-0.195,
2121,-0.28,-0.195,
2122,-0.275,-0.185,
2123,-0.28,-0.19,
2124,-0.275,-0.205,
2125,-0.275,-0.205,
2126,-0.265,-0.205,
2127,-0.255,-0.2,
2128,-0.25,-0.195,
2129,-0.255,-0.2,
2130,-0.26,-0.22,
2131,-0.265,-0.225,
2132,-0.26,-0.24,
2133,-0.245,-0.24,
2134,-0.25,-0.24,
2135,-0.24,-0.23,
2136,-0.245,-0.225,
2137,-0.255,-0.215,
2138,-0.265,-0.21,
2139,-0.24,-0.22,
2140,-0.24,-0.24,
2141,-0.24,-0.245,
2142,-0.235,-0.25,
2143,-0.24,-0.26,
2144,-0.24,-0.245,
2145,-0.245,-0.235,
2146,-0.24,-0.24,
2147,-0.245,-0.235,
2148,-0.255,-0.245,
2149,-0.26,-0.25,
2150,-0.26,-0.225,
2151,-0.255,-0.22,
2152,-0.245,-0.2,
2153,-0.245,-0.195,
2154,-0.24,-0.2,
2155,-0.255,-0.2,
2156,-0.265,-0.18,
2157,-0.26,-0.16,
2158,-0.265,-0.145,
2159,-0.255,-0.15,
2160,-0.26,-0.15,
2161,-0.26,-0.16,
2162,-0.27,-0.185,
2163,-0.26,-0.19,
2164,-0.26,-0.19,
2165,-0.265,-0.19,
2166,-0.275,-0.195,
2167,-0.295,-0.195,
2168,-0.3,-0.195,
2169,-0.295,-0.185,
2170,-0.285,-0.18,
2171,-0.29,-0.185,
2172,-0.295,-0.2,
2173,-0.325,-0.2,
2174,-0.33,-0.18,
2175,-0.325,-0.17,
2176,-0.32,-0.16,
2177,-0.32,-0.155,
2178,-0.31,-0.165,
2179,-0.33,-0.18,
2180,-0.335,-0.17,
2181,-0.305,-0.16,
2182,-0.285,-0.17,
2183,-0.27,-0.175,
2184,-0.275,-0.195,
2185,-0.29,-0.21,
2186,-0.285,-0.185,
2187,-0.275,-0.185,
2188,-0.265,-0.175,
2189,-0.26,-0.19,
2190,-0.265,-0.2,
2191,-0.275,-0.215,
2192,-0.27,-0.2,
2193,-0.26,-0.19,
2194,-0.25,-0.19,
2195,-0.245,-0.21,
2196,-0.245,-0.21,
2197,-0.255,-0.23,
2198,-0.24,-0.22,
2199,-0.235,-0.21,
2200,-0.23,-0.205,
2201,-0.235,-0.21,
2202,-0.24,-0.205,
2203,-0.245,-0.21,
2204,-0.245,-0.205,
2205,-0.235,-0.195,
2206,-0.225,-0.185,
2207,-0.235,-0.19,
2208,-0.24,-0.185,
2209,-0.245,-0.2,
2210,-0.25,-0.18,
2211,-0.235,-0.17,
2212,-0.225,-0.18,
2213,-0.23,-0.195,
2214,-0.235,-0.215,
2215,-0.235,-0.21,
2216,-0.235,-0.195,
2217,-0.24,-0.17,
2218,-0.24,-0.155,
2219,-0.235,-0.16,
2220,-0.23,-0.15,
2221,-0.235,-0.15,
2222,-0.22,-0.15,
2223,-0.215,-0.15,
2224,-0.19,-0.185,
2225,-0.165,-0.29,
2226,-0.15,-0.41,
2227,-0.13,-0.515,
2228,-0.085,-0.6,
2229,0.02,-0.675,
2230,0.145,-0.775,
2231,0.255,-0.88,
2232,0.365,-0.96,
2233,0.475,-0.955,
2234,0.595,-0.88,
2235,0.705,-0.78,
2236,0.81,-0.68,N
2237,0.865,-0.57,
2238,0.86,-0.425,
2239,0.755,-0.31,
2240,0.575,-0.215,
2241,0.36,-0.125,
2242,0.155,-0.085,
2243,-0.025,-0.11,
2244,-0.165,-0.17,
2245,-0.27,-0.22,
2246,-0.31,-0.23,
2247,-0.3,-0.21,
2248,-0.26,-0.195,
2249,-0.205,-0.2,
2250,-0.19,-0.215,
2251,-0.195,-0.22,
2252,-0.215,-0.215,
2253,-0.22,-0.21,
2254,-0.215,-0.195,
2255,-0.225,-0.195,
2256,-0.235,-0.21,
2257,-0.245,-0.205,
2258,-0.255,-0.19,
2259,-0.24,-0.18,
2260,-0.23,-0.19,
2261,-0.24,-0.19,
2262,-0.255,-0.21,
2263,-0.26,-0.215,
2264,-0.275,-0.225,
2265,-0.265,-0.215,
2266,-0.255,-0.205,
2267,-0.25,-0.205,
2268,-0.265,-0.21,
2269,-0.275,-0.235,
2270,-0.28,-0.225,
2271,-0.27,-0.21,
2272,-0.265,-0.215,
2273,-0.275,-0.215,
2274,-0.285,-0.24,
2275,-0.3,-0.24,
2276,-0.295,-0.24,
2277,-0.28,-0.235,
2278,-0.275,-0.22,
2279,-0.275,-0.22,
2280,-0.275,-0.235,
2281,-0.29,-0.24,
2282,-0.28,-0.235,
2283,-0.275,-0.22,
2284,-0.265,-0.205,
2285,-0.27,-0.22,
2286,-0.275,-0.235,
2287,-0.285,-0.24,
2288,-0.28,-0.235,
2289,-0.27,-0.225,
2290,-0.26,-0.235,
2291,-0.26,-0.235,
2292,-0.26,-0.24,
2293,-0.27,-0.245,
2294,-0.265,-0.225,
2295,-0.25,-0.215,
2296,-0.235,-0.205,
2297,-0.24,-0.2,
2298,-0.235,-0.21,
2299,-0.24,-0.195,
2300,-0.22,-0.18,
2301,-0.21,-0.175,
2302,-0.195,-0.18,
2303,-0.19,-0.18,
2304,-0.185,-0.205,
2305,-0.185,-0.215,
2306,-0.175,-0.205,
2307,-0.165,-0.21,
2308,-0.145,-0.21,
2309,-0.15,-0.22,
2310,-0.145,-0.235,
2311,-0.15,-0.25,
2312,-0.14,-0.25,
2313,-0.13,-0.27,
2314,-0.135,-0.275,
2315,-0.13,-0.3,
2316,-0.135,-0.31,
2317,-0.14,-0.32,
2318,-0.13,-0.305,
2319,-0.12,-0.29,
2320,-0.11,-0.305,
2321,-0.12,-0.305,
2322,-0.13,-0.3,
2323,-0.135,-0.305,
2324,-0.14,-0.29,
2325,-0.14,-0.27,
2326,-0.13,-0.265,
2327,-0.14,-0.26,
2328,-0.155,-0.265,
2329,-0.165,-0.275,
2330,-0.175,-0.255,
2331,-0.18,-0.24,
2332,-0.18,-0.24,
2333,-0.19,-0.23,
2334,-0.2,-0.25,
2335,-0.215,-0.25,
2336,-0.225,-0.24,
2337,-0.225,-0.235,
2338,-0.225,-0.24,
2339,-0.23,-0.25,
2340,-0.245,-0.26,
2341,-0.26,-0.27,
2342,-0.26,-0.25,
2343,-0.25,-0.235,
2344,-0.25,-0.24,
2345,-0.265,-0.23,
2346,-0.275,-0.23,
2347,-0.285,-0.23,
2348,-0.28,-0.22,
2349,-0.265,-0.205,
2350,-0.27,-0.22,
2351,-0.27,-0.215,
2352,-0.29,-0.24,
2353,-0.295,-0.235,
2354,-0.3,-0.225,
2355,-0.295,-0.22,
2356,-0.3,-0.21,
2357,-0.295,-0.2,
2358,-0.305,-0.2,
2359,-0.3,-0.215,
2360,-0.3,-0.195,
2361,-0.295,-0.175,
2362,-0.275,-0.165,
2363,-0.28,-0.155,
2364,-0.28,-0.155,
2365,-0.28,-0.15,
2366,-0.28,-0.145,
2367,-0.275,-0.14,
2368,-0.265,-0.145,
2369,-0.275,-0.125,
2370,-0.27,-0.135,
2371,-0.285,-0.13,
2372,-0.285,-0.115,
2373,-0.28,-0.105,
2374,-0.27,-0.11,
2375,-0.26,-0.115,
2376,-0.255,-0.13,
2377,-0.25,-0.14,
2378,-0.25,-0.15,
2379,-0.235,-0.145,
2380,-0.235,-0.15,
2381,-0.24,-0.16,
2382,-0.24,-0.17,
2383,-0.26,-0.19,
2384,-0.26,-0.185,
2385,-0.24,-0.205,
2386,-0.245,-0.205,
2387,-0.245,-0.23,
2388,-0.255,-0.24,
2389,-0.255,-0.24,
2390,-0.265,-0.24,
2391,-0.255,-0.225,
2392,-0.25,-0.225,
2393,-0.255,-0.22,
2394,-0.25,-0.235,
2395,-0.26,-0.235,
2396,-0.26,-0.22,
2397,-0.265,-0.22,
2398,-0.26,-0.215,
2399,-0.265,-0.215,
2400,-0.275,-0.215,
2401,-0.28,-0.225,
2402,-0.28,-0.23,
2403,-0.27,-0.22,
2404,-0.265,-0.21,
2405,-0.27,-0.22,
2406,-0.28,-0.215,
2407,-0.28,-0.215,
2408,-0.285,-0.2,
2409,-0.28,-0.21,
2410,-0.275,-0.21,
2411,-0.28,-0.23,
2412,-0.285,-0.245,
2413,-0.305,-0.25,
2414,-0.31,-0.235,
2415,-0.3,-0.225,
2416,-0.29,-0.205,
2417,-0.29,-0.2,
2418,-0.29,-0.21,
2419,-0.29,-0.21,
2420,-0.31,-0.205,
2421,-0.29,-0.19,
2422,-0.29,-0.185,
2423,-0.295,-0.17,
2424,-0.305,-0.185,
2425,-0.31,-0.19,
2426,-0.305,-0.185,
2427,-0.31,-0.17,
2428,-0.3,-0.16,
2429,-0.305,-0.165,
2430,-0.31,-0.175,
2431,-0.32,-0.175,
2432,-0.33,-0.16,
2433,-0.32,-0.155,
2434,-0.31,-0.16,
2435,-0.305,-0.155,
2436,-0.32,-0.16,
2437,-0.34,-0.16,
2438,-0.35,-0.15,
2439,-0.34,-0.14,
2440,-0.325,-0.13,
2441,-0.335,-0.11,
2442,-0.325,-0.125,
2443,-0.315,-0.125,
2444,-0.295,-0.135,
2445,-0.25,-0.13,
2446,-0.225,-0.13,
2447,-0.22,-0.145,
2448,-0.225,-0.165,
2449,-0.24,-0.175,
2450,-0.24,-0.16,
2451,-0.235,-0.165,
2452,-0.22,-0.165,
2453,-0.23,-0.19,
2454,-0.23,-0.21,
2455,-0.24,-0.225,
2456,-0.24,-0.225,
2457,-0.23,-0.21,
2458,-0.225,-0.215,
2459,-0.22,-0.22,
2460,-0.245,-0.23,
2461,-0.24,-0.24,
2462,-0.255,-0.225,
2463,-0.245,-0.215,
2464,-0.235,-0.215,
2465,-0.245,-0.21,
2466,-0.255,-0.215,
2467,-0.255,-0.22,
2468,-0.265,-0.21,
2469,-0.255,-0.2,
2470,-0.26,-0.19,
2471,-0.265,-0.2,
2472,-0.275,-0.21,
2473,-0.28,-0.205,
2474,-0.27,-0.205,
2475,-0.27,-0.2,
2476,-0.255,-0.2,
2477,-0.25,-0.205,
2478,-0.24,-0.19,
2479,-0.245,-0.185,
2480,-0.235,-0.155,
2481,-0.24,-0.135,
2482,-0.215,-0.145,
2483,-0.19,-0.205,
2484,-0.155,-0.305,
2485,-0.145,-0.39,
2486,-0.11,-0.485,
2487,-0.045,-0.55,
2488,0.06,-0.635,
2489,0.165,-0.745,
2490,0.26,-0.875,
2491,0.35,-0.975,
2492,0.47,-0.99,
2493,0.59,-0.945,
2494,0.67,-0.875,
2495,0.725,-0.81,N
2496,0.755,-0.735,
2497,0.75,-0.59,
2498,0.68,-0.415,
2499,0.56,-0.265,
2500,0.425,-0.19,
2501,0.235,-0.185,
2502,0.04,-0.22,
2503,-0.095,-0.245,
2504,-0.15,-0.235,
2505,-0.165,-0.21,
2506,-0.17,-0.195,
2507,-0.17,-0.205,
2508,-0.18,-0.2,
2509,-0.175,-0.21,
2510,-0.195,-0.185,
2511,-0.2,-0.175,
2512,-0.205,-0.17,
2513,-0.23,-0.195,
2514,-0.25,-0.205,
2515,-0.27,-0.235,
2516,-0.27,-0.215,
2517,-0.265,-0.21,
2518,-0.265,-0.205,
2519,-0.285,-0.205,
2520,-0.3,-0.22,
2521,-0.305,-0.21,
2522,-0.305,-0.2,
2523,-0.295,-0.195,
2524,-0.28,-0.19,
2525,-0.29,-0.18,
2526,-0.29,-0.185,
2527,-0.295,-0.2,
2528,-0.295,-0.205,
2529,-0.295,-0.205,
2530,-0.285,-0.19,
2531,-0.275,-0.195,
2532,-0.27,-0.2,
2533,-0.285,-0.205,
2534,-0.29,-0.195,
2535,-0.285,-0.185,
2536,-0.275,-0.175,
2537,-0.285,-0.175,
2538,-0.28,-0.17,
2539,-0.28,-0.175,
2540,-0.28,-0.175,
2541,-0.275,-0.165,
2542,-0.27,-0.145,
2543,-0.275,-0.145,
2544,-0.285,-0.14,
2545,-0.295,-0.155,
2546,-0.29,-0.155,
2547,-0.28,-0.135,
2548,-0.275,-0.14,
2549,-0.275,-0.165,
2550,-0.28,-0.18,
2551,-0.285,-0.185,
2552,-0.28,-0.205,
2553,-0.275,-0.2,
2554,-0.265,-0.21,
2555,-0.255,-0.235,
2556,-0.265,-0.25,
2557,-0.255,-0.255,
2558,-0.235,-0.265,
2559,-0.21,-0.245,
2560,-0.195,-0.245,
2561,-0.19,-0.265,
2562,-0.18,-0.285,
2563,-0.185,-0.3,
2564,-0.185,-0.29,
2565,-0.165,-0.27,
2566,-0.155,-0.275,
2567,-0.16,-0.27,
2568,-0.17,-0.285,
2569,-0.175,-0.295,
2570,-0.165,-0.285,
2571,-0.155,-0.275,
2572,-0.145,-0.265,
2573,-0.145,-0.255,
2574,-0.14,-0.26,
2575,-0.14,-0.25,
2576,-0.14,-0.225,
2577,-0.135,-0.235,
2578,-0.125,-0.23,
2579,-0.13,-0.23,
2580,-0.14,-0.235,
2581,-0.165,-0.235,
2582,-0.175,-0.225,
2583,-0.175,-0.215,
2584,-0.18,-0.21,
2585,-0.2,-0.21,
2586,-0.215,-0.21,
2587,-0.23,-0.215,
2588,-0.24,-0.185,
2589,-0.235,-0.175,
2590,-0.235,-0.165,
2591,-0.25,-0.16,
2592,-0.27,-0.16,
2593,-0.27,-0.155,
2594,-0.265,-0.145,
2595,-0.27,-0.145,
2596,-0.275,-0.145,
2597,-0.29,-0.155,
2598,-0.295,-0.155,
2599,-0.29,-0.165,
2600,-0.295,-0.16,
2601,-0.285,-0.135,
2602,-0.275,-0.135,
2603,-0.285,-0.13,
2604,-0.285,-0.135,
2605,-0.295,-0.145,
2606,-0.29,-0.145,
2607,-0.28,-0.135,
2608,-0.28,-0.145,
2609,-0.285,-0.15,
2610,-0.29,-0.15,
2611,-0.29,-0.17,
2612,-0.295,-0.16,
2613,-0.295,-0.16,
2614,-0.29,-0.175,
2615,-0.285,-0.18,
2616,-0.275,-0.195,
2617,-0.275,-0.185,
2618,-0.26,-0.195,
2619,-0.25,-0.195,
2620,-0.235,-0.21,
2621,-0.235,-0.215,
2622,-0.24,-0.215,
2623,-0.24,-0.23,
2624,-0.255,-0.225,
2625,-0.245,-0.215,
2626,-0.245,-0.21,
2627,-0.25,-0.21,
2628,-0.25,-0.215,
2629,-0.245,-0.225,
2630,-0.245,-0.21,
2631,-0.24,-0.2,
2632,-0.235,-0.2,
2633,-0.25,-0.205,
2634,-0.245,-0.205,
2635,-0.255,-0.215,
2636,-0.255,-0.215,
2637,-0.255,-0.215,
2638,-0.25,-0.205,
2639,-0.26,-0.21,
2640,-0.265,-0.23,
2641,-0.27,-0.23,
2642,-0.27,-0.22,
2643,-0.27,-0.21,
2644,-0.27,-0.195,
2645,-0.27,-0.185,
2646,-0.27,-0.205,
2647,-0.27,-0.195,
2648,-0.29,-0.175,
2649,-0.29,-0.165,
2650,-0.27,-0.165,
2651,-0.27,-0.155,
2652,-0.29,-0.165,
2653,-0.285,-0.16,
2654,-0.285,-0.15,
2655,-0.285,-0.145,
2656,-0.28,-0.15,
2657,-0.285,-0.165,
2658,-0.285,-0.165,
2659,-0.295,-0.17,
2660,-0.29,-0.16,
2661,-0.29,-0.135,
2662,-0.285,-0.14,
2663,-0.295,-0.13,
2664,-0.295,-0.14,
2665,-0.305,-0.145,
2666,-0.3,-0.145,
2667,-0.305,-0.13,
2668,-0.295,-0.135,
2669,-0.295,-0.15,
2670,-0.3,-0.16,
2671,-0.315,-0.17,
2672,-0.315,-0.17,
2673,-0.32,-0.165,
2674,-0.31,-0.175,
2675,-0.3,-0.17,
2676,-0.31,-0.16,
2677,-0.305,-0.165,
2678,-0.29,-0.16,
2679,-0.275,-0.17,
2680,-0.265,-0.17,
2681,-0.27,-0.19,
2682,-0.275,-0.2,
2683,-0.28,-0.2,
2684,-0.285,-0.215,
2685,-0.28,-0.205,
2686,-0.275,-0.225,
2687,-0.285,-0.235,
2688,-0.285,-0.245,
2689,-0.29,-0.26,
2690,-0.29,-0.24,
2691,-0.29,-0.225,
2692,-0.28,-0.225,
2693,-0.28,-0.225,
2694,-0.29,-0.23,
2695,-0.305,-0.235,
2696,-0.31,-0.24,
2697,-0.295,-0.235,
2698,-0.28,-0.24,
2699,-0.285,-0.24,
2700,-0.295,-0.245,
2701,-0.3,-0.24,
2702,-0.3,-0.22,
2703,-0.305,-0.2,
2704,-0.29,-0.17,
2705,-0.295,-0.155,
2706,-0.27,-0.145,
2707,-0.265,-0.165,
2708,-0.235,-0.19,
2709,-0.2,-0.26,
2710,-0.18,-0.355,
2711,-0.165,-0.43,
2712,-0.135,-0.52,
2713,-0.07,-0.58,
2714,0.02,-0.665,
2715,0.13,-0.765,
2716,0.235,-0.885,
2717,0.35,-0.98,
2718,0.485,-0.99,
2719,0.585,-0.93,
2720,0.68,-0.83,
2721,0.76,-0.715,N
2722,0.815,-0.54,
2723,0.76,-0.365,
2724,0.605,-0.255,
2725,0.4,-0.165,
2726,0.16,-0.12,
2727,-0.04,-0.13,
2728,-0.165,-0.175,
2729,-0.235,-0.185,
2730,-0.285,-0.195,
2731,-0.295,-0.19,
2732,-0.285,-0.18,
2733,-0.25,-0.16,
2734,-0.235,-0.16,
2735,-0.24,-0.15,
2736,-0.265,-0.17,
2737,-0.295,-0.18,
2738,-0.3,-0.17,
2739,-0.295,-0.175,
2740,-0.27,-0.18,
2741,-0.265,-0.19,
2742,-0.265,-0.205,
2743,-0.275,-0.22,
2744,-0.28,-0.205,
2745,-0.27,-0.205,
2746,-0.27,-0.215,
2747,-0.275,-0.225,
2748,-0.28,-0.235,
2749,-0.3,-0.245,
2750,-0.3,-0.245,
2751,-0.31,-0.245,
2752,-0.3,-0.25,
2753,-0.31,-0.26,
2754,-0.32,-0.275,
2755,-0.34,-0.28,
2756,-0.34,-0.275,
2757,-0.325,-0.255,
2758,-0.315,-0.255,
2759,-0.32,-0.265,
2760,-0.32,-0.275,
2761,-0.315,-0.275,
2762,-0.31,-0.275,
2763,-0.295,-0.255,
2764,-0.285,-0.245,
2765,-0.29,-0.255,
2766,-0.295,-0.265,
2767,-0.3,-0.255,
2768,-0.295,-0.26,
2769,-0.29,-0.24,
2770,-0.28,-0.24,
2771,-0.29,-0.245,
2772,-0.29,-0.25,
2773,-0.3,-0.265,
2774,-0.28,-0.255,
2775,-0.275,-0.24,
2776,-0.265,-0.24,
2777,-0.265,-0.24,
2778,-0.265,-0.255,
2779,-0.265,-0.265,
2780,-0.26,-0.245,
2781,-0.25,-0.24,
2782,-0.24,-0.225,
2783,-0.255,-0.245,
2784,-0.255,-0.25,
2785,-0.245,-0.265,
2786,-0.24,-0.265,
2787,-0.23,-0.245,
2788,-0.22,-0.26,
2789,-0.215,-0.255,
2790,-0.215,-0.255,
2791,-0.205,-0.26,
2792,-0.2,-0.245,
2793,-0.195,-0.245,
2794,-0.18,-0.25,
2795,-0.165,-0.25,
2796,-0.15,-0.245,
2797,-0.145,-0.265,
2798,-0.13,-0.27,
2799,-0.11,-0.25,
2800,-0.105,-0.25,
2801,-0.1,-0.26,
2802,-0.11,-0.28,
2803,-0.125,-0.28,
2804,-0.14,-0.27,
2805,-0.125,-0.26,
2806,-0.13,-0.265,
2807,-0.13,-0.265,
2808,-0.145,-0.26,
2809,-0.16,-0.265,
2810,-0.175,-0.25,
2811,-0.175,-0.245,
2812,-0.17,-0.245,
2813,-0.19,-0.245,
2814,-0.22,-0.25,
2815,-0.24,-0.25,
2816,-0.245,-0.245,
2817,-0.245,-0.235,
2818,-0.25,-0.23,
2819,-0.255,-0.225,
2820,-0.27,-0.23,
2821,-0.295,-0.255,
2822,-0.295,-0.245,
2823,-0.285,-0.235,
2824,-0.27,-0.22,
2825,-0.275,-0.22,
2826,-0.28,-0.225,
2827,-0.29,-0.235,
2828,-0.3,-0.23,
2829,-0.28,-0.21,
2830,-0.28,-0.205,
2831,-0.28,-0.21,
2832,-0.29,-0.21,
2833,-0.305,-0.22,
2834,-0.305,-0.22,
2835,-0.3,-0.19,
2836,-0.29,-0.195,
2837,-0.295,-0.195,
2838,-0.3,-0.21,
2839,-0.305,-0.225,
2840,-0.31,-0.2,
2841,-0.31,-0.195,
2842,-0.3,-0.19,
2843,-0.305,-0.195,
2844,-0.31,-0.2,
2845,-0.33,-0.205,
2846,-0.335,-0.195,
2847,-0.325,-0.19,
2848,-0.315,-0.195,
2849,-0.315,-0.2,
2850,-0.31,-0.225,
2851,-0.315,-0.24,
2852,-0.315,-0.24,
2853,-0.32,-0.225,
2854,-0.31,-0.22,
2855,-0.32,-0.22,
2856,-0.33,-0.23,
2857,-0.345,-0.23,
2858,-0.345,-0.2,
2859,-0.345,-0.175,
2860,-0.315,-0.16,
2861,-0.315,-0.165,
2862,-0.305,-0.16,
2863,-0.3,-0.19,
2864,-0.285,-0.17,
2865,-0.26,-0.18,
2866,-0.245,-0.175,
2867,-0.25,-0.18,
2868,-0.255,-0.195,
2869,-0.27,-0.2,
2870,-0.27,-0.21,
2871,-0.27,-0.205,
2872,-0.265,-0.195,
2873,-0.27,-0.195,
2874,-0.28,-0.205,
2875,-0.275,-0.21,
2876,-0.27,-0.195,
2877,-0.26,-0.185,
2878,-0.255,-0.18,
2879,-0.265,-0.17,
2880,-0.27,-0.19,
2881,-0.285,-0.205,
2882,-0.285,-0.205,
2883,-0.27,-0.195,
2884,-0.255,-0.2,
2885,-0.255,-0.2,
2886,-0.27,-0.2,
2887,-0.275,-0.215,
2888,-0.275,-0.21,
2889,-0.265,-0.19,
2890,-0.255,-0.2,
2891,-0.26,-0.205,
2892,-0.265,-0.23,
2893,-0.275,-0.235,
2894,-0.275,-0.22,
2895,-0.28,-0.205,
2896,-0.265,-0.2,
2897,-0.27,-0.21,
2898,-0.27,-0.22,
2899,-0.29,-0.225,
2900,-0.29,-0.21,
2901,-0.285,-0.2,
2902,-0.28,-0.21,
2903,-0.285,-0.23,
2904,-0.3,-0.22,
2905,-0.305,-0.235,
2906,-0.315,-0.23,
2907,-0.305,-0.22,
2908,-0.29,-0.215,
2909,-0.29,-0.21,
2910,-0.305,-0.215,
2911,-0.315,-0.22,
2912,-0.305,-0.21,
2913,-0.285,-0.19,
2914,-0.275,-0.185,
2915,-0.28,-0.185,
2916,-0.3,-0.21,
2917,-0.31,-0.215,
2918,-0.305,-0.21,
2919,-0.3,-0.195,
2920,-0.285,-0.195,
2921,-0.295,-0.195,
2922,-0.3,-0.21,
2923,-0.305,-0.215,
2924,-0.31,-0.225,
2925,-0.31,-0.225,
2926,-0.29,-0.21,
2927,-0.28,-0.22,
2928,-0.295,-0.225,
2929,-0.285,-0.225,
2930,-0.275,-0.215,
2931,-0.255,-0.215,
2932,-0.225,-0.21,
2933,-0.23,-0.22,
2934,-0.235,-0.24,
2935,-0.245,-0.25,
2936,-0.245,-0.23,
2937,-0.24,-0.21,
2938,-0.22,-0.18,
2939,-0.22,-0.16,
2940,-0.215,-0.175,
2941,-0.215,-0.18,
2942,-0.205,-0.22,
2943,-0.17,-0.3,
2944,-0.135,-0.395,
2945,-0.105,-0.49,
2946,-0.065,-0.58,
2947,0.03,-0.66,
2948,0.13,-0.74,
2949,0.255,-0.825,
2950,0.385,-0.905,
2951,0.52,-0.94,
2952,0.64,-0.925,
2953,0.74,-0.865,
2954,0.825,-0.78,
2955,0.915,-0.7,N
2956,0.99,-0.59,
2957,0.965,-0.445,
2958,0.85,-0.34,
2959,0.655,-0.24,
2960,0.425,-0.15,
2961,0.19,-0.115,
2962,-0.005,-0.12,
2963,-0.145,-0.17,
2964,-0.235,-0.23,
2965,-0.305,-0.255,
2966,-0.335,-0.24,
2967,-0.325,-0.22,
2968,-0.28,-0.21,
2969,-0.26,-0.2,
2970,-0.245,-0.205,
2971,-0.25,-0.215,
2972,-0.265,-0.225,
2973,-0.26,-0.205,
2974,-0.25,-0.215,
2975,-0.265,-0.21,
2976,-0.275,-0.205,
2977,-0.285,-0.21,
2978,-0.305,-0.2,
2979,-0.295,-0.185,
2980,-0.295,-0.185,
2981,-0.31,-0.195,
2982,-0.305,-0.195,
2983,-0.31,-0.195,
2984,-0.325,-0.19,
2985,-0.325,-0.175,
2986,-0.315,-0.175,
2987,-0.32,-0.165,
2988,-0.32,-0.17,
2989,-0.32,-0.17,
2990,-0.32,-0.155,
2991,-0.32,-0.155,
2992,-0.31,-0.16,
2993,-0.315,-0.16,
2994,-0.31,-0.18,
2995,-0.3,-0.195,
2996,-0.305,-0.2,
2997,-0.29,-0.195,
2998,-0.265,-0.215,
2999,-0.28,-0.215,
3000,-0.285,-0.235,
3001,-0.295,-0.25,
3002,-0.295,-0.25,
3003,-0.275,-0.255,
3004,-0.27,-0.265,
3005,-0.27,-0.28,
3006,-0.265,-0.28,
3007,-0.27,-0.285,
3008,-0.265,-0.28,
3009,-0.26,-0.26,
3010,-0.26,-0.275,
3011,-0.255,-0.28,
3012,-0.265,-0.3,
3013,-0.26,-0.32,
3014,-0.255,-0.31,
3015,-0.25,-0.29,
3016,-0.255,-0.3,
3017,-0.235,-0.305,
3018,-0.24,-0.315,
3019,-0.245,-0.32,
3020,-0.24,-0.325,
3021,-0.235,-0.32,
3022,-0.215,-0.325,
3023,-0.215,-0.33,
3024,-0.215,-0.335,
3025,-0.22,-0.335,
3026,-0.21,-0.33,
3027,-0.195,-0.33,
3028,-0.175,-0.325,
3029,-0.175,-0.32,
3030,-0.175,-0.32,
3031,-0.175,-0.315,
3032,-0.18,-0.325,
3033,-0.165,-0.31,
3034,-0.155,-0.3,
3035,-0.155,-0.3,
3036,-0.15,-0.315,
3037,-0.155,-0.315,
3038,-0.155,-0.31,
3039,-0.155,-0.29,
3040,-0.15,-0.3,
3041,-0.145,-0.3,
3042,-0.145,-0.295,
3043,-0.155,-0.3,
3044,-0.155,-0.29,
3045,-0.155,-0.27,
3046,-0.155,-0.27,
3047,-0.16,-0.28,
3048,-0.17,-0.28,
3049,-0.185,-0.28,
3050,-0.195,-0.25,
3051,-0.2,-0.23,
3052,-0.215,-0.225,
3053,-0.225,-0.225,
3054,-0.23,-0.215,
3055,-0.255,-0.205,
3056,-0.265,-0.19,
3057,-0.27,-0.18,
3058,-0.26,-0.165,
3059,-0.27,-0.155,
3060,-0.275,-0.16,
3061,-0.275,-0.175,
3062,-0.275,-0.16,
3063,-0.255,-0.17,
3064,-0.245,-0.175,
3065,-0.245,-0.18,
3066,-0.245,-0.195,
3067,-0.255,-0.21,
3068,-0.24,-0.21,
3069,-0.235,-0.2,
3070,-0.225,-0.215,
3071,-0.23,-0.23,
3072,-0.245,-0.24,
3073,-0.255,-0.255,
3074,-0.25,-0.25,
3075,-0.25,-0.26,
3076,-0.245,-0.265,
3077,-0.25,-0.27,
3078,-0.25,-0.27,
3079,-0.255,-0.27,
3080,-0.255,-0.24,
3081,-0.255,-0.25,
3082,-0.24,-0.24,
3083,-0.225,-0.245,
3084,-0.235,-0.24,
3085,-0.24,-0.24,
3086,-0.235,-0.235,
3087,-0.22,-0.22,
3088,-0.22,-0.225,
3089,-0.23,-0.22,
3090,-0.24,-0.23,
3091,-0.25,-0.23,
3092,-0.24,-0.225,
3093,-0.23,-0.215,
3094,-0.225,-0.225,
3095,-0.225,-0.22,
3096,-0.24,-0.23,
3097,-0.245,-0.225,
3098,-0.255,-0.22,
3099,-0.24,-0.21,
3100,-0.245,-0.205,
3101,-0.24,-0.2,
3102,-0.25,-0.21,
3103,-0.255,-0.215,
3104,-0.255,-0.205,
3105,-0.24,-0.21,
3106,-0.23,-0.205,
3107,-0.235,-0.2,
3108,-0.245,-0.205,
3109,-0.26,-0.215,
3110,-0.26,-0.215,
3111,-0.25,-0.19,
3112,-0.245,-0.19,
3113,-0.25,-0.205,
3114,-0.265,-0.21,
3115,-0.27,-0.22,
3116,-0.275,-0.205,
3117,-0.275,-0.22,
3118,-0.29,-0.21,
3119,-0.275,-0.21,
3120,-0.3,-0.225,
3121,-0.32,-0.235,
3122,-0.325,-0.225,
3123,-0.32,-0.215,
3124,-0.305,-0.21,
3125,-0.315,-0.2,
3126,-0.335,-0.215,
3127,-0.345,-0.205,
3128,-0.345,-0.19,
3129,-0.32,-0.19,
3130,-0.29,-0.19,
3131,-0.285,-0.19,
3132,-0.285,-0.21,
3133,-0.275,-0.215,
3134,-0.27,-0.23,
3135,-0.25,-0.22,
3136,-0.24,-0.23,
3137,-0.21,-0.245,
3138,-0.2,-0.245,
3139,-0.205,-0.235,
3140,-0.2,-0.225,
3141,-0.19,-0.205,
3142,-0.18,-0.2,
3143,-0.195,-0.22,
3144,-0.21,-0.22,
3145,-0.21,-0.23,
3146,-0.22,-0.22,
3147,-0.22,-0.22,
3148,-0.2,-0.215,
3149,-0.205,-0.225,
3150,-0.23,-0.23,
3151,-0.25,-0.245,
3152,-0.25,-0.22,
3153,-0.24,-0.21,
3154,-0.235,-0.21,
3155,-0.235,-0.205,
3156,-0.245,-0.215,
3157,-0.27,-0.24,
3158,-0.275,-0.23,
3159,-0.27,-0.22,
3160,-0.265,-0.215,
3161,-0.26,-0.23,
3162,-0.27,-0.235,
3163,-0.275,-0.235,
3164,-0.275,-0.22,
3165,-0.265,-0.225,
3166,-0.245,-0.23,
3167,-0.255,-0.215,
3168,-0.265,-0.23,
3169,-0.28,-0.245,
3170,-0.275,-0.23,
3171,-0.27,-0.23,
3172,-0.26,-0.22,
3173,-0.26,-0.235,
3174,-0.265,-0.235,
3175,-0.285,-0.25,
3176,-0.285,-0.245,
3177,-0.275,-0.235,
3178,-0.26,-0.23,
3179,-0.26,-0.215,
3180,-0.265,-0.22,
3181,-0.27,-0.205,
3182,-0.26,-0.21,
3183,-0.23,-0.24,
3184,-0.195,-0.325,
3185,-0.175,-0.41,
3186,-0.155,-0.485,
3187,-0.12,-0.545,
3188,-0.04,-0.62,
3189,0.065,-0.675,
3190,0.16,-0.785,
3191,0.255,-0.915,
3192,0.345,-1.025,
3193,0.45,-1.07,
3194,0.545,-1.05,
3195,0.61,-1.005,
3196,0.675,-0.93,
3197,0.73,-0.83,N
3198,0.745,-0.71,
3199,0.68,-0.555,
3200,0.585,-0.405,
3201,0.46,-0.305,
3202,0.32,-0.25,
3203,0.155,-0.23,
3204,0.015,-0.255,
3205,-0.055,-0.285,
3206,-0.105,-0.275,
3207,-0.135,-0.265,
3208,-0.13,-0.255,
3209,-0.135,-0.235,
3210,-0.14,-0.245,
3211,-0.155,-0.245,
3212,-0.175,-0.235,
3213,-0.185,-0.23,
3214,-0.185,-0.225,
3215,-0.2,-0.235,
3216,-0.215,-0.26,
3217,-0.235,-0.255,
3218,-0.245,-0.24,
3219,-0.245,-0.235,
3220,-0.24,-0.23,
3221,-0.25,-0.23,
3222,-0.25,-0.245,
3223,-0.28,-0.245,
3224,-0.285,-0.25,
3225,-0.275,-0.24,
3226,-0.275,-0.23,
3227,-0.275,-0.23,
3228,-0.275,-0.24,
3229,-0.285,-0.245,
3230,-0.29,-0.24,
3231,-0.28,-0.235,
3232,-0.275,-0.235,
3233,-0.285,-0.26,
3234,-0.285,-0.265,
3235,-0.295,-0.275,
3236,-0.29,-0.27,
3237,-0.28,-0.255,
3238,-0.285,-0.25,
3239,-0.29,-0.26,
3240,-0.295,-0.265,
3241,-0.295,-0.27,
3242,-0.31,-0.26,
3243,-0.3,-0.255,
3244,-0.28,-0.245,
3245,-0.285,-0.245,
3246,-0.285,-0.255,
3247,-0.29,-0.255,
3248,-0.29,-0.26,
3249,-0.29,-0.25,
3250,-0.275,-0.265,
3251,-0.285,-0.26,
3252,-0.265,-0.27,
3253,-0.275,-0.265,
3254,-0.27,-0.26,
3255,-0.255,-0.245,
3256,-0.24,-0.255,
3257,-0.245,-0.25,
3258,-0.23,-0.245,
3259,-0.235,-0.23,
3260,-0.235,-0.235,
3261,-0.215,-0.225,
3262,-0.205,-0.22,
3263,-0.205,-0.225,
3264,-0.22,-0.235,
3265,-0.245,-0.245,
3266,-0.23,-0.23,
3267,-0.21,-0.215,
3268,-0.205,-0.225,
3269,-0.205,-0.23,
3270,-0.215,-0.24,
3271,-0.21,-0.25,
3272,-0.195,-0.24,
3273,-0.18,-0.245,
3274,-0.165,-0.27,
3275,-0.155,-0.275,
3276,-0.155,-0.305,
3277,-0.14,-0.3,
3278,-0.125,-0.295,
3279,-0.105,-0.285,
3280,-0.105,-0.29,
3281,-0.1,-0.295,
3282,-0.115,-0.315,
3283,-0.135,-0.305,
3284,-0.125,-0.29,
3285,-0.11,-0.29,
3286,-0.1,-0.285,
3287,-0.11,-0.275,
3288,-0.115,-0.295,
3289,-0.125,-0.285,
3290,-0.13,-0.275,
3291,-0.125,-0.265,
3292,-0.115,-0.27,
3293,-0.13,-0.265,
3294,-0.145,-0.29,
3295,-0.16,-0.285,
3296,-0.165,-0.275,
3297,-0.17,-0.265,
3298,-0.165,-0.25,
3299,-0.17,-0.255,
3300,-0.195,-0.26,
3301,-0.215,-0.265,
3302,-0.215,-0.25,
3303,-0.215,-0.235,
3304,-0.22,-0.24,
3305,-0.215,-0.235,
3306,-0.23,-0.25,
3307,-0.24,-0.255,
3308,-0.255,-0.245,
3309,-0.245,-0.23,
3310,-0.245,-0.225,
3311,-0.24,-0.225,
3312,-0.25,-0.24,
3313,-0.265,-0.24,
3314,-0.26,-0.23,
3315,-0.235,-0.21,
3316,-0.225,-0.21,
3317,-0.225,-0.2,
3318,-0.235,-0.23,
3319,-0.26,-0.245,
3320,-0.265,-0.23,
3321,-0.25,-0.21,
3322,-0.24,-0.21,
3323,-0.26,-0.21,
3324,-0.26,-0.23,
3325,-0.27,-0.215,
3326,-0.27,-0.23,
3327,-0.265,-0.205,
3328,-0.25,-0.215,
3329,-0.25,-0.23,
3330,-0.255,-0.25,
3331,-0.27,-0.255,
3332,-0.285,-0.26,
3333,-0.275,-0.24,
3334,-0.265,-0.24,
3335,-0.28,-0.24,
3336,-0.28,-0.255,
3337,-0.285,-0.255,
3338,-0.285,-0.25,
3339,-0.28,-0.235,
3340,-0.27,-0.235,
3341,-0.27,-0.24,
3342,-0.26,-0.245,
3343,-0.255,-0.24,
3344,-0.25,-0.23,
3345,-0.235,-0.22,
3346,-0.22,-0.215,
3347,-0.215,-0.215,
3348,-0.225,-0.22,
3349,-0.24,-0.215,
3350,-0.235,-0.21,
3351,-0.23,-0.215,
3352,-0.22,-0.21,
3353,-0.22,-0.215,
3354,-0.225,-0.23,
3355,-0.24,-0.23,
3356,-0.235,-0.235,
3357,-0.235,-0.235,
3358,-0.22,-0.235,
3359,-0.235,-0.245,
3360,-0.245,-0.25,
3361,-0.245,-0.25,
3362,-0.255,-0.22,
3363,-0.245,-0.215,
3364,-0.23,-0.2,
3365,-0.245,-0.205,
3366,-0.245,-0.21,
3367,-0.255,-0.22,
3368,-0.24,-0.205,
3369,-0.235,-0.2,
3370,-0.23,-0.205,
3371,-0.235,-0.205,
3372,-0.25,-0.21,
3373,-0.255,-0.215,
3374,-0.255,-0.215,
3375,-0.25,-0.21,
3376,-0.245,-0.215,
3377,-0.24,-0.225,
3378,-0.26,-0.245,
3379,-0.265,-0.25,
3380,-0.28,-0.25,
3381,-0.27,-0.24,
3382,-0.27,-0.235,
3383,-0.275,-0.245,
3384,-0.28,-0.255,
3385,-0.28,-0.255,
3386,-0.28,-0.255,
3387,-0.28,-0.245,
3388,-0.27,-0.24,
3389,-0.28,-0.25,
3390,-0.285,-0.275,
3391,-0.29,-0.275,
3392,-0.285,-0.27,
3393,-0.285,-0.265,
3394,-0.28,-0.25,
3395,-0.28,-0.275,
3396,-0.285,-0.28,
3397,-0.295,-0.29,
3398,-0.295,-0.295,
3399,-0.28,-0.275,
3400,-0.27,-0.29,
3401,-0.27,-0.285,
3402,-0.28,-0.29,
3403,-0.285,-0.3,
3404,-0.27,-0.28,
3405,-0.27,-0.26,
3406,-0.26,-0.25,
3407,-0.265,-0.24,
3408,-0.265,-0.25,
3409,-0.265,-0.245,
3410,-0.27,-0.24,
3411,-0.265,-0.24,
3412,-0.255,-0.24,
3413,-0.255,-0.24,
3414,-0.265,-0.25,
3415,-0.275,-0.25,
3416,-0.265,-0.245,
3417,-0.27,-0.23,
3418,-0.26,-0.225,
3419,-0.26,-0.225,
3420,-0.27,-0.23,
3421,-0.275,-0.23,
3422,-0.265,-0.22,
3423,-0.25,-0.205,
3424,-0.225,-0.2,
3425,-0.235,-0.195,
3426,-0.245,-0.205,
3427,-0.27,-0.21,
3428,-0.26,-0.2,
3429,-0.26,-0.205,
3430,-0.245,-0.2,
3431,-0.25,-0.205,
3432,-0.255,-0.215,
3433,-0.28,-0.225,
3434,-0.275,-0.215,
3435,-0.275,-0.21,
3436,-0.265,-0.21,
3437,-0.28,-0.21,
3438,-0.285,-0.225,
3439,-0.29,-0.215,
3440,-0.285,-0.215,
3441,-0.275,-0.195,
3442,-0.27,-0.2,
3443,-0.265,-0.22,
3444,-0.29,-0.23,
3445,-0.295,-0.245,
3446,-0.3,-0.24,
3447,-0.29,-0.225,
3448,-0.27,-0.23,
3449,-0.275,-0.23,
3450,-0.29,-0.235,
3451,-0.295,-0.25,
3452,-0.29,-0.235,
3453,-0.27,-0.195,
3454,-0.255,-0.195,
3455,-0.25,-0.22,
3456,-0.23,-0.295,
3457,-0.22,-0.375,
3458,-0.2,-0.465,
3459,-0.16,-0.52,
3460,-0.13,-0.59,
3461,-0.06,-0.67,
3462,0.025,-0.75,
3463,0.105,-0.85,
3464,0.195,-0.95,
3465,0.295,-1.035,
3466,0.42,-1.09,
3467,0.55,-1.095,
3468,0.635,-1.065,
3469,0.675,-1.02,
3470,0.745,-0.935,N
3471,0.795,-0.81,
3472,0.785,-0.64,
3473,0.695,-0.49,
3474,0.56,-0.38,
3475,0.39,-0.33,
3476,0.19,-0.3,
3477,0.04,-0.3,
3478,-0.055,-0.305,
3479,-0.1,-0.305,
3480,-0.135,-0.31,
3481,-0.18,-0.3,
3482,-0.195,-0.27,
3483,-0.185,-0.25,
3484,-0.165,-0.25,
3485,-0.165,-0.245,
3486,-0.185,-0.265,
3487,-0.21,-0.255,
3488,-0.22,-0.24,
3489,-0.22,-0.215,
3490,-0.225,-0.22,
3491,-0.235,-0.225,
3492,-0.235,-0.225,
3493,-0.255,-0.245,
3494,-0.265,-0.225,
3495,-0.26,-0.22,
3496,-0.26,-0.21,
3497,-0.26,-0.21,
3498,-0.27,-0.22,
3499,-0.29,-0.215,
3500,-0.285,-0.22,
3501,-0.285,-0.21,
3502,-0.28,-0.215,
3503,-0.295,-0.215,
3504,-0.295,-0.22,
3505,-0.315,-0.235,
3506,-0.31,-0.21,
3507,-0.305,-0.22,
3508,-0.3,-0.23,
3509,-0.295,-0.23,
3510,-0.305,-0.24,
3511,-0.315,-0.245,
3512,-0.31,-0.23,
3513,-0.31,-0.24,
3514,-0.3,-0.23,
3515,-0.3,-0.245,
3516,-0.29,-0.25,
3517,-0.31,-0.27,
3518,-0.31,-0.27,
3519,-0.3,-0.27,
3520,-0.29,-0.28,
3521,-0.28,-0.285,
3522,-0.285,-0.285,
3523,-0.295,-0.295,
3524,-0.275,-0.29,
3525,-0.265,-0.29,
3526,-0.25,-0.295,
3527,-0.245,-0.305,
3528,-0.25,-0.32,
3529,-0.245,-0.33,
3530,-0.245,-0.315,
3531,-0.24,-0.315,
3532,-0.225,-0.315,
3533,-0.215,-0.31,
3534,-0.2,-0.31,
3535,-0.2,-0.3,
3536,-0.17,-0.285,
3537,-0.17,-0.27,
3538,-0.16,-0.27,
3539,-0.16,-0.27,
3540,-0.155,-0.275,
3541,-0.16,-0.29,
3542,-0.15,-0.29,
3543,-0.14,-0.285,
3544,-0.135,-0.295,
3545,-0.13,-0.29,
3546,-0.145,-0.3,
3547,-0.14,-0.295,
3548,-0.135,-0.285,
3549,-0.125,-0.27,
3550,-0.12,-0.28,
3551,-0.125,-0.285,
3552,-0.13,-0.285,
3553,-0.14,-0.285,
3554,-0.12,-0.27,
3555,-0.12,-0.26,
3556,-0.115,-0.265,
3557,-0.11,-0.275,
3558,-0.125,-0.285,
3559,-0.13,-0.285,
3560,-0.125,-0.27,
3561,-0.12,-0.26,
3562,-0.115,-0.26,
3563,-0.11,-0.265,
3564,-0.13,-0.265,
3565,-0.15,-0.27,
3566,-0.145,-0.265,
3567,-0.145,-0.25,
3568,-0.14,-0.24,
3569,-0.15,-0.245,
3570,-0.165,-0.26,
3571,-0.19,-0.255,
3572,-0.195,-0.25,
3573,-0.2,-0.25,
3574,-0.195,-0.24,
3575,-0.2,-0.235,
3576,-0.215,-0.24,
3577,-0.22,-0.245,
3578,-0.225,-0.235,
3579,-0.215,-0.235,
3580,-0.22,-0.23,
3581,-0.22,-0.245,
3582,-0.225,-0.265,
3583,-0.23,-0.27,
3584,-0.235,-0.27,
3585,-0.23,-0.255,
3586,-0.225,-0.25,
3587,-0.22,-0.26,
3588,-0.23,-0.255,
3589,-0.245,-0.27,
3590,-0.24,-0.265,
3591,-0.23,-0.265,
3592,-0.225,-0.265,
3593,-0.225,-0.275,
3594,-0.24,-0.285,
3595,-0.25,-0.27,
3596,-0.25,-0.27,
3597,-0.25,-0.26,
3598,-0.245,-0.265,
3599,-0.245,-0.26,
3600,-0.26,-0.265,
3601,-0.27,-0.26,
3602,-0.26,-0.245,
3603,-0.255,-0.23,
3604,-0.245,-0.24,
3605,-0.25,-0.235,
3606,-0.255,-0.235,
3607,-0.27,-0.23,
3608,-0.26,-0.22,
3609,-0.25,-0.205,
3610,-0.245,-0.22,
3611,-0.245,-0.22,
3612,-0.255,-0.22,
3613,-0.265,-0.22,
3614,-0.255,-0.205,
3615,-0.26,-0.19,
3616,-0.25,-0.19,
3617,-0.26,-0.19,
3618,-0.25,-0.19,
3619,-0.265,-0.18,
3620,-0.26,-0.18,
3621,-0.265,-0.19,
3622,-0.26,-0.2,
3623,-0.26,-0.2,
3624,-0.265,-0.215,
3625,-0.285,-0.225,
3626,-0.275,-0.21,
3627,-0.265,-0.21,
3628,-0.26,-0.215,
3629,-0.255,-0.215,
3630,-0.255,-0.23,
3631,-0.255,-0.235,
3632,-0.255,-0.215,
3633,-0.235,-0.205,
3634,-0.22,-0.2,
3635,-0.225,-0.215,
3636,-0.23,-0.225,
3637,-0.245,-0.22,
3638,-0.23,-0.22,
3639,-0.225,-0.21,
3640,-0.22,-0.215,
3641,-0.22,-0.225,
3642,-0.23,-0.245,
3643,-0.245,-0.25,
3644,-0.24,-0.25,
3645,-0.23,-0.24,
3646,-0.23,-0.245,
3647,-0.23,-0.255,
3648,-0.23,-0.265,
3649,-0.245,-0.27,
3650,-0.245,-0.255,
3651,-0.24,-0.245,
3652,-0.235,-0.25,
3653,-0.235,-0.26,
3654,-0.245,-0.265,
3655,-0.26,-0.26,
3656,-0.275,-0.265,
3657,-0.27,-0.255,
3658,-0.25,-0.25,
3659,-0.25,-0.25,
3660,-0.26,-0.265,
3661,-0.27,-0.245,
3662,-0.275,-0.24,
3663,-0.265,-0.235,
3664,-0.265,-0.225,
3665,-0.26,-0.225,
3666,-0.28,-0.24,
3667,-0.3,-0.235,
3668,-0.29,-0.23,
3669,-0.27,-0.21,
3670,-0.26,-0.21,
3671,-0.265,-0.205,
3672,-0.28,-0.22,
3673,-0.3,-0.235,
3674,-0.285,-0.22,
3675,-0.285,-0.22,
3676,-0.265,-0.215,
3677,-0.27,-0.21,
3678,-0.27,-0.215,
3679,-0.28,-0.215,
3680,-0.28,-0.215,
3681,-0.28,-0.205,
3682,-0.275,-0.205,
3683,-0.275,-0.215,
3684,-0.28,-0.23,
3685,-0.295,-0.22,
3686,-0.29,-0.205,
3687,-0.275,-0.195,
3688,-0.26,-0.185,
3689,-0.265,-0.175,
3690,-0.265,-0.18,
3691,-0.265,-0.185,
3692,-0.26,-0.18,
3693,-0.25,-0.18,
3694,-0.24,-0.185,
3695,-0.25,-0.19,
3696,-0.255,-0.22,
3697,-0.255,-0.22,
3698,-0.25,-0.21,
3699,-0.24,-0.21,
3700,-0.235,-0.205,
3701,-0.23,-0.205,
3702,-0.235,-0.225,
3703,-0.245,-0.23,
3704,-0.245,-0.235,
3705,-0.24,-0.22,
3706,-0.235,-0.225,
3707,-0.245,-0.23,
3708,-0.255,-0.25,
3709,-0.27,-0.255,
3710,-0.27,-0.26,
3711,-0.275,-0.245,
3712,-0.265,-0.25,
3713,-0.27,-0.255,
3714,-0.285,-0.27,
3715,-0.29,-0.27,
3716,-0.28,-0.26,
3717,-0.27,-0.235,
3718,-0.265,-0.235,
3719,-0.27,-0.235,
3720,-0.27,-0.245,
3721,-0.275,-0.25,
3722,-0.265,-0.23,
3723,-0.24,-0.23,
3724,-0.24,-0.235,
3725,-0.255,-0.23,
3726,-0.26,-0.25,
3727,-0.27,-0.245,
3728,-0.265,-0.245,
3729,-0.255,-0.235,
3730,-0.255,-0.235,
3731,-0.255,-0.245,
3732,-0.265,-0.25,
3733,-0.275,-0.26,
3734,-0.28,-0.255,
3735,-0.28,-0.25,
3736,-0.275,-0.245,
3737,-0.275,-0.245,
3738,-0.28,-0.265,
3739,-0.295,-0.25,
3740,-0.295,-0.245,
3741,-0.285,-0.24,
3742,-0.28,-0.24,
3743,-0.28,-0.23,
3744,-0.285,-0.23,
3745,-0.3,-0.22,
3746,-0.285,-0.21,
3747,-0.28,-0.195,
3748,-0.26,-0.2,
3749,-0.26,-0.19,
3750,-0.265,-0.2,
3751,-0.28,-0.185,
3752,-0.26,-0.18,
3753,-0.25,-0.17,
3754,-0.24,-0.185,
3755,-0.245,-0.21,
3756,-0.24,-0.225,
3757,-0.26,-0.235,
3758,-0.255,-0.22,
3759,-0.245,-0.21,
3760,-0.235,-0.205,
3761,-0.24,-0.225,
3762,-0.245,-0.23,
3763,-0.24,-0.245,
3764,-0.235,-0.23,
3765,-0.225,-0.245,
3766,-0.23,-0.24,
3767,-0.235,-0.245,
3768,-0.255,-0.265,
3769,-0.255,-0.265,
3770,-0.245,-0.275,
3771,-0.23,-0.27,
3772,-0.225,-0.275,
3773,-0.235,-0.29,
3774,-0.235,-0.3,
3775,-0.26,-0.3,
3776,-0.245,-0.28,
3777,-0.235,-0.265,
3778,-0.22,-0.27,
3779,-0.225,-0.27,
3780,-0.23,-0.265,
3781,-0.24,-0.24,
3782,-0.245,-0.215,
3783,-0.225,-0.215,
3784,-0.19,-0.195,
3785,-0.175,-0.26,
3786,-0.14,-0.345,
3787,-0.14,-0.45,
3788,-0.11,-0.535,
3789,-0.065,-0.6,
3790,0.025,-0.67,
3791,0.135,-0.75,
3792,0.235,-0.85,
3793,0.325,-0.94,
3794,0.445,-0.995,
3795,0.58,-0.98,
3796,0.685,-0.94,
3797,0.78,-0.855,
3798,0.855,-0.795,N
3799,0.925,-0.695,
3800,0.925,-0.54,
3801,0.845,-0.395,
3802,0.69,-0.285,
3803,0.47,-0.195,
3804,0.245,-0.16,
3805,0.04,-0.15,
3806,-0.105,-0.18,
3807,-0.2,-0.225,
3808,-0.245,-0.26,
3809,-0.295,-0.275,
3810,-0.315,-0.27,
3811,-0.29,-0.27,
3812,-0.255,-0.25,
3813,-0.23,-0.23,
3814,-0.235,-0.22,
3815,-0.23,-0.225,
3816,-0.255,-0.235,
3817,-0.275,-0.23,
3818,-0.27,-0.22,
3819,-0.27,-0.21,
3820,-0.28,-0.2,
3821,-0.28,-0.195,
3822,-0.27,-0.21,
3823,-0.28,-0.195,
3824,-0.28,-0.175,
3825,-0.265,-0.17,
3826,-0.25,-0.165,
3827,-0.25,-0.165,
3828,-0.245,-0.2,
3829,-0.26,-0.22,
3830,-0.255,-0.23,
3831,-0.245,-0.22,
3832,-0.24,-0.225,
3833,-0.24,-0.24,
3834,-0.245,-0.265,
3835,-0.26,-0.265,
3836,-0.255,-0.265,
3837,-0.25,-0.25,
3838,-0.24,-0.26,
3839,-0.25,-0.275,
3840,-0.26,-0.305,
3841,-0.265,-0.31,
3842,-0.26,-0.315,
3843,-0.26,-0.31,
3844,-0.245,-0.305,
3845,-0.25,-0.305,
3846,-0.255,-0.32,
3847,-0.27,-0.31,
3848,-0.265,-0.315,
3849,-0.255,-0.305,
3850,-0.25,-0.305,
3851,-0.24,-0.31,
3852,-0.255,-0.315,
3853,-0.265,-0.325,
3854,-0.255,-0.325,
3855,-0.25,-0.315,
3856,-0.245,-0.325,
3857,-0.255,-0.34,
3858,-0.245,-0.35,
3859,-0.25,-0.35,
3860,-0.25,-0.335,
3861,-0.24,-0.335,
3862,-0.225,-0.32,
3863,-0.215,-0.335,
3864,-0.22,-0.34,
3865,-0.225,-0.35,
3866,-0.205,-0.335,
3867,-0.195,-0.32,
3868,-0.18,-0.32,
3869,-0.185,-0.315,
3870,-0.19,-0.335,
3871,-0.19,-0.335,
3872,-0.185,-0.33,
3873,-0.175,-0.33,
3874,-0.16,-0.34,
3875,-0.165,-0.34,
3876,-0.17,-0.35,
3877,-0.17,-0.365,
3878,-0.155,-0.34,
3879,-0.15,-0.33,
3880,-0.14,-0.305,
3881,-0.145,-0.31,
3882,-0.15,-0.32,
3883,-0.15,-0.31,
3884,-0.145,-0.295,
3885,-0.13,-0.29,
3886,-0.125,-0.295,
3887,-0.125,-0.3,
3888,-0.13,-0.305,
3889,-0.145,-0.29,
3890,-0.15,-0.27,
3891,-0.125,-0.25,
3892,-0.105,-0.24,
3893,-0.1,-0.235,
3894,-0.105,-0.245,
3895,-0.12,-0.25,
3896,-0.11,-0.235,
3897,-0.11,-0.245,
3898,-0.11,-0.25,
3899,-0.125,-0.265,
3900,-0.14,-0.28,
3901,-0.165,-0.275,
3902,-0.175,-0.27,
3903,-0.18,-0.265,
3904,-0.17,-0.28,
3905,-0.19,-0.265,
3906,-0.2,-0.29,
3907,-0.22,-0.28,
3908,-0.22,-0.275,
3909,-0.21,-0.27,
3910,-0.21,-0.28,
3911,-0.23,-0.275,
3912,-0.235,-0.295,
3913,-0.245,-0.29,
3914,-0.245,-0.27,
3915,-0.24,-0.26,
3916,-0.25,-0.28,
3917,-0.255,-0.285,
3918,-0.265,-0.3,
3919,-0.28,-0.305,
3920,-0.27,-0.29,
3921,-0.265,-0.275,
3922,-0.26,-0.27,
3923,-0.245,-0.265,
3924,-0.265,-0.27,
3925,-0.26,-0.265,
3926,-0.255,-0.25,
3927,-0.25,-0.24,
3928,-0.25,-0.245,
3929,-0.25,-0.245,
3930,-0.255,-0.26,
3931,-0.27,-0.255,
3932,-0.28,-0.25,
3933,-0.265,-0.235,
3934,-0.255,-0.24,
3935,-0.27,-0.235,
3936,-0.265,-0.25,
3937,-0.285,-0.245,
3938,-0.27,-0.235,
3939,-0.265,-0.22,
3940,-0.255,-0.23,
3941,-0.265,-0.24,
3942,-0.26,-0.25,
3943,-0.285,-0.245,
3944,-0.285,-0.24,
3945,-0.285,-0.235,
3946,-0.275,-0.235,
3947,-0.275,-0.235,
3948,-0.275,-0.22,
3949,-0.3,-0.19,
3950,-0.275,-0.18,
3951,-0.255,-0.145,
3952,-0.235,-0.155,
3953,-0.235,-0.175,
3954,-0.23,-0.195,
3955,-0.235,-0.2,
3956,-0.22,-0.19,
3957,-0.215,-0.175,
3958,-0.21,-0.185,
3959,-0.205,-0.195,
3960,-0.22,-0.21,
3961,-0.22,-0.215,
3962,-0.21,-0.2,
3963,-0.205,-0.19,
3964,-0.2,-0.205,
3965,-0.205,-0.205,
3966,-0.215,-0.215,
3967,-0.23,-0.22,
3968,-0.22,-0.215,
3969,-0.21,-0.2,
3970,-0.21,-0.2,
3971,-0.23,-0.205,
3972,-0.235,-0.225,
3973,-0.25,-0.235,
3974,-0.235,-0.23,
3975,-0.235,-0.23,
3976,-0.225,-0.24,
3977,-0.23,-0.24,
3978,-0.245,-0.255,
3979,-0.255,-0.245,
3980,-0.25,-0.23,
3981,-0.255,-0.21,
3982,-0.25,-0.215,
3983,-0.23,-0.225,
3984,-0.23,-0.22,
3985,-0.235,-0.225,
3986,-0.225,-0.21,
3987,-0.22,-0.195,
3988,-0.215,-0.2,
3989,-0.23,-0.205,
3990,-0.245,-0.22,
3991,-0.255,-0.23,
3992,-0.25,-0.225,
3993,-0.255,-0.215,
3994,-0.25,-0.215,
3995,-0.255,-0.225,
3996,-0.275,-0.235,
3997,-0.285,-0.23,
3998,-0.28,-0.23,
3999,-0.275,-0.225,
4000,-0.275,-0.235,
4001,-0.285,-0.245,
4002,-0.3,-0.255,
4003,-0.31,-0.25,
4004,-0.31,-0.255,
4005,-0.305,-0.23,
4006,-0.305,-0.23,
4007,-0.31,-0.225,
4008,-0.33,-0.235,
4009,-0.33,-0.225,
4010,-0.325,-0.21,
4011,-0.315,-0.215,
4012,-0.29,-0.215,
4013,-0.265,-0.21,
4014,-0.26,-0.23,
4015,-0.265,-0.23,
4016,-0.255,-0.225,
4017,-0.255,-0.215,
4018,-0.24,-0.21,
4019,-0.24,-0.205,
4020,-0.245,-0.215,
4021,-0.275,-0.21,
4022,-0.255,-0.205,
4023,-0.245,-0.2,
4024,-0.245,-0.195,
4025,-0.25,-0.22,
4026,-0.26,-0.23,
4027,-0.275,-0.235,
4028,-0.275,-0.23,
4029,-0.26,-0.22,
4030,-0.26,-0.225,
4031,-0.255,-0.215,
4032,-0.275,-0.23,
4033,-0.295,-0.24,
4034,-0.285,-0.235,
4035,-0.28,-0.225,
4036,-0.275,-0.23,
4037,-0.285,-0.22,
4038,-0.29,-0.22,
4039,-0.295,-0.205,
4040,-0.28,-0.185,
4041,-0.28,-0.17,
4042,-0.255,-0.17,
4043,-0.26,-0.195,
4044,-0.26,-0.195,
4045,-0.275,-0.215,
4046,-0.28,-0.185,
4047,-0.27,-0.175,
4048,-0.265,-0.185,
4049,-0.28,-0.185,
4050,-0.285,-0.2,
4051,-0.29,-0.205,
4052,-0.285,-0.19,
4053,-0.275,-0.18,
4054,-0.27,-0.18,
4055,-0.265,-0.2,
4056,-0.28,-0.2,
4057,-0.29,-0.21,
4058,-0.285,-0.195,
4059,-0.275,-0.185,
4060,-0.27,-0.175,
4061,-0.275,-0.195,
4062,-0.28,-0.205,
4063,-0.29,-0.2,
4064,-0.285,-0.195,
4065,-0.28,-0.175,
4066,-0.28,-0.2,
4067,-0.285,-0.215,
4068,-0.29,-0.21,
4069,-0.285,-0.22,
4070,-0.285,-0.2,
4071,-0.28,-0.2,
4072,-0.27,-0.22,
4073,-0.275,-0.235,
4074,-0.285,-0.255,
4075,-0.285,-0.275,
4076,-0.28,-0.26,
4077,-0.28,-0.24,
4078,-0.27,-0.235,
4079,-0.27,-0.235,
4080,-0.285,-0.25,
4081,-0.275,-0.255,
4082,-0.27,-0.24,
4083,-0.26,-0.23,
4084,-0.25,-0.235,
4085,-0.26,-0.245,
4086,-0.265,-0.255,
4087,-0.275,-0.255,
4088,-0.275,-0.25,
4089,-0.25,-0.255,
4090,-0.255,-0.255,
4091,-0.26,-0.255,
4092,-0.265,-0.25,
4093,-0.255,-0.22,
4094,-0.24,-0.195,
4095,-0.21,-0.19,
4096,-0.185,-0.23,
4097,-0.155,-0.33,
4098,-0.14,-0.42,
4099,-0.125,-0.49,
4100,-0.075,-0.56,
4101,0.01,-0.615,
4102,0.115,-0.695,
4103,0.21,-0.795,
4104,0.28,-0.915,
4105,0.375,-0.99,
4106,0.485,-1.005,
4107,0.6,-0.985,
4108,0.69,-0.935,
4109,0.76,-0.875,N
4110,0.81,-0.78,
4111,0.83,-0.625,
4112,0.765,-0.445,
4113,0.61,-0.295,
4114,0.43,-0.23,
4115,0.195,-0.21,
4116,0.0,-0.25,
4117,-0.125,-0.28,
4118,-0.175,-0.275,
4119,-0.225,-0.265,
4120,-0.22,-0.25,
4121,-0.215,-0.235,
4122,-0.205,-0.225,
4123,-0.225,-0.225,
4124,-0.215,-0.22,
4125,-0.225,-0.215,
4126,-0.23,-0.21,
4127,-0.24,-0.21,
4128,-0.25,-0.2,
4129,-0.26,-0.21,
4130,-0.26,-0.195,
4131,-0.26,-0.19,
4132,-0.25,-0.18,
4133,-0.26,-0.175,
4134,-0.255,-0.195,
4135,-0.26,-0.185,
4136,-0.25,-0.175,
4137,-0.26,-0.185,
4138,-0.255,-0.195,
4139,-0.255,-0.2,
4140,-0.26,-0.215,
4141,-0.285,-0.22,
4142,-0.275,-0.215,
4143,-0.28,-0.215,
4144,-0.27,-0.22,
4145,-0.27,-0.205,
4146,-0.27,-0.215,
4147,-0.28,-0.21,
4148,-0.275,-0.195,
4149,-0.275,-0.2,
4150,-0.26,-0.205,
4151,-0.265,-0.205,
4152,-0.275,-0.205,
4153,-0.285,-0.21,
4154,-0.285,-0.205,
4155,-0.285,-0.205,
4156,-0.275,-0.22,
4157,-0.28,-0.22,
4158,-0.275,-0.25,
4159,-0.285,-0.25,
4160,-0.28,-0.24,
4161,-0.27,-0.245,
4162,-0.255,-0.24,
4163,-0.26,-0.25,
4164,-0.265,-0.25,
4165,-0.275,-0.25,
4166,-0.27,-0.24,
4167,-0.255,-0.215,
4168,-0.255,-0.225,
4169,-0.24,-0.23,
4170,-0.245,-0.24,
4171,-0.26,-0.25,
4172,-0.25,-0.25,
4173,-0.245,-0.23,
4174,-0.235,-0.235,
4175,-0.225,-0.245,
4176,-0.23,-0.26,
4177,-0.235,-0.26,
4178,-0.24,-0.25,
4179,-0.225,-0.245,
4180,-0.215,-0.235,
4181,-0.21,-0.24,
4182,-0.22,-0.245,
4183,-0.22,-0.25,
4184,-0.215,-0.235,
4185,-0.19,-0.22,
4186,-0.185,-0.21,
4187,-0.18,-0.225,
4188,-0.175,-0.23,
4189,-0.185,-0.225,
4190,-0.175,-0.195,
4191,-0.16,-0.175,
4192,-0.135,-0.18,
4193,-0.125,-0.16,
4194,-0.105,-0.18,
4195,-0.1,-0.175,
4196,-0.095,-0.165,
4197,-0.085,-0.145,
4198,-0.08,-0.155,
4199,-0.08,-0.155,
4200,-0.095,-0.165,
4201,-0.12,-0.16,
4202,-0.115,-0.165,
4203,-0.125,-0.165,
4204,-0.14,-0.19,
4205,-0.15,-0.21,
4206,-0.17,-0.24,
4207,-0.195,-0.245,
4208,-0.195,-0.235,
4209,-0.215,-0.23,
4210,-0.21,-0.235,
4211,-0.23,-0.235,
4212,-0.265,-0.245,
4213,-0.275,-0.245,
4214,-0.27,-0.255,
4215,-0.26,-0.245,
4216,-0.26,-0.245,
4217,-0.265,-0.255,
4218,-0.29,-0.265,
4219,-0.295,-0.265,
4220,-0.295,-0.26,
4221,-0.28,-0.235,
4222,-0.29,-0.245,
4223,-0.295,-0.245,
4224,-0.295,-0.265,
4225,-0.31,-0.265,
4226,-0.295,-0.25,
4227,-0.3,-0.24,
4228,-0.29,-0.245,
4229,-0.3,-0.24,
4230,-0.31,-0.255,
4231,-0.315,-0.24,
4232,-0.31,-0.23,
4233,-0.305,-0.225,
4234,-0.3,-0.23,
4235,-0.3,-0.24,
4236,-0.31,-0.25,
4237,-0.31,-0.24,
4238,-0.29,-0.215,
4239,-0.29,-0.21,
4240,-0.285,-0.205,
4241,-0.285,-0.2,
4242,-0.285,-0.195,
4243,-0.285,-0.19,
4244,-0.275,-0.175,
4245,-0.265,-0.165,
4246,-0.25,-0.16,
4247,-0.245,-0.15,
4248,-0.25,-0.155,
4249,-0.245,-0.15,
4250,-0.25,-0.14,
4251,-0.25,-0.135,
4252,-0.255,-0.14,
4253,-0.255,-0.135,
4254,-0.275,-0.155,
4255,-0.285,-0.155,
4256,-0.29,-0.155,
4257,-0.29,-0.14,
4258,-0.295,-0.135,
4259,-0.305,-0.125,
4260,-0.31,-0.14,
4261,-0.315,-0.14,
4262,-0.305,-0.125,
4263,-0.29,-0.115,
4264,-0.26,-0.12,
4265,-0.245,-0.14,
4266,-0.235,-0.165,
4267,-0.24,-0.185,
4268,-0.24,-0.195,
4269,-0.225,-0.18,
4270,-0.215,-0.195,
4271,-0.215,-0.21,
4272,-0.225,-0.205,
4273,-0.24,-0.225,
4274,-0.245,-0.22,
4275,-0.25,-0.21,
4276,-0.24,-0.22,
4277,-0.25,-0.225,
4278,-0.26,-0.25,
4279,-0.27,-0.245,
4280,-0.265,-0.245,
4281,-0.265,-0.235,
4282,-0.265,-0.235,
4283,-0.265,-0.245,
4284,-0.28,-0.27,
4285,-0.295,-0.26,
4286,-0.285,-0.245,
4287,-0.29,-0.22,
4288,-0.275,-0.22,
4289,-0.285,-0.21,
4290,-0.285,-0.22,
4291,-0.285,-0.205,
4292,-0.265,-0.19,
4293,-0.255,-0.18,
4294,-0.25,-0.18,
4295,-0.27,-0.185,
4296,-0.28,-0.195,
4297,-0.27,-0.19,
4298,-0.25,-0.17,
4299,-0.255,-0.145,
4300,-0.25,-0.155,
4301,-0.255,-0.16,
4302,-0.265,-0.165,
4303,-0.275,-0.18,
4304,-0.265,-0.165,
4305,-0.265,-0.16,
4306,-0.26,-0.17,
4307,-0.275,-0.17,
4308,-0.29,-0.175,
4309,-0.295,-0.17,
4310,-0.295,-0.17,
4311,-0.29,-0.16,
4312,-0.295,-0.165,
4313,-0.3,-0.175,
4314,-0.32,-0.18,
4315,-0.32,-0.175,
4316,-0.315,-0.16,
4317,-0.32,-0.17,
4318,-0.315,-0.195,
4319,-0.33,-0.19,
4320,-0.335,-0.2,
4321,-0.345,-0.2,
4322,-0.345,-0.2,
4323,-0.34,-0.195,
4324,-0.345,-0.19,
4325,-0.34,-0.19,
4326,-0.345,-0.21,
4327,-0.355,-0.22,
4328,-0.335,-0.205,
4329,-0.31,-0.2,
4330,-0.28,-0.195,
4331,-0.265,-0.195,
4332,-0.255,-0.195,
4333,-0.255,-0.205,
4334,-0.245,-0.2,
4335,-0.245,-0.18,
4336,-0.235,-0.165,
4337,-0.23,-0.165,
4338,-0.235,-0.17,
4339,-0.21,-0.205,
4340,-0.185,-0.28,
4341,-0.145,-0.35,
4342,-0.13,-0.43,
4343,-0.09,-0.51,
4344,-0.025,-0.585,
4345,0.06,-0.67,
4346,0.16,-0.78,
4347,0.265,-0.9,
4348,0.365,-1.005,
4349,0.5,-1.055,
4350,0.61,-1.035,
4351,0.655,-0.975,
4352,0.73,-0.885,
4353,0.795,-0.77,N
4354,0.815,-0.625,
4355,0.73,-0.465,
4356,0.59,-0.36,
4357,0.4,-0.285,
4358,0.195,-0.245,
4359,0.02,-0.24,
4360,-0.08,-0.25,
4361,-0.13,-0.245,
4362,-0.175,-0.23,
4363,-0.215,-0.22,
4364,-0.225,-0.21,
4365,-0.225,-0.19,
4366,-0.215,-0.185,
4367,-0.22,-0.185,
4368,-0.25,-0.195,
4369,-0.275,-0.19,
4370,-0.295,-0.175,
4371,-0.295,-0.155,
4372,-0.295,-0.165,
4373,-0.3,-0.185,
4374,-0.31,-0.205,
4375,-0.325,-0.21,
4376,-0.325,-0.21,
4377,-0.31,-0.2,
4378,-0.3,-0.195,
4379,-0.305,-0.21,
4380,-0.325,-0.21,
4381,-0.33,-0.225,
4382,-0.33,-0.225,
4383,-0.32,-0.225,
4384,-0.31,-0.22,
4385,-0.315,-0.215,
4386,-0.325,-0.23,
4387,-0.325,-0.235,
4388,-0.31,-0.22,
4389,-0.285,-0.215,
4390,-0.275,-0.22,
4391,-0.27,-0.24,
4392,-0.29,-0.25,
4393,-0.295,-0.23,
4394,-0.29,-0.205,
4395,-0.26,-0.18,
4396,-0.255,-0.175,
4397,-0.25,-0.18,
4398,-0.26,-0.18,
4399,-0.27,-0.18,
4400,-0.255,-0.18,
4401,-0.255,-0.18,
4402,-0.26,-0.185,
4403,-0.26,-0.2,
4404,-0.275,-0.215,
4405,-0.295,-0.215,
4406,-0.275,-0.205,
4407,-0.265,-0.195,
4408,-0.26,-0.21,
4409,-0.255,-0.23,
4410,-0.27,-0.235,
4411,-0.265,-0.245,
4412,-0.255,-0.24,
4413,-0.255,-0.225,
4414,-0.25,-0.24,
4415,-0.24,-0.245,
4416,-0.25,-0.25,
4417,-0.26,-0.26,
4418,-0.24,-0.24,
4419,-0.23,-0.24,
4420,-0.23,-0.245,
4421,-0.21,-0.25,
4422,-0.225,-0.255,
4423,-0.23,-0.275,
4424,-0.215,-0.265,
4425,-0.205,-0.25,
4426,-0.2,-0.26,
4427,-0.19,-0.275,
4428,-0.195,-0.275,
4429,-0.2,-0.275,
4430,-0.19,-0.265,
4431,-0.175,-0.25,
4432,-0.165,-0.265,
4433,-0.16,-0.27,
4434,-0.165,-0.285,
4435,-0.16,-0.27,
4436,-0.15,-0.255,
4437,-0.135,-0.25,
4438,-0.135,-0.26,
4439,-0.14,-0.26,
4440,-0.16,-0.265,
4441,-0.175,-0.255,
4442,-0.17,-0.24,
4443,-0.175,-0.225,
4444,-0.18,-0.23,
4445,-0.195,-0.22,
4446,-0.2,-0.21,
4447,-0.22,-0.2,
4448,-0.21,-0.175,
4449,-0.215,-0.155,
4450,-0.215,-0.16,
4451,-0.215,-0.17,
4452,-0.22,-0.19,
4453,-0.235,-0.195,
4454,-0.25,-0.175,
4455,-0.25,-0.175,
4456,-0.255,-0.16,
4457,-0.27,-0.16,
4458,-0.29,-0.165,
4459,-0.295,-0.16,
4460,-0.295,-0.16,
4461,-0.29,-0.155,
4462,-0.3,-0.165,
4463,-0.3,-0.185,
4464,-0.305,-0.19,
4465,-0.33,-0.2,
4466,-0.33,-0.19,
4467,-0.32,-0.18,
4468,-0.32,-0.18,
4469,-0.315,-0.19,
4470,-0.325,-0.2,
4471,-0.325,-0.2,
4472,-0.32,-0.185,
4473,-0.305,-0.195,
4474,-0.3,-0.19,
4475,-0.305,-0.2,
4476,-0.315,-0.195,
4477,-0.32,-0.2,
4478,-0.31,-0.19,
4479,-0.31,-0.19,
4480,-0.295,-0.21,
4481,-0.3,-0.22,
4482,-0.31,-0.225,
4483,-0.315,-0.22,
4484,-0.31,-0.22,
4485,-0.305,-0.215,
4486,-0.295,-0.225,
4487,-0.3,-0.225,
4488,-0.3,-0.24,
4489,-0.31,-0.245,
4490,-0.305,-0.245,
4491,-0.3,-0.24,
4492,-0.29,-0.235,
4493,-0.3,-0.24,
4494,-0.3,-0.235,
4495,-0.305,-0.225,
4496,-0.295,-0.215,
4497,-0.285,-0.205,
4498,-0.29,-0.2,
4499,-0.285,-0.2,
4500,-0.285,-0.2,
4501,-0.305,-0.205,
4502,-0.3,-0.195,
4503,-0.29,-0.19,
4504,-0.285,-0.19,
4505,-0.285,-0.19,
4506,-0.29,-0.185,
4507,-0.295,-0.18,
4508,-0.295,-0.165,
4509,-0.29,-0.15,
4510,-0.28,-0.14,
4511,-0.28,-0.15,
4512,-0.28,-0.155,
4513,-0.295,-0.145,
4514,-0.295,-0.135,
4515,-0.29,-0.125,
4516,-0.285,-0.13,
4517,-0.285,-0.14,
4518,-0.295,-0.15,
4519,-0.3,-0.15,
4520,-0.29,-0.145,
4521,-0.29,-0.13,
4522,-0.275,-0.13,
4523,-0.285,-0.14,
4524,-0.29,-0.14,
4525,-0.305,-0.16,
4526,-0.3,-0.16,
4527,-0.285,-0.15,
4528,-0.29,-0.165,
4529,-0.29,-0.175,
4530,-0.3,-0.195,
4531,-0.305,-0.2,
4532,-0.3,-0.19,
4533,-0.305,-0.18,
4534,-0.295,-0.185,
4535,-0.29,-0.185,
4536,-0.3,-0.21,
4537,-0.32,-0.205,
4538,-0.31,-0.205,
4539,-0.305,-0.195,
4540,-0.3,-0.2,
4541,-0.285,-0.205,
4542,-0.305,-0.2,
4543,-0.31,-0.205,
4544,-0.305,-0.205,
4545,-0.29,-0.21,
4546,-0.285,-0.22,
4547,-0.29,-0.225,
4548,-0.295,-0.23,
4549,-0.31,-0.235,
4550,-0.3,-0.225,
4551,-0.3,-0.215,
4552,-0.285,-0.22,
4553,-0.28,-0.23,
4554,-0.305,-0.225,
4555,-0.305,-0.22,
4556,-0.305,-0.2,
4557,-0.295,-0.195,
4558,-0.29,-0.195,
4559,-0.295,-0.195,
4560,-0.3,-0.2,
4561,-0.305,-0.195,
4562,-0.3,-0.165,
4563,-0.3,-0.145,
4564,-0.295,-0.14,
4565,-0.29,-0.15,
4566,-0.29,-0.17,
4567,-0.285,-0.16,
4568,-0.27,-0.155,
4569,-0.275,-0.15,
4570,-0.27,-0.145,
4571,-0.26,-0.14,
4572,-0.275,-0.145,
4573,-0.285,-0.13,
4574,-0.29,-0.11,
4575,-0.275,-0.085,
4576,-0.255,-0.1,
4577,-0.24,-0.155,
4578,-0.225,-0.235,
4579,-0.215,-0.355,
4580,-0.195,-0.46,
4581,-0.145,-0.535,
4582,-0.065,-0.61,
4583,0.025,-0.7,
4584,0.11,-0.81,
4585,0.2,-0.925,
4586,0.325,-1.0,
4587,0.465,-1.01,
4588,0.59,-0.95,
4589,0.7,-0.88,
4590,0.785,-0.8,
4591,0.85,-0.695,N
4592,0.87,-0.53,
4593,0.795,-0.35,
4594,0.625,-0.23,
4595,0.405,-0.155,
4596,0.18,-0.13,
4597,-0.035,-0.16,
4598,-0.165,-0.185,
4599,-0.26,-0.23,
4600,-0.3,-0.26,
4601,-0.33,-0.27,
4602,-0.34,-0.27,
4603,-0.32,-0.25,
4604,-0.285,-0.235,
4605,-0.27,-0.22,
4606,-0.275,-0.22,
4607,-0.285,-0.225,
4608,-0.29,-0.235,
4609,-0.295,-0.235,
4610,-0.305,-0.23,
4611,-0.305,-0.2,
4612,-0.305,-0.195,
4613,-0.31,-0.195,
4614,-0.325,-0.19,
4615,-0.335,-0.185,
4616,-0.33,-0.17,
4617,-0.32,-0.15,
4618,-0.315,-0.16,
4619,-0.32,-0.165,
4620,-0.32,-0.18,
4621,-0.34,-0.19,
4622,-0.335,-0.185,
4623,-0.34,-0.18,
4624,-0.33,-0.18,
4625,-0.335,-0.195,
4626,-0.35,-0.21,
4627,-0.37,-0.2,
4628,-0.36,-0.205,
4629,-0.35,-0.195,
4630,-0.35,-0.21,
4631,-0.35,-0.225,
4632,-0.34,-0.23,
4633,-0.35,-0.225,
4634,-0.35,-0.205,
4635,-0.345,-0.2,
4636,-0.33,-0.21,
4637,-0.33,-0.24,
4638,-0.32,-0.255,
4639,-0.345,-0.275,
4640,-0.34,-0.27,
4641,-0.32,-0.26,
4642,-0.3,-0.27,
4643,-0.31,-0.285,
4644,-0.315,-0.305,
4645,-0.325,-0.31,
4646,-0.3,-0.31,
4647,-0.295,-0.305,
4648,-0.27,-0.3,
4649,-0.275,-0.31,
4650,-0.285,-0.32,
4651,-0.28,-0.325,
4652,-0.255,-0.31,
4653,-0.255,-0.295,
4654,-0.23,-0.3,
4655,-0.22,-0.305,
4656,-0.235,-0.325,
4657,-0.235,-0.32,
4658,-0.225,-0.315,
4659,-0.215,-0.3,
4660,-0.19,-0.31,
4661,-0.185,-0.32,
4662,-0.18,-0.33,
4663,-0.195,-0.325,
4664,-0.18,-0.31,
4665,-0.17,-0.295,
4666,-0.15,-0.285,
4667,-0.15,-0.285,
4668,-0.15,-0.28,
4669,-0.14,-0.275,
4670,-0.14,-0.27,
4671,-0.115,-0.275,
4672,-0.115,-0.28,
4673,-0.125,-0.28,
4674,-0.145,-0.285,
4675,-0.15,-0.29,
4676,-0.145,-0.275,
4677,-0.145,-0.26,
4678,-0.15,-0.26,
4679,-0.155,-0.25,
4680,-0.17,-0.25,
4681,-0.185,-0.25,
4682,-0.19,-0.24,
4683,-0.185,-0.22,
4684,-0.2,-0.215,
4685,-0.215,-0.215,
4686,-0.23,-0.23,
4687,-0.255,-0.225,
4688,-0.255,-0.21,
4689,-0.265,-0.195,
4690,-0.26,-0.2,
4691,-0.26,-0.205,
4692,-0.275,-0.22,
4693,-0.295,-0.23,
4694,-0.3,-0.23,
4695,-0.305,-0.23,
4696,-0.305,-0.25,
4697,-0.315,-0.24,
4698,-0.315,-0.265,
4699,-0.33,-0.265,
4700,-0.33,-0.26,
4701,-0.325,-0.25,
4702,-0.315,-0.25,
4703,-0.32,-0.25,
4704,-0.32,-0.265,
4705,-0.335,-0.26,
4706,-0.335,-0.24,
4707,-0.325,-0.23,
4708,-0.315,-0.225,
4709,-0.315,-0.235,
4710,-0.315,-0.235,
4711,-0.33,-0.23,
4712,-0.32,-0.22,
4713,-0.32,-0.205,
4714,-0.315,-0.215,
4715,-0.32,-0.225,
4716,-0.325,-0.245,
4717,-0.33,-0.24,
4718,-0.325,-0.235,
4719,-0.32,-0.2,
4720,-0.305,-0.185,
4721,-0.305,-0.185,
4722,-0.31,-0.195,
4723,-0.325,-0.185,
4724,-0.315,-0.185,
4725,-0.3,-0.17,
4726,-0.29,-0.16,
4727,-0.3,-0.16,
4728,-0.305,-0.17,
4729,-0.32,-0.16,
4730,-0.315,-0.16,
4731,-0.305,-0.155,
4732,-0.3,-0.155,
4733,-0.305,-0.155,
4734,-0.32,-0.165,
4735,-0.325,-0.17,
4736,-0.32,-0.15,
4737,-0.315,-0.14,
4738,-0.315,-0.155,
4739,-0.33,-0.155,
4740,-0.325,-0.17,
4741,-0.33,-0.155,
4742,-0.33,-0.15,
4743,-0.325,-0.13,
4744,-0.3,-0.125,
4745,-0.305,-0.12,
4746,-0.31,-0.13,
4747,-0.31,-0.125,
4748,-0.31,-0.115,
4749,-0.305,-0.11,
4750,-0.29,-0.11,
4751,-0.3,-0.13,
4752,-0.305,-0.14,
4753,-0.325,-0.15,
4754,-0.32,-0.155,
4755,-0.305,-0.145,
4756,-0.29,-0.15,
4757,-0.29,-0.165,
4758,-0.295,-0.175,
4759,-0.3,-0.18,
4760,-0.29,-0.165,
4761,-0.285,-0.165,
4762,-0.28,-0.17,
4763,-0.275,-0.18,
4764,-0.29,-0.2,
4765,-0.29,-0.21,
4766,-0.29,-0.205,
4767,-0.29,-0.2,
4768,-0.29,-0.215,
4769,-0.29,-0.23,
4770,-0.31,-0.245,
4771,-0.315,-0.245,
4772,-0.33,-0.24,
4773,-0.32,-0.245,
4774,-0.315,-0.245,
4775,-0.31,-0.24,
4776,-0.32,-0.235,
4777,-0.33,-0.23,
4778,-0.325,-0.21,
4779,-0.315,-0.195,
4780,-0.305,-0.19,
4781,-0.315,-0.19,
4782,-0.315,-0.21,
4783,-0.325,-0.22,
4784,-0.335,-0.21,
4785,-0.325,-0.205,
4786,-0.315,-0.205,
4787,-0.325,-0.225,
4788,-0.335,-0.23,
4789,-0.35,-0.24,
4790,-0.35,-0.22,
4791,-0.34,-0.215,
4792,-0.34,-0.215,
4793,-0.35,-0.22,
4794,-0.365,-0.225,
4795,-0.365,-0.23,
4796,-0.365,-0.22,
4797,-0.355,-0.19,
4798,-0.34,-0.19,
4799,-0.345,-0.205,
4800,-0.355,-0.215,
4801,-0.37,-0.215,
4802,-0.365,-0.205,
4803,-0.35,-0.195,
4804,-0.345,-0.195,
4805,-0.35,-0.2,
4806,-0.36,-0.22,
4807,-0.365,-0.21,
4808,-0.365,-0.215,
4809,-0.35,-0.2,
4810,-0.345,-0.21,
4811,-0.34,-0.205,
4812,-0.36,-0.215,
4813,-0.36,-0.215,
4814,-0.345,-0.195,
4815,-0.335,-0.175,
4816,-0.335,-0.185,
4817,-0.34,-0.16,
4818,-0.35,-0.165,
4819,-0.345,-0.15,
4820,-0.345,-0.145,
4821,-0.325,-0.135,
4822,-0.315,-0.145,
4823,-0.3,-0.15,
4824,-0.305,-0.155,
4825,-0.295,-0.16,
4826,-0.27,-0.16,
4827,-0.265,-0.165,
4828,-0.25,-0.17,
4829,-0.255,-0.16,
4830,-0.275,-0.15,
4831,-0.27,-0.115,
4832,-0.23,-0.095,
4833,-0.2,-0.09,
4834,-0.17,-0.14,
4835,-0.145,-0.235,
4836,-0.135,-0.345,
4837,-0.13,-0.465,
4838,-0.085,-0.555,
4839,0.005,-0.635,
4840,0.1,-0.73,
4841,0.205,-0.855,
4842,0.295,-0.975,
4843,0.41,-1.035,
4844,0.545,-1.005,
4845,0.665,-0.92,
4846,0.76,-0.855,
4847,0.845,-0.76,N
4848,0.885,-0.635,
4849,0.825,-0.46,
4850,0.67,-0.305,
4851,0.47,-0.21,
4852,0.26,-0.16,
4853,0.03,-0.165,
4854,-0.135,-0.22,
4855,-0.245,-0.265,
4856,-0.32,-0.275,
4857,-0.35,-0.265,
4858,-0.33,-0.255,
4859,-0.3,-0.26,
4860,-0.28,-0.26,
4861,-0.295,-0.255,
4862,-0.29,-0.245,
4863,-0.3,-0.23,
4864,-0.3,-0.225,
4865,-0.31,-0.235,
4866,-0.33,-0.245,
4867,-0.335,-0.245,
4868,-0.34,-0.245,
4869,-0.345,-0.23,
4870,-0.35,-0.23,
4871,-0.355,-0.22,
4872,-0.355,-0.22,
4873,-0.36,-0.225,
4874,-0.36,-0.2,
4875,-0.35,-0.195,
4876,-0.34,-0.195,
4877,-0.335,-0.17,
4878,-0.34,-0.17,
4879,-0.35,-0.16,
4880,-0.34,-0.14,
4881,-0.325,-0.13,
4882,-0.315,-0.13,
4883,-0.31,-0.125,
4884,-0.31,-0.135,
4885,-0.325,-0.13,
4886,-0.32,-0.115,
4887,-0.315,-0.1,
4888,-0.31,-0.1,
4889,-0.3,-0.1,
4890,-0.305,-0.11,
4891,-0.3,-0.13,
4892,-0.285,-0.125,
4893,-0.275,-0.125,
4894,-0.26,-0.14,
4895,-0.26,-0.16,
4896,-0.27,-0.165,
4897,-0.28,-0.17,
4898,-0.275,-0.175,
4899,-0.255,-0.2,
4900,-0.245,-0.22,
4901,-0.245,-0.245,
4902,-0.245,-0.26,
4903,-0.255,-0.27,
4904,-0.25,-0.26,
4905,-0.245,-0.255,
4906,-0.23,-0.265,
4907,-0.23,-0.28,
4908,-0.235,-0.285,
4909,-0.235,-0.29,
4910,-0.235,-0.285,
4911,-0.235,-0.28,
4912,-0.22,-0.285,
4913,-0.23,-0.29,
4914,-0.225,-0.305,
4915,-0.235,-0.32,
4916,-0.22,-0.31,
4917,-0.22,-0.305,
4918,-0.215,-0.3,
4919,-0.21,-0.305,
4920,-0.2,-0.32,
4921,-0.22,-0.315,
4922,-0.2,-0.31,
4923,-0.195,-0.305,
4924,-0.18,-0.285,
4925,-0.175,-0.285,
4926,-0.18,-0.295,
4927,-0.18,-0.29,
4928,-0.175,-0.275,
4929,-0.145,-0.26,
4930,-0.14,-0.245,
4931,-0.145,-0.245,
4932,-0.155,-0.24,
4933,-0.17,-0.225,
4934,-0.175,-0.19,
4935,-0.18,-0.18,
4936,-0.2,-0.175,
4937,-0.2,-0.185,
4938,-0.21,-0.19,
4939,-0.23,-0.185,
4940,-0.235,-0.17,
4941,-0.235,-0.16,
4942,-0.24,-0.15,
4943,-0.25,-0.155,
4944,-0.275,-0.165,
4945,-0.29,-0.155,
4946,-0.285,-0.135,
4947,-0.265,-0.125,
4948,-0.26,-0.135,
4949,-0.275,-0.14,
4950,-0.27,-0.145,
4951,-0.275,-0.135,
4952,-0.275,-0.13,
4953,-0.255,-0.125,
4954,-0.255,-0.14,
4955,-0.265,-0.155,
4956,-0.27,-0.165,
4957,-0.275,-0.185,
4958,-0.27,-0.17,
4959,-0.26,-0.18,
4960,-0.255,-0.21,
4961,-0.265,-0.225,
4962,-0.27,-0.24,
4963,-0.27,-0.24,
4964,-0.265,-0.24,
4965,-0.27,-0.24,
4966,-0.265,-0.25,
4967,-0.265,-0.245,
4968,-0.275,-0.255,
4969,-0.28,-0.255,
4970,-0.27,-0.25,
4971,-0.265,-0.235,
4972,-0.255,-0.255,
4973,-0.26,-0.265,
4974,-0.245,-0.27,
4975,-0.24,-0.28,
4976,-0.215,-0.3,
4977,-0.18,-0.36,
4978,-0.16,-0.465,
4979,-0.13,-0.555,
4980,-0.095,-0.625,
4981,-0.025,-0.66,
4982,0.105,-0.685,
4983,0.23,-0.725,
4984,0.34,-0.79,
4985,0.42,-0.86,
4986,0.53,-0.925,
4987,0.645,-0.925,
4988,0.755,-0.895,
4989,0.82,-0.825,N
4990,0.82,-0.745,
4991,0.76,-0.645,
4992,0.645,-0.525,
4993,0.51,-0.365,
4994,0.355,-0.27,
4995,0.165,-0.245,
4996,-0.005,-0.24,
4997,-0.12,-0.21,
4998,-0.15,-0.185,
4999,-0.175,-0.185,
5000,-0.215,-0.165,
5001,-0.25,-0.16,
5002,-0.255,-0.165,
5003,-0.27,-0.14,
5004,-0.275,-0.145,
5005,-0.285,-0.145,
5006,-0.285,-0.145,
5007,-0.285,-0.13,
5008,-0.285,-0.13,
5009,-0.295,-0.145,
5010,-0.315,-0.15,
5011,-0.315,-0.15,
5012,-0.32,-0.15,
5013,-0.315,-0.14,
5014,-0.31,-0.16,
5015,-0.315,-0.165,
5016,-0.315,-0.18,
5017,-0.325,-0.18,
5018,-0.31,-0.16,
5019,-0.305,-0.165,
5020,-0.3,-0.18,
5021,-0.3,-0.185,
5022,-0.305,-0.205,
5023,-0.315,-0.2,
5024,-0.305,-0.205,
5025,-0.305,-0.2,
5026,-0.3,-0.205,
5027,-0.305,-0.195,
5028,-0.315,-0.205,
5029,-0.315,-0.205,
5030,-0.31,-0.185,
5031,-0.3,-0.185,
5032,-0.295,-0.185,
5033,-0.295,-0.195,
5034,-0.31,-0.195,
5035,-0.31,-0.2,
5036,-0.31,-0.17,
5037,-0.3,-0.17,
5038,-0.29,-0.175,
5039,-0.29,-0.175,
5040,-0.305,-0.2,
5041,-0.31,-0.19,
5042,-0.295,-0.185,
5043,-0.28,-0.165,
5044,-0.28,-0.175,
5045,-0.285,-0.175,
5046,-0.28,-0.185,
5047,-0.305,-0.18,
5048,-0.295,-0.16,
5049,-0.295,-0.17,
5050,-0.28,-0.175,
5051,-0.275,-0.185,
5052,-0.275,-0.19,
5053,-0.28,-0.185,
5054,-0.265,-0.175,
5055,-0.25,-0.16,
5056,-0.25,-0.17,
5057,-0.24,-0.17,
5058,-0.255,-0.19,
5059,-0.255,-0.195,
5060,-0.24,-0.195,
5061,-0.235,-0.18,
5062,-0.225,-0.2,
5063,-0.225,-0.205,
5064,-0.23,-0.225,
5065,-0.23,-0.22,
5066,-0.225,-0.215,
5067,-0.22,-0.195,
5068,-0.21,-0.19,
5069,-0.22,-0.185,
5070,-0.22,-0.195,
5071,-0.22,-0.19,
5072,-0.205,-0.16,
5073,-0.185,-0.15,
5074,-0.17,-0.16,
5075,-0.16,-0.16,
5076,-0.155,-0.17,
5077,-0.175,-0.175,
5078,-0.165,-0.17,
5079,-0.155,-0.165,
5080,-0.155,-0.16,
5081,-0.155,-0.16,
5082,-0.165,-0.17,
5083,-0.18,-0.185,
5084,-0.19,-0.18,
5085,-0.17,-0.185,
5086,-0.17,-0.19,
5087,-0.18,-0.205,
5088,-0.21,-0.225,
5089,-0.225,-0.215,
5090,-0.225,-0.215,
5091,-0.23,-0.19,
5092,-0.235,-0.2,
5093,-0.24,-0.2,
5094,-0.25,-0.21,
5095,-0.255,-0.22,
5096,-0.255,-0.22,
5097,-0.255,-0.195,
5098,-0.255,-0.19,
5099,-0.255,-0.195,
5100,-0.27,-0.215,
5101,-0.275,-0.21,
5102,-0.28,-0.2,
5103,-0.28,-0.195,
5104,-0.275,-0.19,
5105,-0.265,-0.195,
5106,-0.28,-0.205,
5107,-0.29,-0.2,
5108,-0.29,-0.19,
5109,-0.29,-0.185,
5110,-0.28,-0.185,
5111,-0.285,-0.2,
5112,-0.29,-0.205,
5113,-0.3,-0.2,
5114,-0.3,-0.18,
5115,-0.285,-0.19,
5116,-0.29,-0.18,
5117,-0.28,-0.185,
5118,-0.29,-0.195,
5119,-0.3,-0.2,
5120,-0.3,-0.19,
5121,-0.28,-0.16,
5122,-0.29,-0.165,
5123,-0.285,-0.16,
5124,-0.29,-0.165,
5125,-0.305,-0.155,
5126,-0.29,-0.15,
5127,-0.285,-0.15,
5128,-0.28,-0.155,
5129,-0.285,-0.17,
5130,-0.29,-0.175,
5131,-0.31,-0.19,
5132,-0.315,-0.175,
5133,-0.31,-0.155,
5134,-0.305,-0.165,
5135,-0.325,-0.16,
5136,-0.335,-0.17,
5137,-0.35,-0.16,
5138,-0.345,-0.125,
5139,-0.335,-0.1,
5140,-0.31,-0.115,
5141,-0.28,-0.105,
5142,-0.275,-0.125,
5143,-0.285,-0.135,
5144,-0.27,-0.14,
5145,-0.265,-0.13,
5146,-0.26,-0.14,
5147,-0.26,-0.155,
5148,-0.28,-0.155,
5149,-0.285,-0.175,
5150,-0.285,-0.16,
5151,-0.275,-0.155,
5152,-0.28,-0.17,
5153,-0.265,-0.185,
5154,-0.285,-0.19,
5155,-0.295,-0.205,
5156,-0.28,-0.19,
5157,-0.285,-0.185,
5158,-0.28,-0.19,
5159,-0.3,-0.2,
5160,-0.31,-0.235,
5161,-0.325,-0.235,
5162,-0.32,-0.225,
5163,-0.32,-0.205,
5164,-0.315,-0.215,
5165,-0.325,-0.22,
5166,-0.34,-0.225,
5167,-0.345,-0.225,
5168,-0.345,-0.22,
5169,-0.34,-0.205,
5170,-0.33,-0.21,
5171,-0.33,-0.215,
5172,-0.345,-0.24,
5173,-0.345,-0.24,
5174,-0.34,-0.23,
5175,-0.33,-0.205,
5176,-0.315,-0.21,
5177,-0.32,-0.21,
5178,-0.33,-0.215,
5179,-0.35,-0.21,
5180,-0.35,-0.195,
5181,-0.345,-0.17,
5182,-0.345,-0.185,
5183,-0.345,-0.19,
5184,-0.355,-0.19,
5185,-0.37,-0.195,
5186,-0.37,-0.17,
5187,-0.365,-0.15,
5188,-0.35,-0.16,
5189,-0.36,-0.16,
5190,-0.37,-0.18,
5191,-0.39,-0.175,
5192,-0.395,-0.16,
5193,-0.395,-0.15,
5194,-0.385,-0.14,
5195,-0.375,-0.15,
5196,-0.4,-0.15,
5197,-0.4,-0.155,
5198,-0.39,-0.125,
5199,-0.355,-0.095,
5200,-0.325,-0.08,
5201,-0.32,-0.075,
5202,-0.32,-0.09,
5203,-0.31,-0.09,
5204,-0.295,-0.07,
5205,-0.275,-0.065,
5206,-0.25,-0.06,
5207,-0.23,-0.1,
5208,-0.215,-0.175,
5209,-0.2,-0.275,
5210,-0.17,-0.37,
5211,-0.125,-0.435,
5212,-0.05,-0.54,
5213,0.055,-0.645,
5214,0.155,-0.765,
5215,0.25,-0.895,
5216,0.37,-1.005,
5217,0.505,-1.05,
5218,0.63,-1.03,
5219,0.705,-0.97,
5220,0.76,-0.915,N
5221,0.815,-0.79,
5222,0.82,-0.615,
5223,0.745,-0.455,
5224,0.615,-0.36,
5225,0.445,-0.305,
5226,0.24,-0.285,
5227,0.06,-0.295,
5228,-0.055,-0.295,
5229,-0.12,-0.29,
5230,-0.165,-0.265,
5231,-0.205,-0.25,
5232,-0.23,-0.25,
5233,-0.235,-0.255,
5234,-0.225,-0.225,
5235,-0.225,-0.205,
5236,-0.225,-0.225,
5237,-0.255,-0.215,
5238,-0.275,-0.215,
5239,-0.29,-0.215,
5240,-0.29,-0.215,
5241,-0.305,-0.205,
5242,-0.305,-0.215,
5243,-0.31,-0.23,
5244,-0.33,-0.23,
5245,-0.345,-0.235,
5246,-0.34,-0.205,
5247,-0.345,-0.195,
5248,-0.35,-0.195,
5249,-0.365,-0.195,
5250,-0.375,-0.205,
5251,-0.385,-0.2,
5252,-0.37,-0.2,
5253,-0.36,-0.18,
5254,-0.35,-0.18,
5255,-0.36,-0.175,
5256,-0.375,-0.175,
5257,-0.37,-0.18,
5258,-0.365,-0.16,
5259,-0.365,-0.15,
5260,-0.36,-0.155,
5261,-0.37,-0.155,
5262,-0.385,-0.15,
5263,-0.39,-0.14,
5264,-0.385,-0.115,
5265,-0.385,-0.115,
5266,-0.37,-0.115,
5267,-0.375,-0.115,
5268,-0.355,-0.115,
5269,-0.35,-0.105,
5270,-0.315,-0.105,
5271,-0.29,-0.11,
5272,-0.28,-0.125,
5273,-0.28,-0.15,
5274,-0.28,-0.165,
5275,-0.29,-0.16,
5276,-0.27,-0.155,
5277,-0.26,-0.155,
5278,-0.245,-0.165,
5279,-0.245,-0.185,
5280,-0.26,-0.195,
5281,-0.255,-0.195,
5282,-0.245,-0.19,
5283,-0.24,-0.21,
5284,-0.235,-0.225,
5285,-0.24,-0.26,
5286,-0.245,-0.275,
5287,-0.26,-0.285,
5288,-0.255,-0.28,
5289,-0.245,-0.27,
5290,-0.25,-0.285,
5291,-0.245,-0.285,
5292,-0.255,-0.3,
5293,-0.26,-0.3,
5294,-0.25,-0.285,
5295,-0.245,-0.285,
5296,-0.245,-0.29,
5297,-0.245,-0.3,
5298,-0.255,-0.295,
5299,-0.255,-0.295,
5300,-0.23,-0.29,
5301,-0.235,-0.285,
5302,-0.23,-0.295,
5303,-0.225,-0.31,
5304,-0.22,-0.32,
5305,-0.215,-0.305,
5306,-0.215,-0.295,
5307,-0.215,-0.265,
5308,-0.21,-0.27,
5309,-0.22,-0.265,
5310,-0.225,-0.27,
5311,-0.23,-0.27,
5312,-0.235,-0.27,
5313,-0.23,-0.245,
5314,-0.23,-0.24,
5315,-0.245,-0.23,
5316,-0.24,-0.24,
5317,-0.25,-0.23,
5318,-0.25,-0.205,
5319,-0.25,-0.195,
5320,-0.25,-0.195,
5321,-0.27,-0.195,
5322,-0.28,-0.195,
5323,-0.285,-0.19,
5324,-0.29,-0.16,
5325,-0.275,-0.15,
5326,-0.275,-0.165,
5327,-0.275,-0.17,
5328,-0.29,-0.18,
5329,-0.295,-0.17,
5330,-0.29,-0.165,
5331,-0.29,-0.16,
5332,-0.285,-0.17,
5333,-0.275,-0.185,
5334,-0.275,-0.185,
5335,-0.28,-0.185,
5336,-0.255,-0.18,
5337,-0.24,-0.175,
5338,-0.225,-0.175,
5339,-0.23,-0.195,
5340,-0.23,-0.205,
5341,-0.235,-0.225,
5342,-0.23,-0.22,
5343,-0.22,-0.2,
5344,-0.225,-0.225,
5345,-0.225,-0.235,
5346,-0.235,-0.255,
5347,-0.24,-0.27,
5348,-0.235,-0.255,
5349,-0.225,-0.25,
5350,-0.23,-0.265,
5351,-0.225,-0.265,
5352,-0.245,-0.265,
5353,-0.26,-0.29,
5354,-0.255,-0.27,
5355,-0.25,-0.275,
5356,-0.245,-0.29,
5357,-0.255,-0.295,
5358,-0.265,-0.305,
5359,-0.285,-0.29,
5360,-0.27,-0.27,
5361,-0.26,-0.245,
5362,-0.265,-0.255,
5363,-0.27,-0.26,
5364,-0.28,-0.27,
5365,-0.28,-0.25,
5366,-0.285,-0.24,
5367,-0.28,-0.24,
5368,-0.28,-0.235,
5369,-0.29,-0.235,
5370,-0.3,-0.235,
5371,-0.305,-0.23,
5372,-0.31,-0.22,
5373,-0.31,-0.205,
5374,-0.295,-0.205,
5375,-0.3,-0.195,
5376,-0.31,-0.205,
5377,-0.325,-0.195,
5378,-0.31,-0.185,
5379,-0.31,-0.17,
5380,-0.29,-0.165,
5381,-0.295,-0.165,
5382,-0.305,-0.175,
5383,-0.31,-0.18,
5384,-0.305,-0.165,
5385,-0.3,-0.145,
5386,-0.29,-0.15,
5387,-0.295,-0.15,
5388,-0.305,-0.16,
5389,-0.295,-0.165,
5390,-0.29,-0.145,
5391,-0.28,-0.145,
5392,-0.275,-0.145,
5393,-0.28,-0.165,
5394,-0.29,-0.17,
5395,-0.3,-0.17,
5396,-0.295,-0.145,
5397,-0.28,-0.13,
5398,-0.26,-0.12,
5399,-0.26,-0.13,
5400,-0.255,-0.14,
5401,-0.255,-0.15,
5402,-0.245,-0.145,
5403,-0.235,-0.155,
5404,-0.23,-0.165,
5405,-0.23,-0.18,
5406,-0.245,-0.195,
5407,-0.255,-0.205,
5408,-0.26,-0.205,
5409,-0.26,-0.215,
5410,-0.26,-0.235,
5411,-0.265,-0.255,
5412,-0.27,-0.265,
5413,-0.29,-0.28,
5414,-0.285,-0.28,
5415,-0.29,-0.275,
5416,-0.295,-0.27,
5417,-0.295,-0.27,
5418,-0.305,-0.28,
5419,-0.31,-0.275,
5420,-0.315,-0.265,
5421,-0.315,-0.255,
5422,-0.305,-0.26,
5423,-0.3,-0.26,
5424,-0.31,-0.265,
5425,-0.315,-0.26,
5426,-0.305,-0.26,
5427,-0.31,-0.24,
5428,-0.3,-0.24,
5429,-0.315,-0.25,
5430,-0.315,-0.25,
5431,-0.31,-0.25,
5432,-0.315,-0.24,
5433,-0.315,-0.235,
5434,-0.305,-0.245,
5435,-0.31,-0.245,
5436,-0.315,-0.25,
5437,-0.32,-0.24,
5438,-0.32,-0.235,
5439,-0.325,-0.22,
5440,-0.31,-0.21,
5441,-0.31,-0.215,
5442,-0.315,-0.22,
5443,-0.315,-0.23,
5444,-0.305,-0.215,
5445,-0.305,-0.21,
5446,-0.29,-0.21,
5447,-0.29,-0.21,
5448,-0.295,-0.215,
5449,-0.295,-0.2,
5450,-0.3,-0.19,
5451,-0.29,-0.18,
5452,-0.29,-0.2,
5453,-0.29,-0.205,
5454,-0.295,-0.2,
5455,-0.305,-0.205,
5456,-0.295,-0.195,
5457,-0.29,-0.19,
5458,-0.28,-0.195,
5459,-0.29,-0.18,
5460,-0.29,-0.17,
5461,-0.295,-0.15,
5462,-0.28,-0.145,
5463,-0.255,-0.145,
5464,-0.235,-0.2,
5465,-0.225,-0.28,
5466,-0.215,-0.39,
5467,-0.195,-0.5,
5468,-0.135,-0.58,
5469,-0.045,-0.665,
5470,0.07,-0.76,
5471,0.195,-0.895,
5472,0.31,-1.01,
5473,0.42,-1.065,
5474,0.55,-1.055,
5475,0.68,-0.985,
5476,0.76,-0.925,
5477,0.84,-0.84,N
5478,0.895,-0.75,
5479,0.89,-0.595,
5480,0.815,-0.43,
5481,0.665,-0.305,
5482,0.475,-0.22,
5483,0.25,-0.165,
5484,0.03,-0.17,
5485,-0.135,-0.225,
5486,-0.23,-0.27,
5487,-0.285,-0.27,
5488,-0.315,-0.275,
5489,-0.325,-0.27,
5490,-0.315,-0.255,
5491,-0.285,-0.245,
5492,-0.26,-0.225,
5493,-0.26,-0.22,
5494,-0.275,-0.225,
5495,-0.28,-0.225,
5496,-0.29,-0.225,
5497,-0.315,-0.215,
5498,-0.305,-0.19,
5499,-0.3,-0.175,
5500,-0.295,-0.175,
5501,-0.3,-0.17,
5502,-0.3,-0.19,
5503,-0.305,-0.195,
5504,-0.31,-0.19,
5505,-0.305,-0.185,
5506,-0.3,-0.195,
5507,-0.31,-0.195,
5508,-0.315,-0.205,
5509,-0.315,-0.205,
5510,-0.315,-0.21,
5511,-0.315,-0.2,
5512,-0.31,-0.225,
5513,-0.32,-0.24,
5514,-0.325,-0.26,
5515,-0.325,-0.245,
5516,-0.33,-0.26,
5517,-0.32,-0.255,
5518,-0.325,-0.26,
5519,-0.325,-0.26,
5520,-0.325,-0.275,
5521,-0.33,-0.27,
5522,-0.32,-0.265,
5523,-0.32,-0.265,
5524,-0.32,-0.28,
5525,-0.32,-0.29,
5526,-0.32,-0.3,
5527,-0.315,-0.3,
5528,-0.305,-0.3,
5529,-0.305,-0.295,
5530,-0.3,-0.31,
5531,-0.3,-0.3,
5532,-0.3,-0.305,
5533,-0.305,-0.29,
5534,-0.29,-0.29,
5535,-0.28,-0.27,
5536,-0.265,-0.265,
5537,-0.255,-0.28,
5538,-0.25,-0.27,
5539,-0.25,-0.275,
5540,-0.25,-0.28,
5541,-0.23,-0.27,
5542,-0.22,-0.28,
5543,-0.225,-0.29,
5544,-0.24,-0.305,
5545,-0.25,-0.295,
5546,-0.24,-0.285,
5547,-0.24,-0.28,
5548,-0.23,-0.275,
5549,-0.225,-0.285,
5550,-0.25,-0.275,
5551,-0.235,-0.27,
5552,-0.215,-0.265,
5553,-0.21,-0.24,
5554,-0.195,-0.265,
5555,-0.2,-0.275,
5556,-0.2,-0.285,
5557,-0.205,-0.29,
5558,-0.19,-0.28,
5559,-0.18,-0.265,
5560,-0.17,-0.27,
5561,-0.16,-0.28,
5562,-0.17,-0.29,
5563,-0.165,-0.29,
5564,-0.16,-0.275,
5565,-0.165,-0.275,
5566,-0.15,-0.28,
5567,-0.16,-0.285,
5568,-0.17,-0.285,
5569,-0.17,-0.295,
5570,-0.175,-0.3,
5571,-0.17,-0.3,
5572,-0.175,-0.295,
5573,-0.185,-0.295,
5574,-0.22,-0.3,
5575,-0.225,-0.315,
5576,-0.225,-0.3,
5577,-0.23,-0.29,
5578,-0.225,-0.285,
5579,-0.235,-0.295,
5580,-0.25,-0.295,
5581,-0.25,-0.28,
5582,-0.255,-0.275,
5583,-0.25,-0.265,
5584,-0.255,-0.28,
5585,-0.26,-0.28,
5586,-0.27,-0.3,
5587,-0.295,-0.285,
5588,-0.285,-0.265,
5589,-0.285,-0.24,
5590,-0.28,-0.255,
5591,-0.285,-0.26,
5592,-0.29,-0.275,
5593,-0.28,-0.25,
5594,-0.275,-0.23,
5595,-0.27,-0.21,
5596,-0.265,-0.215,
5597,-0.275,-0.215,
5598,-0.275,-0.215,
5599,-0.28,-0.21,
5600,-0.28,-0.19,
5601,-0.275,-0.2,
5602,-0.255,-0.215,
5603,-0.27,-0.205,
5604,-0.285,-0.215,
5605,-0.295,-0.2,
5606,-0.29,-0.195,
5607,-0.29,-0.17,
5608,-0.28,-0.18,
5609,-0.28,-0.18,
5610,-0.28,-0.185,
5611,-0.29,-0.175,
5612,-0.27,-0.18,
5613,-0.265,-0.175,
5614,-0.255,-0.175,
5615,-0.26,-0.19,
5616,-0.265,-0.2,
5617,-0.27,-0.2,
5618,-0.265,-0.195,
5619,-0.26,-0.185,
5620,-0.26,-0.205,
5621,-0.275,-0.2,
5622,-0.275,-0.21,
5623,-0.28,-0.205,
5624,-0.265,-0.2,
5625,-0.265,-0.18,
5626,-0.26,-0.19,
5627,-0.265,-0.205,
5628,-0.275,-0.23,
5629,-0.28,-0.23,
5630,-0.27,-0.23,
5631,-0.265,-0.23,
5632,-0.255,-0.23,
5633,-0.265,-0.23,
5634,-0.285,-0.25,
5635,-0.295,-0.255,
5636,-0.29,-0.24,
5637,-0.285,-0.25,
5638,-0.28,-0.25,
5639,-0.285,-0.27,
5640,-0.29,-0.28,
5641,-0.29,-0.27,
5642,-0.285,-0.255,
5643,-0.26,-0.24,
5644,-0.255,-0.245,
5645,-0.25,-0.25,
5646,-0.265,-0.275,
5647,-0.275,-0.275,
5648,-0.275,-0.27,
5649,-0.275,-0.255,
5650,-0.265,-0.25,
5651,-0.265,-0.26,
5652,-0.28,-0.28,
5653,-0.285,-0.265,
5654,-0.285,-0.25,
5655,-0.275,-0.225,
5656,-0.265,-0.215,
5657,-0.27,-0.22,
5658,-0.28,-0.225,
5659,-0.29,-0.215,
5660,-0.28,-0.21,
5661,-0.265,-0.19,
5662,-0.26,-0.175,
5663,-0.27,-0.19,
5664,-0.28,-0.19,
5665,-0.285,-0.175,
5666,-0.265,-0.17,
5667,-0.255,-0.15,
5668,-0.245,-0.15,
5669,-0.245,-0.125,
5670,-0.255,-0.12,
5671,-0.255,-0.11,
5672,-0.235,-0.1,
5673,-0.22,-0.12,
5674,-0.2,-0.205,
5675,-0.215,-0.315,
5676,-0.195,-0.42,
5677,-0.18,-0.5,
5678,-0.125,-0.56,
5679,-0.04,-0.615,
5680,0.05,-0.695,
5681,0.135,-0.795,
5682,0.22,-0.895,
5683,0.325,-0.935,
5684,0.46,-0.925,
5685,0.575,-0.85,
5686,0.675,-0.775,
5687,0.78,-0.685,
5688,0.845,-0.595,N
5689,0.855,-0.455,
5690,0.79,-0.305,
5691,0.66,-0.19,
5692,0.48,-0.125,
5693,0.265,-0.1,
5694,0.05,-0.125,
5695,-0.115,-0.17,
5696,-0.23,-0.225,
5697,-0.295,-0.265,
5698,-0.34,-0.275,
5699,-0.345,-0.275,
5700,-0.31,-0.28,
5701,-0.28,-0.285,
5702,-0.245,-0.27,
5703,-0.235,-0.255,
5704,-0.255,-0.255,
5705,-0.265,-0.255,
5706,-0.285,-0.26,
5707,-0.295,-0.265,
5708,-0.3,-0.26,
5709,-0.305,-0.255,
5710,-0.295,-0.25,
5711,-0.31,-0.26,
5712,-0.315,-0.26,
5713,-0.315,-0.26,
5714,-0.31,-0.24,
5715,-0.31,-0.235,
5716,-0.31,-0.225,
5717,-0.31,-0.23,
5718,-0.315,-0.24,
5719,-0.32,-0.24,
5720,-0.32,-0.24,
5721,-0.32,-0.215,
5722,-0.315,-0.225,
5723,-0.325,-0.22,
5724,-0.335,-0.225,
5725,-0.345,-0.22,
5726,-0.32,-0.22,
5727,-0.32,-0.2,
5728,-0.31,-0.205,
5729,-0.31,-0.205,
5730,-0.32,-0.2,
5731,-0.32,-0.18,
5732,-0.315,-0.175,
5733,-0.31,-0.16,
5734,-0.295,-0.175,
5735,-0.295,-0.185,
5736,-0.3,-0.185,
5737,-0.3,-0.18,
5738,-0.29,-0.18,
5739,-0.285,-0.16,
5740,-0.28,-0.17,
5741,-0.28,-0.17,
5742,-0.285,-0.175,
5743,-0.29,-0.19,
5744,-0.285,-0.185,
5745,-0.275,-0.175,
5746,-0.275,-0.185,
5747,-0.27,-0.2,
5748,-0.275,-0.205,
5749,-0.285,-0.2,
5750,-0.265,-0.185,
5751,-0.255,-0.16,
5752,-0.245,-0.185,
5753,-0.24,-0.185,
5754,-0.25,-0.2,
5755,-0.255,-0.215,
5756,-0.245,-0.205,
5757,-0.235,-0.205,
5758,-0.235,-0.2,
5759,-0.23,-0.205,
5760,-0.235,-0.215,
5761,-0.225,-0.21,
5762,-0.215,-0.2,
5763,-0.2,-0.19,
5764,-0.195,-0.195,
5765,-0.205,-0.185,
5766,-0.215,-0.2,
5767,-0.235,-0.195,
5768,-0.225,-0.19,
5769,-0.215,-0.195,
5770,-0.21,-0.205,
5771,-0.21,-0.21,
5772,-0.215,-0.225,
5773,-0.22,-0.235,
5774,-0.215,-0.215,
5775,-0.21,-0.205,
5776,-0.2,-0.225,
5777,-0.21,-0.23,
5778,-0.23,-0.24,
5779,-0.24,-0.25,
5780,-0.23,-0.235,
5781,-0.23,-0.225,
5782,-0.225,-0.235,
5783,-0.24,-0.255,
5784,-0.245,-0.25,
5785,-0.255,-0.25,
5786,-0.245,-0.24,
5787,-0.245,-0.24,
5788,-0.245,-0.25,
5789,-0.25,-0.275,
5790,-0.265,-0.275,
5791,-0.285,-0.285,
5792,-0.275,-0.255,
5793,-0.275,-0.245,
5794,-0.265,-0.27,
5795,-0.275,-0.28,
5796,-0.295,-0.3,
5797,-0.31,-0.295,
5798,-0.305,-0.29,
5799,-0.295,-0.265,
5800,-0.3,-0.245,
5801,-0.295,-0.255,
5802,-0.285,-0.255,
5803,-0.285,-0.245,
5804,-0.285,-0.24,
5805,-0.27,-0.215,
5806,-0.25,-0.225,
5807,-0.255,-0.225,
5808,-0.26,-0.22,
5809,-0.275,-0.225,
5810,-0.28,-0.225,
5811,-0.26,-0.21,
5812,-0.27,-0.23,
5813,-0.27,-0.235,
5814,-0.28,-0.24,
5815,-0.28,-0.235,
5816,-0.275,-0.225,
5817,-0.27,-0.2,
5818,-0.27,-0.2,
5819,-0.26,-0.21,
5820,-0.27,-0.225,
5821,-0.275,-0.225,
5822,-0.265,-0.21,
5823,-0.255,-0.205,
5824,-0.24,-0.205,
5825,-0.26,-0.21,
5826,-0.27,-0.225,
5827,-0.275,-0.21,
5828,-0.275,-0.21,
5829,-0.27,-0.19,
5830,-0.275,-0.2,
5831,-0.27,-0.205,
5832,-0.27,-0.22,
5833,-0.27,-0.215,
5834,-0.26,-0.195,
5835,-0.255,-0.18,
5836,-0.255,-0.185,
5837,-0.26,-0.195,
5838,-0.265,-0.2,
5839,-0.28,-0.22,
5840,-0.28,-0.21,
5841,-0.28,-0.185,
5842,-0.265,-0.195,
5843,-0.265,-0.2,
5844,-0.275,-0.22,
5845,-0.295,-0.225,
5846,-0.29,-0.21,
5847,-0.28,-0.2,
5848,-0.285,-0.2,
5849,-0.28,-0.215,
5850,-0.295,-0.215,
5851,-0.3,-0.205,
5852,-0.3,-0.2,
5853,-0.285,-0.195,
5854,-0.285,-0.205,
5855,-0.275,-0.215,
5856,-0.29,-0.23,
5857,-0.295,-0.22,
5858,-0.295,-0.215,
5859,-0.295,-0.2,
5860,-0.29,-0.215,
5861,-0.29,-0.23,
5862,-0.3,-0.23,
5863,-0.31,-0.24,
5864,-0.3,-0.245,
5865,-0.295,-0.235,
5866,-0.285,-0.255,
5867,-0.285,-0.275,
5868,-0.285,-0.29,
5869,-0.29,-0.29,
5870,-0.285,-0.285,
5871,-0.28,-0.25,
5872,-0.275,-0.25,
5873,-0.27,-0.24,
5874,-0.275,-0.235,
5875,-0.275,-0.23,
5876,-0.245,-0.215,
5877,-0.225,-0.195,
5878,-0.23,-0.195,
5879,-0.245,-0.205,
5880,-0.255,-0.21,
5881,-0.28,-0.205,
5882,-0.26,-0.21,
5883,-0.26,-0.19,
5884,-0.26,-0.2,
5885,-0.265,-0.215,
5886,-0.265,-0.22,
5887,-0.265,-0.22,
5888,-0.265,-0.205,
5889,-0.255,-0.195,
5890,-0.25,-0.195,
5891,-0.245,-0.205,
5892,-0.26,-0.22,
5893,-0.26,-0.215,
5894,-0.25,-0.2,
5895,-0.235,-0.2,
5896,-0.235,-0.21,
5897,-0.24,-0.21,
5898,-0.25,-0.22,
5899,-0.255,-0.225,
5900,-0.26,-0.205,
5901,-0.245,-0.19,
5902,-0.245,-0.18,
5903,-0.25,-0.18,
5904,-0.255,-0.215,
5905,-0.245,-0.26,
5906,-0.215,-0.34,
5907,-0.19,-0.405,
5908,-0.165,-0.47,
5909,-0.13,-0.54,
5910,-0.045,-0.62,
5911,0.055,-0.69,
5912,0.14,-0.8,
5913,0.24,-0.905,
5914,0.35,-1.015,
5915,0.465,-1.06,
5916,0.57,-1.04,
5917,0.63,-1.0,
5918,0.705,-0.925,
5919,0.775,-0.815,N
5920,0.8,-0.675,
5921,0.75,-0.55,
5922,0.64,-0.455,
5923,0.515,-0.385,
5924,0.34,-0.345,
5925,0.155,-0.33,
5926,0.01,-0.355,
5927,-0.08,-0.36,
5928,-0.15,-0.35,
5929,-0.18,-0.315,
5930,-0.21,-0.3,
5931,-0.22,-0.28,
5932,-0.21,-0.265,
5933,-0.21,-0.255,
5934,-0.225,-0.245,
5935,-0.235,-0.22,
5936,-0.235,-0.205,
5937,-0.245,-0.195,
5938,-0.245,-0.195,
5939,-0.245,-0.195,
5940,-0.255,-0.195,
5941,-0.26,-0.185,
5942,-0.25,-0.16,
5943,-0.25,-0.155,
5944,-0.24,-0.165,
5945,-0.245,-0.19,
5946,-0.255,-0.19,
5947,-0.265,-0.2,
5948,-0.245,-0.175,
5949,-0.235,-0.17,
5950,-0.23,-0.175,
5951,-0.24,-0.2,
5952,-0.26,-0.225,
5953,-0.265,-0.22,
5954,-0.25,-0.21,
5955,-0.245,-0.2,
5956,-0.255,-0.195,
5957,-0.255,-0.205,
5958,-0.265,-0.215,
5959,-0.26,-0.21,
5960,-0.255,-0.205,
5961,-0.245,-0.185,
5962,-0.245,-0.2,
5963,-0.26,-0.2,
5964,-0.27,-0.22,
5965,-0.28,-0.22,
5966,-0.27,-0.215,
5967,-0.265,-0.195,
5968,-0.26,-0.195,
5969,-0.27,-0.21,
5970,-0.275,-0.215,
5971,-0.29,-0.22,
5972,-0.28,-0.205,
5973,-0.28,-0.19,
5974,-0.27,-0.2,
5975,-0.285,-0.215,
5976,-0.29,-0.23,
5977,-0.305,-0.23,
5978,-0.3,-0.225,
5979,-0.29,-0.21,
5980,-0.3,-0.23,
5981,-0.31,-0.245,
5982,-0.305,-0.255,
5983,-0.31,-0.27,
5984,-0.29,-0.27,
5985,-0.285,-0.265,
5986,-0.28,-0.275,
5987,-0.285,-0.285,
5988,-0.295,-0.295,
5989,-0.285,-0.31,
5990,-0.285,-0.29,
5991,-0.265,-0.285,
5992,-0.245,-0.29,
5993,-0.245,-0.295,
5994,-0.24,-0.32,
5995,-0.24,-0.31,
5996,-0.235,-0.31,
5997,-0.225,-0.305,
5998,-0.21,-0.305,
5999,-0.205,-0.295,
6000,-0.215,-0.305,
6001,-0.22,-0.305,
6002,-0.185,-0.285,
6003,-0.17,-0.26,
6004,-0.145,-0.255,
6005,-0.14,-0.245,
6006,-0.135,-0.245,
6007,-0.145,-0.255,
6008,-0.135,-0.235,
6009,-0.11,-0.225,
6010,-0.105,-0.23,
6011,-0.11,-0.225,
6012,-0.13,-0.225,
6013,-0.13,-0.225,
6014,-0.135,-0.205,
6015,-0.13,-0.2,
6016,-0.125,-0.22,
6017,-0.135,-0.22,
6018,-0.145,-0.225,
6019,-0.16,-0.235,
6020,-0.165,-0.225,
6021,-0.165,-0.2,
6022,-0.16,-0.21,
6023,-0.18,-0.21,
6024,-0.195,-0.225,
6025,-0.2,-0.225,
6026,-0.21,-0.215,
6027,-0.21,-0.21,
6028,-0.215,-0.205,
6029,-0.23,-0.2,
6030,-0.245,-0.2,
6031,-0.26,-0.21,
6032,-0.26,-0.185,
6033,-0.265,-0.18,
6034,-0.27,-0.18,
6035,-0.275,-0.185,
6036,-0.285,-0.19,
6037,-0.29,-0.185,
6038,-0.29,-0.19,
6039,-0.285,-0.185,
6040,-0.285,-0.195,
6041,-0.285,-0.21,
6042,-0.295,-0.225,
6043,-0.305,-0.205,
6044,-0.3,-0.2,
6045,-0.295,-0.185,
6046,-0.29,-0.19,
6047,-0.295,-0.2,
6048,-0.29,-0.195,
6049,-0.285,-0.19,
6050,-0.28,-0.185,
6051,-0.265,-0.18,
6052,-0.265,-0.185,
6053,-0.265,-0.195,
6054,-0.27,-0.205,
6055,-0.275,-0.205,
6056,-0.255,-0.19,
6057,-0.25,-0.2,
6058,-0.24,-0.215,
6059,-0.245,-0.235,
6060,-0.245,-0.25,
6061,-0.235,-0.275,
6062,-0.235,-0.275,
6063,-0.215,-0.27,
6064,-0.2,-0.27,
6065,-0.205,-0.275,
6066,-0.215,-0.29,
6067,-0.215,-0.26,
6068,-0.215,-0.265,
6069,-0.2,-0.26,
6070,-0.195,-0.255,
6071,-0.21,-0.25,
6072,-0.215,-0.25,
6073,-0.21,-0.235,
6074,-0.2,-0.21,
6075,-0.195,-0.195,
6076,-0.185,-0.2,
6077,-0.19,-0.21,
6078,-0.195,-0.225,
6079,-0.195,-0.215,
6080,-0.19,-0.21,
6081,-0.185,-0.21,
6082,-0.175,-0.22,
6083,-0.18,-0.23,
6084,-0.195,-0.24,
6085,-0.2,-0.235,
6086,-0.19,-0.225,
6087,-0.19,-0.23,
6088,-0.175,-0.26,
6089,-0.165,-0.325,
6090,-0.165,-0.42,
6091,-0.13,-0.495,
6092,-0.09,-0.555,
6093,-0.03,-0.62,
6094,0.065,-0.69,
6095,0.14,-0.765,
6096,0.215,-0.845,
6097,0.28,-0.945,
6098,0.37,-1.015,
6099,0.465,-1.05,
6100,0.56,-1.05,
6101,0.635,-1.015,
6102,0.68,-0.96,N
6103,0.71,-0.85,
6104,0.71,-0.71,
6105,0.66,-0.55,
6106,0.55,-0.415,
6107,0.385,-0.305,
6108,0.2,-0.26,
6109,0.025,-0.25,
6110,-0.095,-0.25,
6111,-0.14,-0.25,
6112,-0.145,-0.24,
6113,-0.16,-0.22,
6114,-0.185,-0.22,
6115,-0.21,-0.19,
6116,-0.21,-0.175,
6117,-0.2,-0.175,
6118,-0.2,-0.165,
6119,-0.215,-0.18,
6120,-0.23,-0.185,
6121,-0.25,-0.19,
6122,-0.26,-0.18,
6123,-0.265,-0.185,
6124,-0.26,-0.2,
6125,-0.27,-0.21,
6126,-0.28,-0.235,
6127,-0.275,-0.24,
6128,-0.275,-0.24,
6129,-0.25,-0.235,
6130,-0.25,-0.225,
6131,-0.25,-0.225,
6132,-0.275,-0.215,
6133,-0.285,-0.21,
6134,-0.27,-0.185,
6135,-0.265,-0.18,
6136,-0.255,-0.195,
6137,-0.27,-0.205,
6138,-0.275,-0.21,
6139,-0.295,-0.215,
6140,-0.29,-0.2,
6141,-0.28,-0.205,
6142,-0.295,-0.205,
6143,-0.295,-0.21,
6144,-0.31,-0.215,
6145,-0.32,-0.205,
6146,-0.31,-0.19,
6147,-0.295,-0.18,
6148,-0.295,-0.19,
6149,-0.3,-0.19,
6150,-0.305,-0.205,
6151,-0.32,-0.2,
6152,-0.3,-0.185,
6153,-0.29,-0.18,
6154,-0.29,-0.185,
6155,-0.29,-0.205,
6156,-0.3,-0.235,
6157,-0.31,-0.255,
6158,-0.285,-0.245,
6159,-0.29,-0.25,
6160,-0.285,-0.245,
6161,-0.285,-0.255,
6162,-0.3,-0.26,
6163,-0.295,-0.255,
6164,-0.275,-0.245,
6165,-0.26,-0.245,
6166,-0.245,-0.25,
6167,-0.245,-0.26,
6168,-0.24,-0.26,
6169,-0.24,-0.255,
6170,-0.225,-0.245,
6171,-0.215,-0.235,
6172,-0.205,-0.23,
6173,-0.205,-0.25,
6174,-0.215,-0.265,
6175,-0.215,-0.275,
6176,-0.205,-0.275,
6177,-0.19,-0.29,
6178,-0.17,-0.295,
6179,-0.165,-0.315,
6180,-0.165,-0.315,
6181,-0.16,-0.305,
6182,-0.155,-0.29,
6183,-0.135,-0.275,
6184,-0.13,-0.28,
6185,-0.125,-0.29,
6186,-0.14,-0.285,
6187,-0.135,-0.27,
6188,-0.125,-0.23,
6189,-0.11,-0.22,
6190,-0.105,-0.215,
6191,-0.11,-0.215,
6192,-0.115,-0.225,
6193,-0.125,-0.215,
6194,-0.13,-0.195,
6195,-0.13,-0.18,
6196,-0.14,-0.18,
6197,-0.145,-0.195,
6198,-0.165,-0.19,
6199,-0.175,-0.185,
6200,-0.18,-0.185,
6201,-0.185,-0.175,
6202,-0.185,-0.185,
6203,-0.2,-0.195,
6204,-0.22,-0.2,
6205,-0.23,-0.18,
6206,-0.23,-0.17,
6207,-0.225,-0.17,
6208,-0.23,-0.175,
6209,-0.245,-0.19,
6210,-0.255,-0.2,
6211,-0.265,-0.2,
6212,-0.26,-0.195,
6213,-0.26,-0.185,
6214,-0.26,-0.2,
6215,-0.265,-0.205,
6216,-0.275,-0.215,
6217,-0.27,-0.205,
6218,-0.265,-0.19,
6219,-0.26,-0.185,
6220,-0.25,-0.195,
6221,-0.265,-0.21,
6222,-0.265,-0.23,
6223,-0.275,-0.225,
6224,-0.26,-0.2,
6225,-0.255,-0.175,
6226,-0.255,-0.185,
6227,-0.255,-0.195,
6228,-0.255,-0.215,
6229,-0.275,-0.215,
6230,-0.255,-0.21,
6231,-0.25,-0.2,
6232,-0.25,-0.2,
6233,-0.26,-0.23,
6234,-0.265,-0.24,
6235,-0.265,-0.24,
6236,-0.255,-0.24,
6237,-0.235,-0.235,
6238,-0.235,-0.24,
6239,-0.225,-0.245,
6240,-0.245,-0.25,
6241,-0.25,-0.22,
6242,-0.235,-0.205,
6243,-0.225,-0.205,
6244,-0.225,-0.205,
6245,-0.235,-0.21,
6246,-0.245,-0.205,
6247,-0.255,-0.19,
6248,-0.245,-0.175,
6249,-0.25,-0.17,
6250,-0.245,-0.175,
6251,-0.245,-0.16,
6252,-0.25,-0.18,
6253,-0.255,-0.165,
6254,-0.245,-0.16,
6255,-0.245,-0.17,
6256,-0.245,-0.175,
6257,-0.255,-0.195,
6258,-0.255,-0.21,
6259,-0.27,-0.2,
6260,-0.255,-0.2,
6261,-0.24,-0.19,
6262,-0.255,-0.19,
6263,-0.265,-0.205,
6264,-0.265,-0.215,
6265,-0.285,-0.21,
6266,-0.265,-0.195,
6267,-0.27,-0.19,
6268,-0.27,-0.185,
6269,-0.29,-0.21,
6270,-0.295,-0.215,
6271,-0.3,-0.195,
6272,-0.29,-0.185,
6273,-0.285,-0.175,
6274,-0.28,-0.17,
6275,-0.285,-0.19,
6276,-0.295,-0.21,
6277,-0.305,-0.205,
6278,-0.3,-0.2,
6279,-0.29,-0.195,
6280,-0.29,-0.195,
6281,-0.3,-0.21,
6282,-0.305,-0.225,
6283,-0.31,-0.205,
6284,-0.29,-0.19,
6285,-0.285,-0.185,
6286,-0.285,-0.185,
6287,-0.3,-0.175,
6288,-0.3,-0.19,
6289,-0.3,-0.18,
6290,-0.295,-0.19,
6291,-0.28,-0.185,
6292,-0.28,-0.19,
6293,-0.29,-0.2,
6294,-0.285,-0.21,
6295,-0.3,-0.21,
6296,-0.295,-0.205,
6297,-0.28,-0.195,
6298,-0.28,-0.2,
6299,-0.29,-0.21,
6300,-0.29,-0.225,
6301,-0.28,-0.23,
6302,-0.27,-0.22,
6303,-0.255,-0.215,
6304,-0.25,-0.215,
6305,-0.25,-0.225,
6306,-0.23,-0.22,
6307,-0.235,-0.205,
6308,-0.225,-0.195,
6309,-0.215,-0.195,
6310,-0.22,-0.195,
6311,-0.24,-0.195,
6312,-0.245,-0.21,
6313,-0.245,-0.19,
6314,-0.245,-0.18,
6315,-0.24,-0.16,
6316,-0.24,-0.15,
6317,-0.245,-0.17,
6318,-0.25,-0.185,
6319,-0.25,-0.185,
6320,-0.235,-0.165,
6321,-0.24,-0.155,
6322,-0.24,-0.16,
6323,-0.24,-0.17,
6324,-0.25,-0.19,
6325,-0.24,-0.17,
6326,-0.225,-0.165,
6327,-0.22,-0.16,
6328,-0.23,-0.165,
6329,-0.245,-0.185,
6330,-0.25,-0.185,
6331,-0.25,-0.195,
6332,-0.26,-0.17,
6333,-0.24,-0.18,
6334,-0.235,-0.21,
6335,-0.26,-0.215,
6336,-0.265,-0.24,
6337,-0.28,-0.225,
6338,-0.285,-0.22,
6339,-0.265,-0.22,
6340,-0.265,-0.22,
6341,-0.275,-0.245,
6342,-0.29,-0.245,
6343,-0.295,-0.24,
6344,-0.29,-0.225,
6345,-0.28,-0.22,
6346,-0.28,-0.215,
6347,-0.285,-0.22,
6348,-0.28,-0.24,
6349,-0.28,-0.24,
6350,-0.265,-0.235,
6351,-0.26,-0.22,
6352,-0.25,-0.23,
6353,-0.25,-0.24,
6354,-0.26,-0.245,
6355,-0.27,-0.245,
6356,-0.26,-0.24,
6357,-0.26,-0.23,
6358,-0.255,-0.24,
6359,-0.27,-0.245,
6360,-0.28,-0.26,
6361,-0.285,-0.255,
6362,-0.265,-0.245,
6363,-0.255,-0.24,
6364,-0.245,-0.245,
6365,-0.25,-0.26,
6366,-0.235,-0.275,
6367,-0.24,-0.255,
6368,-0.23,-0.24,
6369,-0.215,-0.22,
6370,-0.205,-0.22,
6371,-0.21,-0.23,
6372,-0.205,-0.235,
6373,-0.205,-0.2,
6374,-0.18,-0.165,
6375,-0.175,-0.13,
6376,-0.17,-0.125,
6377,-0.16,-0.15,
6378,-0.15,-0.195,
6379,-0.125,-0.265,
6380,-0.095,-0.39,
6381,-0.07,-0.495,
6382,-0.01,-0.59,
6383,0.065,-0.685,
6384,0.165,-0.8,
6385,0.27,-0.9,
6386,0.405,-0.965,
6387,0.54,-0.99,
6388,0.665,-0.935,
6389,0.77,-0.855,
6390,0.86,-0.795,
6391,0.94,-0.68,N
6392,0.97,-0.54,
6393,0.91,-0.385,
6394,0.745,-0.26,
6395,0.515,-0.175,
6396,0.275,-0.125,
6397,0.06,-0.12,
6398,-0.1,-0.15,
6399,-0.2,-0.2,
6400,-0.27,-0.26,
6401,-0.325,-0.295,
6402,-0.35,-0.31,
6403,-0.33,-0.3,
6404,-0.285,-0.285,
6405,-0.25,-0.26,
6406,-0.255,-0.27,
6407,-0.27,-0.275,
6408,-0.28,-0.275,
6409,-0.295,-0.26,
6410,-0.29,-0.25,
6411,-0.295,-0.25,
6412,-0.285,-0.25,
6413,-0.295,-0.26,
6414,-0.315,-0.275,
6415,-0.325,-0.265,
6416,-0.315,-0.255,
6417,-0.315,-0.25,
6418,-0.305,-0.24,
6419,-0.31,-0.25,
6420,-0.32,-0.26,
6421,-0.335,-0.255,
6422,-0.33,-0.265,
6423,-0.31,-0.24,
6424,-0.31,-0.25,
6425,-0.305,-0.26,
6426,-0.31,-0.27,
6427,-0.31,-0.27,
6428,-0.295,-0.255,
