,MLII,V1,symbol
0,0.0,0.125,
1,0.0,0.125,
2,0.0,0.125,
3,0.0,0.125,
4,0.0,0.125,
5,0.0,0.125,
6,0.0,0.125,
7,0.0,0.125,
8,0.0,0.125,
9,0.005,0.13,
10,0.015,0.145,
11,0.025,0.17,
12,0.035,0.16,
13,0.035,0.14,
14,0.015,0.135,
15,0.015,0.13,
16,0.025,0.14,
17,0.05,0.145,
18,0.06,0.14,
19,0.055,0.12,
20,0.04,0.115,
21,0.045,0.125,
22,0.065,0.13,
23,0.085,0.125,
24,0.095,0.11,
25,0.085,0.105,
26,0.085,0.08,
27,0.085,0.09,
28,0.105,0.105,
29,0.125,0.1,
30,0.135,0.085,
31,0.135,0.07,
32,0.135,0.06,
33,0.145,0.06,
34,0.15,0.06,
35,0.175,0.07,
36,0.195,0.045,
37,0.2,0.02,
38,0.18,0.015,
39,0.19,0.015,
40,0.215,0.03,
41,0.255,0.035,
42,0.27,0.025,
43,0.275,0.005,
44,0.265,0.005,
45,0.27,-0.005,
46,0.28,0.0,
47,0.305,0.015,
48,0.325,0.0,
49,0.32,0.0,
50,0.325,-0.015,
51,0.32,0.005,
52,0.335,0.005,
53,0.35,0.03,
54,0.355,0.015,
55,0.335,0.01,
56,0.325,0.015,
57,0.315,0.03,
58,0.315,0.04,
59,0.31,0.08,
60,0.29,0.075,
61,0.265,0.07,
62,0.235,0.075,
63,0.215,0.09,
64,0.195,0.12,
65,0.18,0.13,
66,0.17,0.11,
67,0.14,0.09,
68,0.105,0.095,
69,0.085,0.105,
70,0.09,0.11,
71,0.085,0.12,
72,0.075,0.125,
73,0.045,0.105,
74,0.01,0.11,
75,-0.01,0.12,
76,-0.01,0.135,
77,0.005,0.145,
78,0.005,0.13,
79,-0.015,0.115,
80,-0.03,0.115,
81,-0.045,0.125,
82,-0.045,0.125,
83,-0.025,0.14,
84,-0.03,0.135,
85,-0.03,0.11,
86,-0.05,0.105,
87,-0.07,0.115,
88,-0.05,0.125,
89,-0.04,0.145,
90,-0.035,0.135,
91,-0.05,0.12,
92,-0.07,0.12,
93,-0.07,0.12,
94,-0.06,0.14,
95,-0.045,0.145,
96,-0.045,0.13,
97,-0.06,0.115,
98,-0.06,0.115,
99,-0.075,0.115,
100,-0.05,0.13,
101,-0.04,0.14,
102,-0.03,0.145,
103,-0.035,0.13,
104,-0.06,0.13,
105,-0.085,0.145,
106,-0.065,0.15,
107,-0.045,0.17,
108,-0.045,0.165,
109,-0.05,0.155,
110,-0.065,0.14,
111,-0.075,0.14,
112,-0.06,0.15,
113,-0.055,0.155,
114,-0.05,0.15,
115,-0.06,0.145,
116,-0.08,0.14,
117,-0.085,0.155,
118,-0.075,0.175,
119,-0.045,0.175,
120,-0.04,0.165,
121,-0.055,0.155,
122,-0.06,0.14,
123,-0.075,0.14,
124,-0.065,0.165,
125,-0.06,0.185,
126,-0.055,0.165,
127,-0.055,0.155,
128,-0.075,0.135,
129,-0.07,0.145,
130,-0.05,0.155,
131,-0.045,0.165,
132,-0.045,0.155,
133,-0.055,0.14,
134,-0.07,0.135,
135,-0.08,0.135,
136,-0.075,0.16,
137,-0.055,0.185,
138,-0.045,0.16,
139,-0.06,0.16,
140,-0.07,0.155,
141,-0.085,0.15,
142,-0.065,0.16,
143,-0.05,0.175,
144,-0.05,0.165,
145,-0.05,0.155,
146,-0.065,0.135,
147,-0.075,0.16,
148,-0.06,0.17,
149,-0.05,0.18,
150,-0.04,0.185,
151,-0.05,0.165,
152,-0.07,0.155,
153,-0.065,0.15,
154,-0.06,0.165,
155,-0.065,0.17,
156,-0.055,0.165,
157,-0.055,0.15,
158,-0.08,0.15,
159,-0.08,0.155,
160,-0.065,0.175,
161,-0.055,0.175,
162,-0.04,0.185,
163,-0.045,0.155,
164,-0.065,0.145,
165,-0.08,0.15,
166,-0.07,0.16,
167,-0.06,0.165,
168,-0.06,0.175,
169,-0.07,0.165,
170,-0.065,0.15,
171,-0.085,0.155,
172,-0.05,0.175,
173,-0.045,0.175,
174,-0.05,0.165,
175,-0.055,0.145,
176,-0.07,0.145,
177,-0.07,0.14,
178,-0.05,0.155,
179,-0.05,0.17,
180,-0.035,0.18,
181,-0.045,0.16,
182,-0.065,0.15,
183,-0.065,0.16,+
184,-0.06,0.17,
185,-0.055,0.175,
186,-0.055,0.175,
187,-0.055,0.155,
188,-0.065,0.155,
189,-0.055,0.155,
190,-0.05,0.185,
191,-0.04,0.19,
192,-0.035,0.185,
193,-0.04,0.165,
194,-0.06,0.155,
195,-0.065,0.16,
196,-0.065,0.17,
197,-0.045,0.18,
198,-0.055,0.175,
199,-0.055,0.155,
200,-0.06,0.14,
201,-0.065,0.16,
202,-0.07,0.18,
203,-0.05,0.195,
204,-0.04,0.175,
205,-0.05,0.165,
206,-0.06,0.145,
207,-0.065,0.155,
208,-0.05,0.15,
209,-0.025,0.175,
210,-0.03,0.17,
211,-0.045,0.15,
212,-0.055,0.16,
213,-0.065,0.16,
214,-0.05,0.17,
215,-0.045,0.17,
216,-0.04,0.155,
217,-0.045,0.14,
218,-0.05,0.15,
219,-0.065,0.145,
220,-0.055,0.17,
221,-0.03,0.19,
222,-0.04,0.18,
223,-0.035,0.165,
224,-0.04,0.135,
225,-0.055,0.16,
226,-0.05,0.165,
227,-0.02,0.17,
228,-0.03,0.165,
229,-0.045,0.145,
230,-0.05,0.15,
231,-0.05,0.145,
232,-0.04,0.16,
233,-0.025,0.18,
234,-0.03,0.165,
235,-0.035,0.145,
236,-0.055,0.14,
237,-0.035,0.14,
238,-0.03,0.17,
239,-0.02,0.175,
240,-0.025,0.18,
241,-0.025,0.155,
242,-0.035,0.155,
243,-0.04,0.16,
244,-0.025,0.18,
245,-0.015,0.17,
246,-0.02,0.17,
247,-0.03,0.165,
248,-0.035,0.16,
249,-0.05,0.165,
250,-0.025,0.18,
251,-0.015,0.185,
252,-0.02,0.19,
253,-0.02,0.15,
254,-0.04,0.135,
255,-0.05,0.135,
256,-0.025,0.15,
257,-0.02,0.145,
258,-0.005,0.145,
259,-0.02,0.135,
260,-0.025,0.12,
261,-0.025,0.135,
262,-0.02,0.15,
263,-0.005,0.17,
264,-0.01,0.155,
265,-0.01,0.145,
266,-0.04,0.14,
267,-0.025,0.14,
268,-0.015,0.155,
269,-0.005,0.165,
270,0.005,0.155,
271,-0.01,0.135,
272,-0.03,0.13,
273,-0.03,0.13,
274,-0.02,0.14,
275,-0.005,0.155,
276,-0.01,0.135,
277,-0.025,0.125,
278,-0.035,0.105,
279,-0.035,0.12,
280,-0.01,0.125,
281,-0.005,0.15,
282,0.0,0.14,
283,-0.005,0.135,
284,-0.025,0.13,
285,-0.02,0.15,
286,-0.02,0.17,
287,-0.01,0.195,
288,0.0,0.185,
289,-0.02,0.17,
290,-0.035,0.165,
291,-0.045,0.185,
292,-0.04,0.2,
293,-0.015,0.215,
294,0.0,0.18,
295,0.015,0.17,
296,0.025,0.135,
297,0.015,0.145,
298,0.045,0.16,
299,0.045,0.175,
300,0.06,0.165,
301,0.05,0.155,
302,0.025,0.14,
303,0.04,0.155,
304,0.045,0.16,
305,0.05,0.16,
306,0.04,0.145,
307,0.02,0.135,
308,0.005,0.14,
309,0.0,0.145,
310,-0.01,0.15,
311,0.01,0.16,
312,-0.005,0.145,
313,-0.015,0.135,
314,-0.035,0.11,
315,-0.035,0.11,
316,-0.04,0.13,
317,-0.025,0.145,
318,-0.005,0.145,
319,-0.005,0.125,
320,-0.005,0.12,
321,-0.025,0.125,
322,-0.02,0.13,
323,-0.005,0.145,
324,-0.01,0.135,
325,-0.005,0.125,
326,-0.025,0.115,
327,-0.015,0.12,
328,-0.02,0.14,
329,0.015,0.145,
330,0.015,0.165,
331,0.025,0.175,
332,0.025,0.185,
333,0.03,0.205,
334,0.07,0.2,
335,0.1,0.155,
336,0.14,0.045,
337,0.15,-0.09,
338,0.175,-0.225,
339,0.235,-0.355,
340,0.325,-0.48,
341,0.465,-0.63,
342,0.59,-0.81,
343,0.74,-0.94,
344,0.875,-1.02,
345,1.005,-0.97,
346,1.14,-0.885,
347,1.29,-0.78,
348,1.415,-0.67,N
349,1.465,-0.5,
350,1.44,-0.33,
351,1.3,-0.17,
352,1.105,-0.03,
353,0.88,0.075,
354,0.67,0.11,
355,0.47,0.095,
356,0.285,0.055,
357,0.135,0.025,
358,0.065,0.04,
359,0.05,0.085,
360,0.055,0.105,
361,0.065,0.1,
362,0.06,0.1,
363,0.045,0.13,
364,0.03,0.135,
365,0.03,0.14,
366,0.02,0.14,
367,0.0,0.13,
368,-0.03,0.115,
369,-0.045,0.135,
370,-0.045,0.15,
371,-0.035,0.165,
372,-0.035,0.16,
373,-0.055,0.15,
374,-0.065,0.15,
375,-0.07,0.15,
376,-0.065,0.155,
377,-0.055,0.16,
378,-0.065,0.165,
379,-0.055,0.15,
380,-0.08,0.145,
381,-0.075,0.16,
382,-0.085,0.18,
383,-0.06,0.18,
384,-0.055,0.165,
385,-0.065,0.145,
386,-0.085,0.12,
387,-0.11,0.12,
388,-0.08,0.135,
389,-0.07,0.145,
390,-0.055,0.125,
391,-0.08,0.115,
392,-0.09,0.115,
393,-0.095,0.11,
394,-0.08,0.125,
395,-0.065,0.155,
396,-0.05,0.135,
397,-0.065,0.115,
398,-0.065,0.1,
399,-0.07,0.11,
400,-0.065,0.12,
401,-0.045,0.125,
402,-0.04,0.115,
403,-0.05,0.105,
404,-0.055,0.1,
405,-0.07,0.09,
406,-0.055,0.1,
407,-0.025,0.12,
408,-0.015,0.125,
409,-0.015,0.1,
410,-0.03,0.085,
411,-0.025,0.115,
412,-0.03,0.1,
413,0.01,0.12,
414,0.02,0.105,
415,0.025,0.09,
416,0.0,0.09,
417,0.005,0.08,
418,0.03,0.075,
419,0.055,0.08,
420,0.055,0.065,
421,0.065,0.035,
422,0.06,0.02,
423,0.07,0.025,
424,0.09,0.03,
425,0.12,0.03,
426,0.13,0.02,
427,0.13,-0.005,
428,0.13,-0.005,
429,0.15,0.0,
430,0.16,0.0,
431,0.175,0.01,
432,0.2,-0.015,
433,0.205,-0.01,
434,0.2,-0.03,
435,0.215,-0.035,
436,0.23,-0.04,
437,0.26,-0.025,
438,0.29,-0.03,
439,0.275,-0.055,
440,0.285,-0.055,
441,0.285,-0.05,
442,0.31,-0.035,
443,0.335,-0.015,
444,0.32,-0.01,
445,0.335,-0.01,
446,0.31,-0.02,
447,0.31,0.0,
448,0.315,0.02,
449,0.305,0.045,
450,0.295,0.035,
451,0.265,0.035,
452,0.235,0.035,
453,0.2,0.05,
454,0.21,0.07,
455,0.205,0.075,
456,0.185,0.08,
457,0.155,0.075,
458,0.12,0.065,
459,0.09,0.08,
460,0.1,0.095,
461,0.08,0.11,
462,0.075,0.11,
463,0.055,0.09,
464,0.02,0.09,
465,0.015,0.105,
466,0.01,0.115,
467,0.015,0.135,
468,0.01,0.12,
469,-0.01,0.125,
470,-0.03,0.13,
471,-0.04,0.14,
472,-0.05,0.155,
473,-0.035,0.155,
474,-0.035,0.13,
475,-0.045,0.1,
476,-0.075,0.075,
477,-0.06,0.07,
478,-0.055,0.07,
479,-0.045,0.08,
480,-0.04,0.085,
481,-0.045,0.085,
482,-0.055,0.075,
483,-0.06,0.08,
484,-0.07,0.1,
485,-0.04,0.115,
486,-0.045,0.095,
487,-0.05,0.095,
488,-0.065,0.08,
489,-0.075,0.085,
490,-0.065,0.11,
491,-0.04,0.125,
492,-0.035,0.12,
493,-0.05,0.11,
494,-0.055,0.11,
495,-0.06,0.115,
496,-0.045,0.125,
497,-0.05,0.13,
498,-0.025,0.125,
499,-0.04,0.105,
500,-0.055,0.11,
501,-0.06,0.12,
502,-0.05,0.14,
503,-0.025,0.145,
504,-0.025,0.145,
505,-0.025,0.14,
506,-0.04,0.13,
507,-0.05,0.135,
508,-0.04,0.15,
509,-0.03,0.155,
510,-0.02,0.13,
511,-0.035,0.12,
512,-0.045,0.115,
513,-0.045,0.115,
514,-0.045,0.125,
515,-0.025,0.14,
516,-0.02,0.15,
517,-0.025,0.13,
518,-0.04,0.13,
519,-0.04,0.12,
520,-0.035,0.13,
521,-0.025,0.135,
522,-0.02,0.13,
523,-0.03,0.12,
524,-0.04,0.105,
525,-0.035,0.115,
526,-0.035,0.13,
527,-0.03,0.14,
528,-0.025,0.13,
529,-0.04,0.115,
530,-0.06,0.115,
531,-0.07,0.12,
532,-0.045,0.13,
533,-0.04,0.14,
534,-0.03,0.135,
535,-0.04,0.125,
536,-0.055,0.11,
537,-0.055,0.11,
538,-0.05,0.125,
539,-0.03,0.135,
540,-0.035,0.125,
541,-0.04,0.11,
542,-0.055,0.12,
543,-0.055,0.12,
544,-0.055,0.145,
545,-0.03,0.155,
546,-0.04,0.15,
547,-0.05,0.135,
548,-0.055,0.125,
549,-0.055,0.12,
550,-0.05,0.125,
551,-0.04,0.14,
552,-0.055,0.13,
553,-0.05,0.12,
554,-0.06,0.115,
555,-0.06,0.11,
556,-0.065,0.12,
557,-0.05,0.14,
558,-0.05,0.125,
559,-0.05,0.11,
560,-0.07,0.095,
561,-0.075,0.115,
562,-0.06,0.12,
563,-0.045,0.12,
564,-0.05,0.105,
565,-0.07,0.1,
566,-0.075,0.09,
567,-0.065,0.11,
568,-0.05,0.12,
569,-0.045,0.145,
570,-0.03,0.135,
571,-0.05,0.12,
572,-0.06,0.12,
573,-0.06,0.11,
574,-0.06,0.125,
575,-0.035,0.135,
576,-0.035,0.14,
577,-0.045,0.12,
578,-0.07,0.105,
579,-0.065,0.115,
580,-0.05,0.13,
581,-0.04,0.155,
582,-0.04,0.14,
583,-0.04,0.12,
584,-0.06,0.115,
585,-0.055,0.125,
586,-0.06,0.14,
587,-0.04,0.145,
588,-0.04,0.15,
589,-0.04,0.13,
590,-0.055,0.12,
591,-0.065,0.13,
592,-0.055,0.135,
593,-0.035,0.145,
594,-0.035,0.135,
595,-0.045,0.125,
596,-0.055,0.135,
597,-0.05,0.13,
598,-0.045,0.135,
599,-0.035,0.14,
600,-0.03,0.125,
601,-0.04,0.095,
602,-0.05,0.105,
603,-0.05,0.105,
604,-0.045,0.115,
605,-0.025,0.13,
606,-0.03,0.125,
607,-0.03,0.12,
608,-0.045,0.115,
609,-0.055,0.115,
610,-0.055,0.125,
611,-0.02,0.14,
612,-0.025,0.12,
613,-0.03,0.12,
614,-0.05,0.1,
615,-0.065,0.105,
616,-0.035,0.125,
617,-0.02,0.13,
618,-0.03,0.13,
619,-0.03,0.105,
620,-0.035,0.1,
621,-0.04,0.115,
622,-0.035,0.13,
623,-0.03,0.14,
624,-0.03,0.14,
625,-0.055,0.125,
626,-0.055,0.115,
627,-0.065,0.12,
628,-0.04,0.135,
629,-0.015,0.155,
630,-0.03,0.155,
631,-0.03,0.13,
632,-0.035,0.13,
633,-0.045,0.115,
634,-0.035,0.135,
635,-0.025,0.145,
636,-0.01,0.125,
637,-0.025,0.095,
638,-0.04,0.095,
639,-0.035,0.1,
640,-0.025,0.11,
641,-0.015,0.125,
642,-0.025,0.13,
643,-0.02,0.105,
644,-0.03,0.1,
645,-0.035,0.095,
646,-0.025,0.11,
647,-0.015,0.115,
648,0.005,0.125,
649,-0.015,0.12,
650,-0.03,0.11,
651,-0.03,0.12,
652,-0.02,0.13,
653,-0.01,0.14,
654,0.0,0.135,
655,-0.01,0.115,
656,-0.02,0.115,
657,-0.025,0.11,
658,-0.01,0.13,
659,0.0,0.13,
660,0.005,0.13,
661,-0.005,0.12,
662,-0.025,0.1,
663,-0.03,0.11,
664,-0.01,0.125,
665,0.005,0.15,
666,-0.015,0.135,
667,-0.01,0.115,
668,-0.025,0.1,
669,-0.02,0.105,
670,-0.015,0.11,
671,-0.015,0.11,
672,0.005,0.11,
673,0.005,0.095,
674,-0.005,0.1,
675,-0.005,0.1,
676,0.015,0.115,
677,0.005,0.13,
678,0.03,0.135,
679,0.0,0.135,
680,0.0,0.135,
681,-0.005,0.145,
682,-0.005,0.16,
683,0.01,0.17,
684,0.015,0.17,
685,0.0,0.15,
686,0.01,0.145,
687,0.025,0.155,
688,0.04,0.155,
689,0.075,0.15,
690,0.07,0.135,
691,0.07,0.12,
692,0.07,0.105,
693,0.07,0.125,
694,0.065,0.135,
695,0.085,0.145,
696,0.08,0.13,
697,0.075,0.12,
698,0.045,0.105,
699,0.02,0.095,
700,0.03,0.11,
701,0.035,0.13,
702,0.035,0.12,
703,0.035,0.115,
704,0.0,0.105,
705,-0.005,0.12,
706,0.0,0.11,
707,0.02,0.12,
708,0.03,0.115,
709,0.02,0.1,
710,0.01,0.095,
711,0.005,0.09,
712,0.015,0.125,
713,0.03,0.13,
714,0.04,0.125,
715,0.035,0.115,
716,-0.005,0.11,
717,0.015,0.105,
718,0.04,0.115,
719,0.05,0.135,
720,0.055,0.125,
721,0.05,0.115,
722,0.045,0.1,
723,0.04,0.125,
724,0.05,0.15,
725,0.09,0.19,
726,0.105,0.195,
727,0.11,0.165,
728,0.135,0.11,
729,0.155,0.035,
730,0.21,-0.065,
731,0.245,-0.16,
732,0.305,-0.285,
733,0.405,-0.44,
734,0.5,-0.61,
735,0.63,-0.765,
736,0.77,-0.885,
737,0.925,-0.92,
738,1.05,-0.915,
739,1.16,-0.865,
740,1.27,-0.8,
741,1.375,-0.665,
742,1.465,-0.48,N
743,1.465,-0.29,
744,1.37,-0.15,
745,1.2,-0.045,
746,0.985,0.02,
747,0.78,0.05,
748,0.615,0.045,
749,0.475,0.04,
750,0.345,0.035,
751,0.24,0.04,
752,0.165,0.06,
753,0.155,0.09,
754,0.15,0.115,
755,0.16,0.125,
756,0.15,0.125,
757,0.11,0.125,
758,0.07,0.14,
759,0.055,0.135,
760,0.04,0.16,
761,0.045,0.17,
762,0.04,0.16,
763,0.02,0.145,
764,0.0,0.14,
765,0.01,0.14,
766,-0.01,0.16,
767,0.0,0.17,
768,0.005,0.16,
769,-0.01,0.14,
770,-0.005,0.135,
771,-0.02,0.155,
772,-0.01,0.155,
773,0.005,0.17,
774,-0.01,0.17,
775,-0.01,0.16,
776,-0.015,0.15,
777,-0.02,0.16,
778,-0.03,0.17,
779,0.01,0.175,
780,0.015,0.165,
781,0.0,0.15,
782,-0.005,0.145,
783,-0.02,0.155,
784,0.0,0.165,
785,0.01,0.18,
786,0.02,0.18,
787,0.005,0.165,
788,-0.015,0.155,
789,-0.01,0.145,
790,0.01,0.16,
791,0.03,0.175,
792,0.025,0.17,
793,0.03,0.165,
794,0.01,0.135,
795,0.015,0.145,
796,0.015,0.16,
797,0.03,0.165,
798,0.05,0.155,
799,0.045,0.15,
800,0.035,0.135,
801,0.045,0.145,
802,0.055,0.15,
803,0.08,0.16,
804,0.07,0.16,
805,0.06,0.135,
806,0.06,0.125,
807,0.055,0.135,
808,0.095,0.14,
809,0.11,0.145,
810,0.125,0.13,
811,0.1,0.11,
812,0.105,0.09,
813,0.115,0.095,
814,0.13,0.11,
815,0.145,0.115,
816,0.17,0.11,
817,0.16,0.09,
818,0.175,0.08,
819,0.175,0.08,
820,0.195,0.08,
821,0.22,0.085,
822,0.23,0.075,
823,0.23,0.045,
824,0.23,0.04,
825,0.23,0.045,
826,0.255,0.05,
827,0.275,0.055,
828,0.29,0.035,
829,0.295,0.03,
830,0.285,0.005,
831,0.28,0.015,
832,0.31,0.025,
833,0.33,0.025,
834,0.34,0.025,
835,0.335,0.005,
836,0.35,0.0,
837,0.355,-0.005,
838,0.355,0.015,
839,0.375,0.045,
840,0.375,0.04,
841,0.36,0.03,
842,0.34,0.02,
843,0.33,0.05,
844,0.335,0.06,
845,0.335,0.085,
846,0.325,0.09,
847,0.31,0.085,
848,0.27,0.08,
849,0.24,0.095,
850,0.235,0.115,
851,0.23,0.12,
852,0.195,0.115,
853,0.18,0.11,
854,0.145,0.11,
855,0.11,0.11,
856,0.115,0.13,
857,0.11,0.145,
858,0.11,0.13,
859,0.075,0.11,
860,0.05,0.095,
861,0.02,0.12,
862,0.02,0.14,
863,0.025,0.155,
864,0.01,0.16,
865,0.0,0.14,
866,-0.02,0.115,
867,-0.025,0.125,
868,-0.005,0.14,
869,-0.005,0.145,
870,-0.005,0.14,
871,-0.01,0.135,
872,-0.035,0.11,
873,-0.025,0.13,
874,-0.015,0.14,
875,-0.015,0.145,
876,-0.005,0.14,
877,-0.01,0.12,
878,-0.035,0.11,
879,-0.035,0.13,
880,-0.02,0.145,
881,-0.015,0.14,
882,-0.01,0.13,
883,-0.02,0.14,
884,-0.04,0.115,
885,-0.045,0.13,
886,-0.045,0.15,
887,-0.025,0.155,
888,-0.015,0.165,
889,-0.03,0.155,
890,-0.045,0.135,
891,-0.055,0.13,
892,-0.035,0.14,
893,-0.025,0.16,
894,-0.03,0.155,
895,-0.03,0.145,
896,-0.045,0.14,
897,-0.06,0.15,
898,-0.045,0.175,
899,-0.02,0.18,
900,-0.04,0.17,
901,-0.03,0.15,
902,-0.04,0.145,
903,-0.05,0.155,
904,-0.035,0.16,
905,-0.015,0.18,
906,-0.015,0.165,
907,-0.03,0.155,
908,-0.04,0.15,
909,-0.045,0.145,
910,-0.04,0.16,
911,-0.03,0.16,
912,-0.015,0.155,
913,-0.04,0.145,
914,-0.035,0.135,
915,-0.04,0.145,
916,-0.035,0.155,
917,-0.03,0.165,
918,-0.03,0.15,
919,-0.04,0.14,
920,-0.05,0.135,
921,-0.055,0.14,
922,-0.045,0.145,
923,-0.025,0.15,
924,-0.03,0.145,
925,-0.035,0.13,
926,-0.05,0.13,
927,-0.055,0.13,
928,-0.065,0.155,
929,-0.04,0.16,
930,-0.035,0.15,
931,-0.05,0.12,
932,-0.06,0.125,
933,-0.06,0.135,
934,-0.055,0.145,
935,-0.04,0.145,
936,-0.035,0.145,
937,-0.06,0.13,
938,-0.05,0.125,
939,-0.055,0.135,
940,-0.065,0.155,
941,-0.03,0.16,
942,-0.04,0.155,
943,-0.05,0.14,
944,-0.065,0.14,
945,-0.055,0.13,
946,-0.04,0.145,
947,-0.02,0.15,
948,-0.03,0.145,
949,-0.04,0.135,
950,-0.05,0.13,
951,-0.06,0.14,
952,-0.075,0.145,
953,-0.05,0.155,
954,-0.04,0.145,
955,-0.035,0.135,
956,-0.05,0.14,
957,-0.065,0.14,
958,-0.04,0.15,
959,-0.045,0.15,
960,-0.02,0.15,
961,-0.03,0.13,
962,-0.05,0.125,
963,-0.05,0.125,
964,-0.05,0.135,
965,-0.025,0.135,
966,-0.025,0.145,
967,-0.025,0.125,
968,-0.045,0.12,
969,-0.045,0.125,
970,-0.04,0.135,
971,-0.025,0.155,
972,-0.025,0.13,
973,-0.035,0.13,
974,-0.05,0.12,
975,-0.055,0.115,
976,-0.04,0.135,
977,-0.025,0.14,
978,-0.015,0.14,
979,-0.015,0.135,
980,-0.04,0.125,
981,-0.045,0.125,
982,-0.04,0.145,
983,-0.025,0.155,
984,-0.015,0.145,
985,-0.03,0.13,
986,-0.06,0.12,
987,-0.065,0.135,
988,-0.04,0.14,
989,-0.02,0.155,
990,-0.015,0.155,
991,-0.02,0.14,
992,-0.035,0.125,
993,-0.04,0.125,
994,-0.03,0.14,
995,-0.025,0.14,
996,-0.015,0.14,
997,-0.02,0.13,
998,-0.035,0.12,
999,-0.035,0.14,
1000,-0.005,0.14,
1001,-0.005,0.135,
1002,-0.025,0.12,
1003,-0.04,0.105,
1004,-0.04,0.135,
1005,-0.025,0.135,
1006,-0.015,0.14,
1007,-0.015,0.13,
1008,-0.015,0.12,
1009,-0.035,0.105,
1010,-0.03,0.11,
1011,-0.03,0.115,
1012,-0.015,0.13,
1013,-0.01,0.13,
1014,-0.005,0.115,
1015,-0.025,0.1,
1016,-0.03,0.115,
1017,-0.03,0.135,
1018,-0.02,0.14,
1019,-0.02,0.13,
1020,-0.03,0.115,
1021,-0.035,0.11,
1022,-0.035,0.115,
1023,-0.04,0.125,
1024,-0.025,0.135,
1025,-0.02,0.12,
1026,-0.02,0.12,
1027,-0.035,0.115,
1028,-0.025,0.125,
1029,-0.025,0.135,
1030,-0.005,0.15,
1031,-0.01,0.145,
1032,-0.015,0.13,
1033,-0.025,0.115,
1034,-0.025,0.11,
1035,-0.015,0.125,
1036,-0.005,0.13,
1037,-0.005,0.115,
1038,-0.005,0.09,
1039,-0.015,0.09,
1040,-0.03,0.095,
1041,-0.01,0.1,
1042,-0.01,0.13,
1043,-0.01,0.11,
1044,-0.02,0.1,
1045,-0.02,0.095,
1046,-0.02,0.095,
1047,-0.01,0.11,
1048,0.015,0.12,
1049,0.02,0.135,
1050,0.0,0.1,
1051,-0.01,0.105,
1052,-0.015,0.11,
1053,0.0,0.12,
1054,0.01,0.125,
1055,0.005,0.125,
1056,0.005,0.11,
1057,-0.015,0.1,
1058,-0.015,0.11,
1059,0.0,0.11,
1060,0.01,0.145,
1061,0.015,0.135,
1062,0.0,0.11,
1063,-0.005,0.105,
1064,-0.005,0.12,
1065,0.0,0.13,
1066,0.005,0.12,
1067,0.01,0.13,
1068,-0.01,0.11,
1069,-0.015,0.095,
1070,-0.02,0.11,
1071,0.005,0.12,
1072,0.005,0.135,
1073,0.015,0.125,
1074,0.025,0.105,
1075,0.01,0.095,
1076,-0.02,0.1,
1077,0.015,0.12,
1078,0.03,0.115,
1079,0.03,0.115,
1080,0.005,0.1,
1081,0.005,0.085,
1082,0.005,0.09,
1083,0.005,0.1,
1084,0.025,0.125,
1085,0.02,0.13,
1086,0.02,0.125,
1087,0.0,0.13,
1088,0.01,0.145,
1089,-0.005,0.165,
1090,0.02,0.165,
1091,0.015,0.16,
1092,-0.01,0.16,
1093,-0.01,0.155,
1094,-0.01,0.155,
1095,0.025,0.165,
1096,0.035,0.185,
1097,0.065,0.155,
1098,0.06,0.13,
1099,0.055,0.12,
1100,0.06,0.125,
1101,0.065,0.13,
1102,0.08,0.135,
1103,0.08,0.13,
1104,0.065,0.125,
1105,0.06,0.11,
1106,0.05,0.11,
1107,0.05,0.13,
1108,0.05,0.125,
1109,0.04,0.12,
1110,0.03,0.115,
1111,0.025,0.105,
1112,0.005,0.11,
1113,0.015,0.115,
1114,0.025,0.13,
1115,0.015,0.115,
1116,0.005,0.11,
1117,0.0,0.1,
1118,-0.02,0.105,
1119,0.005,0.125,
1120,0.02,0.13,
1121,0.015,0.12,
1122,0.015,0.105,
1123,0.005,0.09,
1124,-0.005,0.095,
1125,0.01,0.11,
1126,0.01,0.115,
1127,0.03,0.115,
1128,0.03,0.095,
1129,0.01,0.095,
1130,0.005,0.095,
1131,0.01,0.11,
1132,0.025,0.125,
1133,0.055,0.11,
1134,0.025,0.135,
1135,0.02,0.13,
1136,0.035,0.165,
1137,0.05,0.17,
1138,0.065,0.19,
1139,0.1,0.16,
1140,0.115,0.1,
1141,0.14,-0.005,
1142,0.145,-0.085,
1143,0.195,-0.18,
1144,0.265,-0.275,
1145,0.36,-0.405,
1146,0.455,-0.56,
1147,0.54,-0.715,
1148,0.66,-0.865,
1149,0.795,-0.955,
1150,0.935,-0.975,
1151,1.05,-0.94,
1152,1.145,-0.89,
1153,1.235,-0.83,
1154,1.345,-0.71,
1155,1.41,-0.53,N
1156,1.41,-0.355,
1157,1.335,-0.215,
1158,1.18,-0.085,
1159,0.99,-0.02,
1160,0.79,0.045,
1161,0.625,0.05,
1162,0.475,0.05,
1163,0.335,0.01,
1164,0.22,0.005,
1165,0.14,0.02,
1166,0.115,0.06,
1167,0.12,0.085,
1168,0.12,0.11,
1169,0.12,0.11,
1170,0.1,0.11,
1171,0.075,0.105,
1172,0.065,0.125,
1173,0.045,0.135,
1174,0.045,0.16,
1175,0.03,0.14,
1176,0.015,0.13,
1177,-0.01,0.13,
1178,-0.005,0.15,
1179,-0.005,0.155,
1180,0.005,0.175,
1181,-0.005,0.165,
1182,-0.015,0.155,
1183,-0.025,0.15,
1184,-0.035,0.135,
1185,-0.035,0.145,
1186,-0.015,0.165,
1187,-0.01,0.16,
1188,-0.02,0.15,
1189,-0.03,0.135,
1190,-0.035,0.14,
1191,-0.025,0.17,
1192,-0.01,0.17,
1193,-0.015,0.165,
1194,-0.015,0.155,
1195,-0.03,0.135,
1196,-0.045,0.135,
1197,-0.045,0.15,
1198,-0.015,0.155,
1199,-0.02,0.155,
1200,-0.03,0.135,
1201,-0.035,0.13,
1202,-0.03,0.14,
1203,-0.04,0.145,
1204,-0.005,0.165,
1205,-0.01,0.15,
1206,-0.035,0.14,
1207,-0.015,0.12,
1208,-0.03,0.14,
1209,-0.025,0.14,
1210,-0.01,0.145,
1211,0.0,0.13,
1212,-0.01,0.13,
1213,-0.01,0.105,
1214,0.005,0.115,
1215,0.005,0.12,
1216,0.005,0.125,
1217,0.025,0.12,
1218,0.015,0.115,
1219,0.005,0.095,
1220,0.0,0.115,
1221,0.01,0.115,
1222,0.02,0.13,
1223,0.045,0.125,
1224,0.04,0.095,
1225,0.03,0.08,
1226,0.035,0.085,
1227,0.04,0.095,
1228,0.06,0.085,
1229,0.075,0.075,
1230,0.075,0.055,
1231,0.06,0.04,
1232,0.055,0.045,
1233,0.075,0.05,
1234,0.115,0.05,
1235,0.125,0.03,
1236,0.11,0.02,
1237,0.105,0.0,
1238,0.13,0.005,
1239,0.145,0.02,
1240,0.17,0.02,
1241,0.185,0.0,
1242,0.185,0.0,
1243,0.19,-0.01,
1244,0.185,-0.02,
1245,0.215,-0.015,
1246,0.23,-0.01,
1247,0.245,-0.03,
1248,0.25,-0.04,
1249,0.235,-0.045,
1250,0.24,-0.045,
1251,0.265,-0.045,
1252,0.28,-0.035,
1253,0.305,-0.045,
1254,0.285,-0.07,
1255,0.3,-0.075,
1256,0.31,-0.07,
1257,0.315,-0.05,
1258,0.34,-0.03,
1259,0.355,-0.035,
1260,0.345,-0.03,
1261,0.33,-0.03,
1262,0.315,-0.01,
1263,0.325,0.01,
1264,0.335,0.025,
1265,0.315,0.02,
1266,0.3,0.025,
1267,0.28,0.025,
1268,0.25,0.035,
1269,0.26,0.055,
1270,0.255,0.085,
1271,0.24,0.075,
1272,0.21,0.06,
1273,0.18,0.05,
1274,0.165,0.055,
1275,0.145,0.08,
1276,0.135,0.1,
1277,0.135,0.105,
1278,0.095,0.09,
1279,0.07,0.085,
1280,0.055,0.085,
1281,0.04,0.105,
1282,0.05,0.115,
1283,0.045,0.085,
1284,0.03,0.085,
1285,0.005,0.08,
1286,0.0,0.09,
1287,0.01,0.1,
1288,0.005,0.11,
1289,0.015,0.105,
1290,-0.005,0.085,
1291,-0.035,0.085,
1292,-0.045,0.085,
1293,-0.04,0.09,
1294,-0.025,0.11,
1295,-0.01,0.095,
1296,-0.035,0.09,
1297,-0.07,0.08,
1298,-0.065,0.09,
1299,-0.04,0.1,
1300,-0.04,0.115,
1301,-0.04,0.1,
1302,-0.04,0.09,
1303,-0.06,0.08,
1304,-0.055,0.08,
1305,-0.065,0.105,
1306,-0.03,0.12,
1307,-0.02,0.115,
1308,-0.045,0.09,
1309,-0.05,0.07,
1310,-0.045,0.09,
1311,-0.05,0.1,
1312,-0.02,0.11,
1313,-0.02,0.115,
1314,-0.03,0.11,
1315,-0.05,0.115,
1316,-0.05,0.105,
1317,-0.045,0.12,
1318,-0.05,0.135,
1319,-0.04,0.11,
1320,-0.03,0.095,
1321,-0.045,0.105,
1322,-0.055,0.1,
1323,-0.055,0.115,
1324,-0.025,0.12,
1325,-0.03,0.115,
1326,-0.04,0.105,
1327,-0.055,0.09,
1328,-0.05,0.095,
1329,-0.04,0.115,
1330,-0.04,0.125,
1331,-0.03,0.115,
1332,-0.045,0.095,
1333,-0.04,0.085,
1334,-0.05,0.1,
1335,-0.035,0.115,
1336,-0.025,0.11,
1337,-0.025,0.11,
1338,-0.03,0.095,
1339,-0.06,0.085,
1340,-0.07,0.095,
1341,-0.05,0.105,
1342,-0.02,0.12,
1343,-0.02,0.115,
1344,-0.025,0.105,
1345,-0.04,0.085,
1346,-0.045,0.095,
1347,-0.03,0.105,
1348,-0.005,0.11,
1349,0.0,0.115,
1350,-0.01,0.095,
1351,-0.02,0.08,
1352,-0.04,0.085,
1353,-0.02,0.105,
1354,-0.005,0.105,
1355,-0.005,0.11,
1356,-0.015,0.105,
1357,-0.04,0.085,
1358,-0.045,0.085,
1359,-0.035,0.095,
1360,-0.025,0.11,
1361,0.0,0.115,
1362,-0.015,0.105,
1363,-0.035,0.09,
1364,-0.05,0.105,
1365,-0.03,0.115,
1366,-0.015,0.12,
1367,-0.01,0.11,
1368,-0.015,0.095,
1369,-0.035,0.075,
1370,-0.035,0.09,
1371,-0.035,0.1,
1372,-0.015,0.105,
1373,-0.02,0.095,
1374,-0.015,0.08,
1375,-0.03,0.08,
1376,-0.05,0.085,
1377,-0.035,0.11,
1378,-0.01,0.12,
1379,0.0,0.11,
1380,-0.02,0.095,
1381,-0.03,0.075,
1382,-0.045,0.09,
1383,-0.02,0.085,
1384,-0.01,0.1,
1385,-0.005,0.11,
1386,-0.015,0.1,
1387,-0.035,0.075,
1388,-0.035,0.085,
1389,-0.03,0.1,
1390,-0.005,0.1,
1391,-0.015,0.095,
1392,-0.01,0.07,
1393,-0.04,0.06,
1394,-0.04,0.075,
1395,-0.045,0.09,
1396,-0.05,0.1,
1397,-0.035,0.095,
1398,-0.035,0.06,
1399,-0.065,0.055,
1400,-0.055,0.065,
1401,-0.055,0.075,
1402,-0.03,0.105,
1403,-0.02,0.09,
1404,-0.04,0.075,
1405,-0.045,0.075,
1406,-0.04,0.07,
1407,-0.04,0.085,
1408,-0.035,0.1,
1409,-0.025,0.085,
1410,-0.035,0.075,
1411,-0.04,0.065,
1412,-0.05,0.075,
1413,-0.04,0.09,
1414,-0.025,0.095,
1415,-0.03,0.075,
1416,-0.025,0.07,
1417,-0.04,0.045,
1418,-0.065,0.07,
1419,-0.05,0.08,
1420,-0.02,0.085,
1421,-0.015,0.075,
1422,-0.03,0.065,
1423,-0.035,0.05,
1424,-0.05,0.07,
1425,-0.035,0.08,
1426,-0.02,0.09,
1427,-0.025,0.075,
1428,-0.035,0.065,
1429,-0.06,0.045,
1430,-0.065,0.05,
1431,-0.045,0.06,
1432,-0.025,0.085,
1433,-0.03,0.085,
1434,-0.035,0.065,
1435,-0.06,0.055,
1436,-0.055,0.065,
1437,-0.04,0.075,
1438,-0.03,0.085,
1439,-0.035,0.07,
1440,-0.035,0.06,
1441,-0.035,0.05,
1442,-0.045,0.06,
1443,-0.05,0.065,
1444,-0.03,0.09,
1445,-0.015,0.085,
1446,-0.04,0.075,
1447,-0.06,0.065,
1448,-0.055,0.07,
1449,-0.04,0.08,
1450,-0.035,0.095,
1451,-0.035,0.09,
1452,-0.045,0.075,
1453,-0.05,0.07,
1454,-0.05,0.075,
1455,-0.04,0.085,
1456,-0.02,0.085,
1457,-0.03,0.075,
1458,-0.04,0.06,
1459,-0.045,0.045,
1460,-0.05,0.07,
1461,-0.03,0.08,
1462,-0.02,0.09,
1463,-0.02,0.075,
1464,-0.035,0.075,
1465,-0.04,0.055,
1466,-0.045,0.055,
1467,-0.035,0.075,
1468,-0.025,0.08,
1469,-0.02,0.08,
1470,-0.025,0.065,
1471,-0.035,0.06,
1472,-0.05,0.07,
1473,-0.04,0.07,
1474,-0.045,0.1,
1475,-0.02,0.085,
1476,-0.025,0.065,
1477,-0.03,0.05,
1478,-0.045,0.07,
1479,-0.04,0.075,
1480,-0.015,0.085,
1481,-0.01,0.085,
1482,-0.025,0.065,
1483,-0.035,0.06,
1484,-0.04,0.06,
1485,-0.035,0.07,
1486,-0.01,0.095,
1487,-0.005,0.085,
1488,-0.02,0.075,
1489,-0.04,0.07,
1490,-0.035,0.06,
1491,-0.015,0.09,
1492,-0.02,0.095,
1493,-0.025,0.09,
1494,-0.01,0.08,
1495,-0.045,0.06,
1496,-0.035,0.055,
1497,-0.03,0.085,
1498,-0.01,0.09,
1499,-0.02,0.08,
1500,-0.015,0.07,
1501,-0.025,0.055,
1502,-0.02,0.06,
1503,-0.02,0.075,
1504,-0.005,0.08,
1505,0.005,0.07,
1506,-0.02,0.055,
1507,-0.03,0.03,
1508,-0.01,0.055,
1509,0.005,0.075,
1510,0.01,0.095,
1511,0.01,0.12,
1512,0.01,0.095,
1513,-0.015,0.1,
1514,-0.02,0.1,
1515,-0.02,0.125,
1516,-0.005,0.135,
1517,-0.01,0.125,
1518,0.01,0.12,
1519,0.005,0.105,
1520,0.03,0.115,
1521,0.04,0.13,
1522,0.055,0.135,
1523,0.075,0.115,
1524,0.075,0.105,
1525,0.06,0.095,
1526,0.05,0.105,
1527,0.055,0.12,
1528,0.075,0.135,
1529,0.07,0.115,
1530,0.06,0.1,
1531,0.05,0.085,
1532,0.03,0.095,
1533,0.035,0.1,
1534,0.04,0.11,
1535,0.035,0.1,
1536,0.02,0.085,
1537,0.0,0.08,
1538,-0.005,0.085,
1539,0.005,0.105,
1540,0.02,0.105,
1541,0.015,0.12,
1542,0.01,0.11,
1543,0.01,0.1,
1544,0.005,0.105,
1545,0.01,0.11,
1546,0.025,0.12,
1547,0.02,0.095,
1548,0.02,0.08,
1549,-0.005,0.07,
1550,-0.01,0.085,
1551,0.015,0.08,
1552,0.03,0.09,
1553,0.035,0.09,
1554,0.02,0.085,
1555,0.02,0.075,
1556,0.03,0.095,
1557,0.05,0.12,
1558,0.06,0.155,
1559,0.075,0.165,
1560,0.075,0.16,
1561,0.075,0.135,
1562,0.095,0.09,
1563,0.135,0.04,
1564,0.17,-0.05,
1565,0.2,-0.175,
1566,0.22,-0.295,
1567,0.295,-0.445,
1568,0.405,-0.59,
1569,0.54,-0.73,
1570,0.69,-0.85,
1571,0.835,-0.935,
1572,0.97,-0.94,
1573,1.065,-0.9,
1574,1.205,-0.8,
1575,1.36,-0.685,
1576,1.48,-0.53,N
1577,1.515,-0.37,
1578,1.455,-0.225,
1579,1.315,-0.12,
1580,1.11,-0.01,
1581,0.875,0.065,
1582,0.7,0.09,
1583,0.515,0.06,
1584,0.335,0.02,
1585,0.175,-0.005,
1586,0.09,0.02,
1587,0.08,0.06,
1588,0.105,0.1,
1589,0.115,0.095,
1590,0.105,0.11,
1591,0.075,0.085,
1592,0.045,0.095,
1593,0.035,0.12,
1594,0.035,0.125,
1595,0.025,0.105,
1596,0.01,0.115,
1597,-0.02,0.105,
1598,-0.02,0.105,
1599,-0.02,0.125,
1600,-0.015,0.14,
1601,-0.005,0.145,
1602,-0.02,0.12,
1603,-0.035,0.12,
1604,-0.045,0.13,
1605,-0.04,0.135,
1606,-0.025,0.15,
1607,-0.03,0.14,
1608,-0.03,0.135,
1609,-0.045,0.105,
1610,-0.05,0.115,
1611,-0.05,0.13,
1612,-0.05,0.135,
1613,-0.045,0.15,
1614,-0.035,0.125,
1615,-0.06,0.12,
1616,-0.065,0.12,
1617,-0.06,0.13,
1618,-0.04,0.145,
1619,-0.03,0.135,
1620,-0.045,0.12,
1621,-0.045,0.105,
1622,-0.04,0.125,
1623,-0.03,0.125,
1624,-0.015,0.14,
1625,-0.015,0.14,
1626,-0.025,0.125,
1627,-0.025,0.11,
1628,-0.03,0.12,
1629,-0.025,0.125,
1630,-0.005,0.135,
1631,0.01,0.13,
1632,0.0,0.12,
1633,-0.015,0.12,
1634,-0.005,0.105,
1635,-0.005,0.115,
1636,0.02,0.12,
1637,0.01,0.135,
1638,0.015,0.105,
1639,0.0,0.095,
1640,0.01,0.09,
1641,0.025,0.115,
1642,0.055,0.11,
1643,0.06,0.095,
1644,0.055,0.085,
1645,0.055,0.075,
1646,0.055,0.085,
1647,0.06,0.09,
1648,0.09,0.11,
1649,0.09,0.095,
1650,0.095,0.07,
1651,0.1,0.05,
1652,0.085,0.06,
1653,0.12,0.065,
1654,0.145,0.075,
1655,0.15,0.06,
1656,0.145,0.04,
1657,0.15,0.03,
1658,0.15,0.03,
1659,0.18,0.04,
1660,0.2,0.025,
1661,0.21,0.025,
1662,0.22,0.01,
1663,0.22,0.01,
1664,0.22,0.0,
1665,0.24,0.005,
1666,0.255,0.015,
1667,0.285,0.0,
1668,0.275,-0.01,
1669,0.265,-0.015,
1670,0.275,-0.01,
1671,0.29,0.01,
1672,0.29,0.01,
1673,0.31,-0.005,
1674,0.32,-0.01,
1675,0.3,-0.005,
1676,0.29,-0.005,
1677,0.315,0.015,
1678,0.305,0.025,
1679,0.32,0.025,
1680,0.29,0.025,
1681,0.28,0.02,
1682,0.25,0.03,
1683,0.245,0.05,
1684,0.25,0.08,
1685,0.225,0.075,
1686,0.21,0.07,
1687,0.175,0.07,
1688,0.155,0.07,
1689,0.145,0.095,
1690,0.13,0.105,
1691,0.12,0.105,
1692,0.095,0.085,
1693,0.065,0.095,
1694,0.045,0.105,
1695,0.045,0.12,
1696,0.04,0.14,
1697,0.03,0.135,
1698,0.015,0.105,
1699,-0.01,0.11,
1700,-0.03,0.115,
1701,-0.02,0.125,
1702,-0.015,0.125,
1703,-0.02,0.125,
1704,-0.055,0.12,
1705,-0.06,0.095,
1706,-0.065,0.11,
1707,-0.08,0.125,
1708,-0.06,0.135,
1709,-0.045,0.13,
1710,-0.065,0.12,
1711,-0.08,0.11,
1712,-0.085,0.115,
1713,-0.08,0.115,
1714,-0.08,0.13,
1715,-0.085,0.135,
1716,-0.085,0.11,
1717,-0.08,0.11,
1718,-0.095,0.12,
1719,-0.08,0.125,
1720,-0.075,0.145,
1721,-0.075,0.13,
1722,-0.075,0.125,
1723,-0.09,0.12,
1724,-0.1,0.135,
1725,-0.085,0.14,
1726,-0.075,0.15,
1727,-0.07,0.14,
1728,-0.08,0.13,
1729,-0.095,0.13,
1730,-0.09,0.135,
1731,-0.085,0.145,
1732,-0.065,0.155,
1733,-0.065,0.145,
1734,-0.07,0.15,
1735,-0.085,0.13,
1736,-0.09,0.135,
1737,-0.08,0.145,
1738,-0.055,0.16,
1739,-0.075,0.15,
1740,-0.065,0.145,
1741,-0.09,0.12,
1742,-0.085,0.13,
1743,-0.075,0.145,
1744,-0.055,0.155,
1745,-0.055,0.145,
1746,-0.065,0.135,
1747,-0.085,0.12,
1748,-0.075,0.13,
1749,-0.065,0.14,
1750,-0.06,0.16,
1751,-0.055,0.145,
1752,-0.065,0.14,
1753,-0.075,0.115,
1754,-0.085,0.13,
1755,-0.065,0.145,
1756,-0.05,0.155,
1757,-0.065,0.15,
1758,-0.06,0.14,
1759,-0.07,0.125,
1760,-0.075,0.135,
1761,-0.075,0.145,
1762,-0.055,0.155,
1763,-0.05,0.155,
1764,-0.065,0.14,
1765,-0.075,0.13,
1766,-0.075,0.14,
1767,-0.07,0.145,
1768,-0.055,0.15,
1769,-0.06,0.145,
1770,-0.06,0.135,
1771,-0.075,0.135,
1772,-0.085,0.135,
1773,-0.08,0.15,
1774,-0.065,0.15,
1775,-0.05,0.145,
1776,-0.065,0.14,
1777,-0.08,0.13,
1778,-0.09,0.135,
1779,-0.075,0.14,
1780,-0.07,0.15,
1781,-0.04,0.15,
1782,-0.07,0.14,
1783,-0.075,0.13,
1784,-0.085,0.135,
1785,-0.075,0.15,
1786,-0.06,0.155,
1787,-0.045,0.15,
1788,-0.06,0.14,
1789,-0.09,0.125,
1790,-0.09,0.13,
1791,-0.075,0.14,
1792,-0.055,0.155,
1793,-0.055,0.145,
1794,-0.06,0.145,
1795,-0.07,0.145,
1796,-0.065,0.145,
1797,-0.06,0.155,
1798,-0.07,0.16,
1799,-0.06,0.15,
1800,-0.055,0.145,
1801,-0.07,0.12,
1802,-0.085,0.135,
1803,-0.075,0.15,
1804,-0.065,0.16,
1805,-0.055,0.16,
1806,-0.075,0.13,
1807,-0.085,0.12,
1808,-0.085,0.14,
1809,-0.08,0.145,
1810,-0.065,0.155,
1811,-0.065,0.135,
1812,-0.075,0.135,
1813,-0.085,0.115,
1814,-0.08,0.13,
1815,-0.07,0.125,
1816,-0.07,0.145,
1817,-0.08,0.155,
1818,-0.07,0.115,
1819,-0.08,0.125,
1820,-0.095,0.12,
1821,-0.07,0.14,
1822,-0.055,0.145,
1823,-0.055,0.13,
1824,-0.065,0.115,
1825,-0.085,0.12,
1826,-0.095,0.12,
1827,-0.075,0.135,
1828,-0.075,0.145,
1829,-0.065,0.135,
1830,-0.075,0.115,
1831,-0.08,0.115,
1832,-0.085,0.12,
1833,-0.07,0.125,
1834,-0.06,0.14,
1835,-0.055,0.13,
1836,-0.07,0.11,
1837,-0.095,0.105,
1838,-0.08,0.12,
1839,-0.075,0.135,
1840,-0.055,0.14,
1841,-0.055,0.14,
1842,-0.075,0.12,
1843,-0.075,0.105,
1844,-0.075,0.115,
1845,-0.075,0.12,
1846,-0.065,0.14,
1847,-0.065,0.12,
1848,-0.07,0.115,
1849,-0.095,0.105,
1850,-0.09,0.12,
1851,-0.075,0.135,
1852,-0.065,0.15,
1853,-0.075,0.13,
1854,-0.075,0.13,
1855,-0.085,0.115,
1856,-0.09,0.13,
1857,-0.075,0.13,
1858,-0.06,0.15,
1859,-0.055,0.14,
1860,-0.055,0.12,
1861,-0.075,0.13,
1862,-0.07,0.115,
1863,-0.065,0.13,
1864,-0.055,0.135,
1865,-0.065,0.13,
1866,-0.045,0.125,
1867,-0.065,0.12,
1868,-0.075,0.11,
1869,-0.065,0.115,
1870,-0.045,0.125,
1871,-0.04,0.115,
1872,-0.045,0.115,
1873,-0.07,0.105,
1874,-0.065,0.12,
1875,-0.06,0.13,
1876,-0.035,0.155,
1877,-0.035,0.13,
1878,-0.045,0.115,
1879,-0.065,0.105,
1880,-0.08,0.11,
1881,-0.065,0.125,
1882,-0.055,0.14,
1883,-0.06,0.11,
1884,-0.075,0.11,
1885,-0.065,0.115,
1886,-0.08,0.115,
1887,-0.06,0.115,
1888,-0.05,0.125,
1889,-0.035,0.115,
1890,-0.05,0.1,
1891,-0.065,0.095,
1892,-0.065,0.1,
1893,-0.07,0.125,
1894,-0.06,0.125,
1895,-0.045,0.125,
1896,-0.055,0.115,
1897,-0.06,0.105,
1898,-0.05,0.11,
1899,-0.06,0.12,
1900,-0.04,0.13,
1901,-0.04,0.12,
1902,-0.05,0.11,
1903,-0.08,0.11,
1904,-0.075,0.11,
1905,-0.085,0.13,
1906,-0.04,0.135,
1907,-0.04,0.125,
1908,-0.05,0.11,
1909,-0.06,0.095,
1910,-0.05,0.11,
1911,-0.04,0.115,
1912,-0.03,0.125,
1913,-0.015,0.1,
1914,-0.02,0.1,
1915,-0.035,0.085,
1916,-0.045,0.11,
1917,-0.03,0.135,
1918,-0.035,0.155,
1919,-0.035,0.145,
1920,-0.045,0.145,
1921,-0.055,0.145,
1922,-0.065,0.15,
1923,-0.045,0.155,
1924,-0.025,0.17,
1925,-0.01,0.16,
1926,0.01,0.13,
1927,0.0,0.125,
1928,0.01,0.115,
1929,0.015,0.11,
1930,0.025,0.135,
1931,0.03,0.125,
1932,0.01,0.115,
1933,0.005,0.1,
1934,0.01,0.12,
1935,0.015,0.135,
1936,0.02,0.14,
1937,0.015,0.12,
1938,-0.005,0.105,
1939,-0.02,0.095,
1940,-0.035,0.105,
1941,-0.025,0.12,
1942,-0.035,0.12,
1943,-0.03,0.12,
1944,-0.05,0.11,
1945,-0.055,0.095,
1946,-0.06,0.1,
1947,-0.05,0.11,
1948,-0.05,0.125,
1949,-0.035,0.125,
1950,-0.04,0.105,
1951,-0.06,0.1,
1952,-0.06,0.085,
1953,-0.05,0.105,
1954,-0.03,0.115,
1955,-0.035,0.115,
1956,-0.055,0.105,
1957,-0.055,0.085,
1958,-0.065,0.11,
1959,-0.055,0.105,
1960,-0.035,0.135,
1961,-0.02,0.135,
1962,-0.01,0.14,
1963,-0.01,0.14,
1964,-0.025,0.155,
1965,0.02,0.145,
1966,0.055,0.13,
1967,0.095,0.025,
1968,0.1,-0.085,
1969,0.13,-0.195,
1970,0.19,-0.315,
1971,0.29,-0.43,
1972,0.405,-0.57,
1973,0.51,-0.725,
1974,0.635,-0.86,
1975,0.75,-0.945,
1976,0.875,-0.965,
1977,1.0,-0.9,
1978,1.145,-0.815,
1979,1.27,-0.695,
1980,1.35,-0.545,N
1981,1.335,-0.365,
1982,1.24,-0.195,
1983,1.095,-0.06,
1984,0.915,0.03,
1985,0.7,0.05,
1986,0.51,0.045,
1987,0.335,0.0,
1988,0.195,0.025,
1989,0.105,0.045,
1990,0.085,0.095,
1991,0.08,0.11,
1992,0.055,0.11,
1993,0.045,0.11,
1994,0.03,0.11,
1995,0.005,0.125,
1996,-0.015,0.15,
1997,-0.03,0.145,
1998,-0.055,0.14,
1999,-0.07,0.13,
2000,-0.08,0.14,
2001,-0.075,0.155,
2002,-0.07,0.165,
2003,-0.065,0.175,
2004,-0.075,0.15,
2005,-0.11,0.145,
2006,-0.1,0.145,
2007,-0.095,0.16,
2008,-0.085,0.17,
2009,-0.085,0.165,
2010,-0.095,0.15,
2011,-0.11,0.14,
2012,-0.11,0.155,
2013,-0.105,0.15,
2014,-0.1,0.16,
2015,-0.09,0.16,
2016,-0.1,0.15,
2017,-0.115,0.15,
2018,-0.115,0.145,
2019,-0.115,0.155,
2020,-0.1,0.175,
2021,-0.1,0.155,
2022,-0.09,0.145,
2023,-0.11,0.125,
2024,-0.11,0.14,
2025,-0.1,0.165,
2026,-0.1,0.17,
2027,-0.09,0.15,
2028,-0.08,0.14,
2029,-0.095,0.125,
2030,-0.09,0.13,
2031,-0.085,0.145,
2032,-0.06,0.165,
2033,-0.055,0.15,
2034,-0.065,0.145,
2035,-0.07,0.135,
2036,-0.065,0.135,
2037,-0.06,0.14,
2038,-0.035,0.15,
2039,-0.03,0.14,
2040,-0.025,0.13,
2041,-0.04,0.115,
2042,-0.045,0.125,
2043,-0.025,0.12,
2044,-0.005,0.135,
2045,0.01,0.115,
2046,0.005,0.1,
2047,-0.005,0.095,
2048,-0.005,0.09,
2049,0.015,0.1,
2050,0.035,0.105,
2051,0.05,0.085,
2052,0.05,0.08,
2053,0.05,0.065,
2054,0.06,0.065,
2055,0.06,0.085,
2056,0.1,0.095,
2057,0.12,0.07,
2058,0.125,0.05,
2059,0.12,0.04,
2060,0.135,0.045,
2061,0.155,0.06,
2062,0.19,0.055,
2063,0.19,0.04,
2064,0.195,0.025,
2065,0.195,0.015,
2066,0.195,0.01,
2067,0.22,0.01,
2068,0.245,0.025,
2069,0.25,0.015,
2070,0.25,0.005,
2071,0.245,0.0,
2072,0.26,0.005,
2073,0.275,0.01,
2074,0.295,0.02,
2075,0.3,0.035,
2076,0.29,0.025,
2077,0.27,0.015,
2078,0.26,0.035,
2079,0.265,0.06,
2080,0.26,0.075,
2081,0.25,0.07,
2082,0.22,0.075,
2083,0.175,0.06,
2084,0.16,0.085,
2085,0.15,0.1,
2086,0.145,0.115,
2087,0.12,0.11,
2088,0.09,0.105,
2089,0.055,0.095,
2090,0.025,0.1,
2091,0.01,0.105,
2092,0.01,0.115,
2093,-0.005,0.115,
2094,-0.01,0.115,
2095,-0.035,0.105,
2096,-0.055,0.1,
2097,-0.045,0.115,
2098,-0.05,0.13,
2099,-0.05,0.12,
2100,-0.07,0.125,
2101,-0.1,0.095,
2102,-0.1,0.105,
2103,-0.1,0.125,
2104,-0.08,0.125,
2105,-0.085,0.115,
2106,-0.095,0.105,
2107,-0.11,0.085,
2108,-0.12,0.095,
2109,-0.115,0.115,
2110,-0.11,0.12,
2111,-0.115,0.115,
2112,-0.11,0.105,
2113,-0.12,0.095,
2114,-0.14,0.11,
2115,-0.125,0.115,
2116,-0.105,0.13,
2117,-0.095,0.115,
2118,-0.105,0.11,
2119,-0.12,0.105,
2120,-0.135,0.11,
2121,-0.115,0.115,
2122,-0.095,0.13,
2123,-0.095,0.12,
2124,-0.105,0.125,
2125,-0.11,0.1,
2126,-0.12,0.125,
2127,-0.1,0.14,
2128,-0.095,0.135,
2129,-0.085,0.14,
2130,-0.105,0.13,
2131,-0.11,0.125,
2132,-0.12,0.13,
2133,-0.1,0.145,
2134,-0.09,0.15,
2135,-0.09,0.14,
2136,-0.095,0.13,
2137,-0.115,0.12,
2138,-0.115,0.13,
2139,-0.1,0.15,
2140,-0.1,0.16,
2141,-0.095,0.15,
2142,-0.105,0.13,
2143,-0.115,0.12,
2144,-0.12,0.13,
2145,-0.12,0.14,
2146,-0.105,0.15,
2147,-0.1,0.15,
2148,-0.105,0.12,
2149,-0.105,0.115,
2150,-0.125,0.135,
2151,-0.11,0.145,
2152,-0.095,0.145,
2153,-0.095,0.145,
2154,-0.11,0.12,
2155,-0.125,0.11,
2156,-0.105,0.115,
2157,-0.105,0.135,
2158,-0.09,0.145,
2159,-0.09,0.13,
2160,-0.095,0.12,
2161,-0.115,0.11,
2162,-0.12,0.12,
2163,-0.115,0.14,
2164,-0.1,0.13,
2165,-0.105,0.135,
2166,-0.095,0.115,
2167,-0.11,0.11,
2168,-0.125,0.105,
2169,-0.11,0.125,
2170,-0.095,0.135,
2171,-0.1,0.125,
2172,-0.105,0.11,
2173,-0.11,0.115,
2174,-0.12,0.105,
2175,-0.11,0.13,
2176,-0.115,0.135,
2177,-0.11,0.12,
2178,-0.11,0.11,
2179,-0.13,0.1,
2180,-0.13,0.1,
2181,-0.12,0.11,
2182,-0.105,0.12,
2183,-0.115,0.12,
2184,-0.11,0.12,
2185,-0.125,0.1,
2186,-0.135,0.105,
2187,-0.14,0.115,
2188,-0.12,0.115,
2189,-0.12,0.11,
2190,-0.13,0.105,
2191,-0.14,0.075,
2192,-0.15,0.08,
2193,-0.13,0.105,
2194,-0.125,0.11,
2195,-0.115,0.105,
2196,-0.13,0.105,
2197,-0.14,0.09,
2198,-0.13,0.085,
2199,-0.125,0.105,
2200,-0.11,0.115,
2201,-0.125,0.12,
2202,-0.12,0.105,
2203,-0.125,0.09,
2204,-0.14,0.085,
2205,-0.125,0.1,
2206,-0.115,0.11,
2207,-0.12,0.1,
2208,-0.12,0.085,
2209,-0.135,0.075,
2210,-0.125,0.09,
2211,-0.12,0.105,
2212,-0.105,0.12,
2213,-0.105,0.105,
2214,-0.125,0.085,
2215,-0.135,0.07,
2216,-0.125,0.085,
2217,-0.135,0.09,
2218,-0.115,0.105,
2219,-0.11,0.095,
2220,-0.135,0.09,
2221,-0.14,0.07,
2222,-0.15,0.07,
2223,-0.13,0.09,
2224,-0.12,0.09,
2225,-0.11,0.1,
2226,-0.125,0.085,
2227,-0.14,0.06,
2228,-0.14,0.07,
2229,-0.135,0.085,
2230,-0.12,0.085,
2231,-0.115,0.085,
2232,-0.12,0.075,
2233,-0.135,0.075,
2234,-0.155,0.08,
2235,-0.145,0.095,
2236,-0.105,0.095,
2237,-0.11,0.09,
2238,-0.13,0.085,
2239,-0.145,0.075,
2240,-0.14,0.075,
2241,-0.13,0.085,
2242,-0.12,0.09,
2243,-0.12,0.09,
2244,-0.125,0.08,
2245,-0.145,0.065,
2246,-0.14,0.09,
2247,-0.135,0.085,
2248,-0.115,0.09,
2249,-0.115,0.08,
2250,-0.12,0.07,
2251,-0.135,0.055,
2252,-0.125,0.075,
2253,-0.125,0.08,
2254,-0.115,0.085,
2255,-0.115,0.09,
2256,-0.12,0.065,
2257,-0.14,0.06,
2258,-0.14,0.07,
2259,-0.13,0.09,
2260,-0.13,0.09,
2261,-0.11,0.085,
2262,-0.125,0.07,
2263,-0.13,0.065,
2264,-0.14,0.065,
2265,-0.13,0.075,
2266,-0.11,0.08,
2267,-0.11,0.075,
2268,-0.12,0.055,
2269,-0.14,0.055,
2270,-0.14,0.06,
2271,-0.13,0.06,
2272,-0.11,0.08,
2273,-0.105,0.07,
2274,-0.11,0.06,
2275,-0.13,0.045,
2276,-0.16,0.05,
2277,-0.135,0.065,
2278,-0.125,0.08,
2279,-0.1,0.075,
2280,-0.115,0.04,
2281,-0.145,0.04,
2282,-0.13,0.06,
2283,-0.12,0.065,
2284,-0.1,0.075,
2285,-0.105,0.065,
2286,-0.1,0.05,
2287,-0.12,0.04,
2288,-0.125,0.05,
2289,-0.12,0.055,
2290,-0.1,0.065,
2291,-0.09,0.07,
2292,-0.1,0.055,
2293,-0.115,0.03,
2294,-0.13,0.045,
2295,-0.12,0.04,
2296,-0.095,0.065,
2297,-0.1,0.055,
2298,-0.115,0.035,
2299,-0.125,0.035,
2300,-0.11,0.04,
2301,-0.1,0.045,
2302,-0.085,0.065,
2303,-0.095,0.055,
2304,-0.09,0.06,
2305,-0.095,0.06,
2306,-0.1,0.07,
2307,-0.095,0.095,
2308,-0.095,0.1,
2309,-0.095,0.095,
2310,-0.095,0.1,
2311,-0.095,0.085,
2312,-0.085,0.085,
2313,-0.06,0.09,
2314,-0.045,0.11,
2315,-0.03,0.1,
2316,-0.02,0.075,
2317,-0.025,0.055,
2318,-0.025,0.07,
2319,-0.02,0.085,
2320,-0.01,0.09,
2321,-0.01,0.075,
2322,-0.01,0.075,
2323,-0.045,0.055,
2324,-0.05,0.065,
2325,-0.035,0.06,
2326,-0.035,0.07,
2327,-0.035,0.065,
2328,-0.05,0.055,
2329,-0.065,0.04,
2330,-0.09,0.045,
2331,-0.075,0.06,
2332,-0.045,0.065,
2333,-0.045,0.065,
2334,-0.055,0.045,
2335,-0.075,0.045,
2336,-0.065,0.045,
2337,-0.07,0.05,
2338,-0.06,0.055,
2339,-0.04,0.055,
2340,-0.055,0.04,
2341,-0.055,0.04,
2342,-0.06,0.025,
2343,-0.06,0.04,
2344,-0.035,0.055,
2345,-0.04,0.05,
2346,-0.045,0.035,
2347,-0.045,0.05,
2348,-0.045,0.065,
2349,-0.03,0.09,
2350,0.0,0.115,
2351,0.005,0.09,
2352,0.025,0.045,
2353,0.03,-0.04,
2354,0.07,-0.145,
2355,0.115,-0.25,
2356,0.19,-0.38,
2357,0.265,-0.52,
2358,0.395,-0.68,
2359,0.52,-0.835,
2360,0.665,-0.94,
2361,0.84,-0.96,
2362,0.99,-0.925,
2363,1.135,-0.845,
2364,1.265,-0.765,
2365,1.37,-0.645,N
2366,1.43,-0.485,
2367,1.4,-0.335,
2368,1.275,-0.2,
2369,1.06,-0.09,
2370,0.815,-0.025,
2371,0.6,-0.015,
2372,0.4,-0.01,
2373,0.23,-0.03,
2374,0.105,-0.03,
2375,0.03,-0.015,
2376,0.005,-0.01,
2377,-0.005,0.0,
2378,-0.01,0.02,
2379,0.0,0.05,
2380,-0.005,0.055,
2381,-0.015,0.06,
2382,-0.045,0.05,
2383,-0.075,0.055,
2384,-0.095,0.06,
2385,-0.1,0.075,
2386,-0.095,0.09,
2387,-0.095,0.09,
2388,-0.095,0.07,
2389,-0.125,0.06,
2390,-0.125,0.08,
2391,-0.125,0.08,
2392,-0.11,0.095,
2393,-0.105,0.105,
2394,-0.115,0.095,
2395,-0.135,0.07,
2396,-0.135,0.08,
2397,-0.125,0.1,
2398,-0.11,0.11,
2399,-0.115,0.08,
2400,-0.115,0.08,
2401,-0.135,0.065,
2402,-0.14,0.085,
2403,-0.13,0.095,
2404,-0.115,0.115,
2405,-0.125,0.105,
2406,-0.115,0.08,
2407,-0.135,0.08,
2408,-0.125,0.085,
2409,-0.12,0.095,
2410,-0.105,0.105,
2411,-0.105,0.095,
2412,-0.11,0.09,
2413,-0.105,0.075,
2414,-0.11,0.08,
2415,-0.095,0.095,
2416,-0.085,0.105,
2417,-0.085,0.1,
2418,-0.08,0.08,
2419,-0.08,0.06,
2420,-0.09,0.075,
2421,-0.075,0.08,
2422,-0.06,0.09,
2423,-0.05,0.08,
2424,-0.05,0.055,
2425,-0.06,0.05,
2426,-0.075,0.06,
2427,-0.045,0.06,
2428,-0.05,0.055,
2429,-0.035,0.06,
2430,-0.045,0.04,
2431,-0.045,0.03,
2432,-0.045,0.04,
2433,-0.02,0.045,
2434,0.0,0.06,
2435,0.005,0.04,
2436,0.01,0.02,
2437,0.005,0.01,
2438,0.005,0.005,
2439,0.03,0.01,
2440,0.055,0.025,
2441,0.075,0.01,
2442,0.07,0.0,
2443,0.075,-0.02,
2444,0.08,0.0,
2445,0.1,-0.005,
2446,0.13,0.005,
2447,0.14,-0.01,
2448,0.14,-0.015,
2449,0.14,-0.04,
2450,0.155,-0.03,
2451,0.175,-0.025,
2452,0.2,-0.025,
2453,0.21,-0.035,
2454,0.205,-0.045,
2455,0.195,-0.06,
2456,0.19,-0.045,
2457,0.21,-0.04,
2458,0.24,-0.025,
2459,0.255,-0.03,
2460,0.245,-0.03,
2461,0.245,-0.04,
2462,0.23,-0.02,
2463,0.24,-0.005,
2464,0.25,0.01,
2465,0.24,0.01,
2466,0.225,0.01,
2467,0.195,0.0,
2468,0.175,0.01,
2469,0.16,0.035,
2470,0.14,0.05,
2471,0.13,0.05,
2472,0.115,0.055,
2473,0.08,0.045,
2474,0.055,0.06,
2475,0.04,0.065,
2476,0.045,0.09,
2477,0.03,0.075,
2478,0.005,0.07,
2479,-0.02,0.055,
2480,-0.045,0.075,
2481,-0.045,0.075,
2482,-0.045,0.095,
2483,-0.06,0.09,
2484,-0.08,0.075,
2485,-0.085,0.075,
2486,-0.09,0.075,
2487,-0.08,0.09,
2488,-0.09,0.1,
2489,-0.09,0.105,
2490,-0.105,0.085,
2491,-0.105,0.075,
2492,-0.115,0.075,
2493,-0.115,0.09,
2494,-0.1,0.105,
2495,-0.095,0.09,
2496,-0.1,0.09,
2497,-0.12,0.08,
2498,-0.12,0.08,
2499,-0.12,0.095,
2500,-0.11,0.1,
2501,-0.1,0.105,
2502,-0.115,0.09,
2503,-0.13,0.075,
2504,-0.13,0.085,
2505,-0.125,0.105,
2506,-0.11,0.125,
2507,-0.12,0.12,
2508,-0.12,0.095,
2509,-0.12,0.1,
2510,-0.125,0.11,
2511,-0.115,0.115,
2512,-0.11,0.12,
2513,-0.095,0.12,
2514,-0.1,0.1,
2515,-0.115,0.095,
2516,-0.135,0.105,
2517,-0.125,0.11,
2518,-0.095,0.14,
2519,-0.1,0.125,
2520,-0.1,0.115,
2521,-0.12,0.105,
2522,-0.12,0.115,
2523,-0.11,0.115,
2524,-0.08,0.13,
2525,-0.085,0.125,
2526,-0.09,0.1,
2527,-0.105,0.09,
2528,-0.12,0.1,
2529,-0.1,0.12,
2530,-0.095,0.13,
2531,-0.085,0.135,
2532,-0.1,0.115,
2533,-0.105,0.1,
2534,-0.12,0.11,
2535,-0.115,0.12,
2536,-0.11,0.125,
2537,-0.11,0.12,
2538,-0.11,0.105,
2539,-0.12,0.095,
2540,-0.125,0.1,
2541,-0.115,0.11,
2542,-0.11,0.125,
2543,-0.11,0.13,
2544,-0.13,0.1,
2545,-0.12,0.105,
2546,-0.135,0.11,
2547,-0.115,0.115,
2548,-0.11,0.12,
2549,-0.105,0.125,
2550,-0.105,0.1,
2551,-0.135,0.1,
2552,-0.145,0.105,
2553,-0.12,0.125,
2554,-0.11,0.12,
2555,-0.115,0.115,
2556,-0.13,0.1,
2557,-0.15,0.1,
2558,-0.14,0.105,
2559,-0.12,0.11,
2560,-0.12,0.12,
2561,-0.1,0.13,
2562,-0.12,0.095,
2563,-0.13,0.105,
2564,-0.135,0.12,
2565,-0.125,0.115,
2566,-0.11,0.125,
2567,-0.11,0.12,
2568,-0.13,0.11,
2569,-0.135,0.1,
2570,-0.13,0.105,
2571,-0.12,0.115,
2572,-0.11,0.13,
2573,-0.1,0.125,
2574,-0.11,0.11,
2575,-0.13,0.095,
2576,-0.135,0.11,
2577,-0.125,0.125,
2578,-0.12,0.125,
2579,-0.11,0.125,
2580,-0.11,0.11,
2581,-0.125,0.105,
2582,-0.135,0.115,
2583,-0.125,0.12,
2584,-0.105,0.135,
2585,-0.11,0.135,
2586,-0.11,0.13,
2587,-0.135,0.115,
2588,-0.125,0.12,
2589,-0.125,0.135,
2590,-0.12,0.15,
2591,-0.12,0.14,
2592,-0.11,0.115,
2593,-0.125,0.11,
2594,-0.145,0.125,
2595,-0.105,0.135,
2596,-0.105,0.125,
2597,-0.115,0.14,
2598,-0.12,0.13,
2599,-0.125,0.11,
2600,-0.12,0.115,
2601,-0.11,0.135,
2602,-0.11,0.15,
2603,-0.095,0.135,
2604,-0.11,0.13,
2605,-0.125,0.105,
2606,-0.125,0.115,
2607,-0.115,0.13,
2608,-0.115,0.14,
2609,-0.1,0.13,
2610,-0.1,0.12,
2611,-0.13,0.11,
2612,-0.14,0.12,
2613,-0.125,0.13,
2614,-0.105,0.145,
2615,-0.105,0.13,
2616,-0.1,0.105,
2617,-0.105,0.105,
2618,-0.115,0.11,
2619,-0.11,0.135,
2620,-0.1,0.14,
2621,-0.105,0.13,
2622,-0.11,0.125,
2623,-0.125,0.11,
2624,-0.12,0.12,
2625,-0.105,0.135,
2626,-0.1,0.145,
2627,-0.1,0.13,
2628,-0.1,0.125,
2629,-0.12,0.11,
2630,-0.135,0.12,
2631,-0.11,0.135,
2632,-0.11,0.14,
2633,-0.1,0.125,
2634,-0.115,0.125,
2635,-0.11,0.12,
2636,-0.115,0.12,
2637,-0.105,0.135,
2638,-0.08,0.15,
2639,-0.08,0.13,
2640,-0.1,0.125,
2641,-0.1,0.105,
2642,-0.12,0.12,
2643,-0.095,0.125,
2644,-0.085,0.14,
2645,-0.09,0.135,
2646,-0.095,0.11,
2647,-0.11,0.105,
2648,-0.1,0.115,
2649,-0.11,0.13,
2650,-0.09,0.14,
2651,-0.09,0.135,
2652,-0.095,0.12,
2653,-0.105,0.105,
2654,-0.11,0.125,
2655,-0.095,0.135,
2656,-0.095,0.15,
2657,-0.095,0.14,
2658,-0.09,0.12,
2659,-0.105,0.105,
2660,-0.105,0.12,
2661,-0.095,0.13,
2662,-0.075,0.16,
2663,-0.08,0.125,
2664,-0.08,0.125,
2665,-0.105,0.125,
2666,-0.095,0.13,
2667,-0.08,0.13,
2668,-0.085,0.15,
2669,-0.075,0.14,
2670,-0.07,0.125,
2671,-0.09,0.115,
2672,-0.09,0.13,
2673,-0.075,0.135,
2674,-0.065,0.155,
2675,-0.065,0.145,
2676,-0.08,0.135,
2677,-0.09,0.125,
2678,-0.08,0.12,
2679,-0.075,0.135,
2680,-0.065,0.16,
2681,-0.055,0.145,
2682,-0.065,0.12,
2683,-0.08,0.12,
2684,-0.07,0.12,
2685,-0.08,0.135,
2686,-0.05,0.145,
2687,-0.055,0.125,
2688,-0.06,0.11,
2689,-0.065,0.1,
2690,-0.08,0.12,
2691,-0.065,0.125,
2692,-0.04,0.135,
2693,-0.045,0.13,
2694,-0.045,0.135,
2695,-0.065,0.12,
2696,-0.06,0.14,
2697,-0.06,0.155,
2698,-0.055,0.17,
2699,-0.06,0.17,
2700,-0.06,0.155,
2701,-0.065,0.15,
2702,-0.06,0.155,
2703,-0.05,0.165,
2704,-0.02,0.175,
2705,0.005,0.15,
2706,-0.005,0.13,
2707,-0.01,0.13,
2708,-0.02,0.14,
2709,-0.005,0.14,
2710,-0.01,0.15,
2711,0.0,0.145,
2712,-0.005,0.125,
2713,-0.025,0.115,
2714,-0.04,0.12,
2715,-0.03,0.135,
2716,-0.025,0.14,
2717,-0.025,0.135,
2718,-0.04,0.125,
2719,-0.065,0.11,
2720,-0.08,0.12,
2721,-0.09,0.145,
2722,-0.06,0.135,
2723,-0.06,0.145,
2724,-0.06,0.13,
2725,-0.07,0.12,
2726,-0.07,0.12,
2727,-0.065,0.125,
2728,-0.04,0.15,
2729,-0.035,0.13,
2730,-0.04,0.115,
2731,-0.05,0.1,
2732,-0.065,0.125,
2733,-0.055,0.15,
2734,-0.03,0.14,
2735,-0.025,0.14,
2736,-0.025,0.13,
2737,-0.04,0.125,
2738,-0.03,0.155,
2739,-0.02,0.185,
2740,0.0,0.2,
2741,0.015,0.185,
2742,0.035,0.15,
2743,0.035,0.09,
2744,0.065,0.0,
2745,0.115,-0.085,
2746,0.165,-0.185,
2747,0.25,-0.305,
2748,0.335,-0.46,
2749,0.43,-0.605,
2750,0.545,-0.745,
2751,0.67,-0.85,
2752,0.82,-0.9,
2753,0.955,-0.905,
2754,1.05,-0.855,
2755,1.13,-0.785,
2756,1.24,-0.665,
2757,1.325,-0.485,N
2758,1.315,-0.305,
2759,1.21,-0.155,
2760,1.05,-0.06,
2761,0.85,0.005,
2762,0.65,0.035,
2763,0.475,0.05,
2764,0.34,0.045,
2765,0.215,0.05,
2766,0.125,0.07,
2767,0.055,0.075,
2768,0.045,0.11,
2769,0.05,0.135,
2770,0.05,0.16,
2771,0.04,0.16,
2772,0.015,0.15,
2773,-0.03,0.15,
2774,-0.04,0.15,
2775,-0.055,0.175,
2776,-0.06,0.175,
2777,-0.07,0.18,
2778,-0.1,0.165,
2779,-0.1,0.145,
2780,-0.13,0.155,
2781,-0.135,0.175,
2782,-0.11,0.19,
2783,-0.125,0.18,
2784,-0.135,0.17,
2785,-0.145,0.16,
2786,-0.17,0.165,
2787,-0.16,0.18,
2788,-0.14,0.18,
2789,-0.13,0.18,
2790,-0.14,0.175,
2791,-0.15,0.165,
2792,-0.155,0.17,
2793,-0.135,0.185,
2794,-0.13,0.205,
2795,-0.14,0.205,
2796,-0.14,0.17,
2797,-0.14,0.16,
2798,-0.135,0.18,
2799,-0.125,0.19,
2800,-0.115,0.205,
2801,-0.1,0.205,
2802,-0.11,0.18,
2803,-0.135,0.165,
2804,-0.125,0.175,
2805,-0.105,0.185,
2806,-0.11,0.195,
2807,-0.1,0.185,
2808,-0.095,0.175,
2809,-0.105,0.16,
2810,-0.1,0.17,
2811,-0.095,0.18,
2812,-0.07,0.185,
2813,-0.055,0.17,
2814,-0.07,0.155,
2815,-0.095,0.155,
2816,-0.075,0.145,
2817,-0.06,0.16,
2818,-0.05,0.165,
2819,-0.04,0.18,
2820,-0.04,0.15,
2821,-0.055,0.135,
2822,-0.035,0.13,
2823,-0.035,0.16,
2824,0.0,0.16,
2825,0.02,0.155,
2826,0.02,0.135,
2827,0.01,0.125,
2828,0.01,0.125,
2829,0.035,0.14,
2830,0.055,0.14,
2831,0.065,0.13,
2832,0.06,0.11,
2833,0.07,0.095,
2834,0.065,0.09,
2835,0.09,0.1,
2836,0.12,0.1,
2837,0.13,0.105,
2838,0.125,0.08,
2839,0.125,0.055,
2840,0.125,0.06,
2841,0.135,0.07,
2842,0.16,0.075,
2843,0.185,0.06,
2844,0.185,0.045,
2845,0.175,0.02,
2846,0.185,0.035,
2847,0.195,0.055,
2848,0.24,0.065,
2849,0.255,0.06,
2850,0.255,0.045,
2851,0.22,0.04,
2852,0.23,0.035,
2853,0.23,0.07,
2854,0.25,0.09,
2855,0.245,0.075,
2856,0.225,0.07,
2857,0.21,0.065,
2858,0.19,0.075,
2859,0.195,0.095,
2860,0.18,0.105,
2861,0.17,0.12,
2862,0.14,0.115,
2863,0.105,0.11,
2864,0.085,0.115,
2865,0.075,0.125,
2866,0.065,0.14,
2867,0.045,0.135,
2868,0.03,0.13,
2869,-0.01,0.125,
2870,-0.035,0.135,
2871,-0.04,0.145,
2872,-0.04,0.155,
2873,-0.04,0.15,
2874,-0.06,0.14,
2875,-0.085,0.135,
2876,-0.095,0.14,
2877,-0.1,0.14,
2878,-0.1,0.155,
2879,-0.1,0.155,
2880,-0.115,0.14,
2881,-0.135,0.135,
2882,-0.145,0.14,
2883,-0.14,0.15,
2884,-0.14,0.16,
2885,-0.135,0.15,
2886,-0.14,0.13,
2887,-0.145,0.125,
2888,-0.16,0.13,
2889,-0.16,0.14,
2890,-0.145,0.15,
2891,-0.14,0.14,
2892,-0.155,0.13,
2893,-0.165,0.12,
2894,-0.17,0.125,
2895,-0.165,0.145,
2896,-0.145,0.15,
2897,-0.16,0.14,
2898,-0.155,0.125,
2899,-0.165,0.12,
2900,-0.185,0.12,
2901,-0.17,0.145,
2902,-0.16,0.145,
2903,-0.14,0.15,
2904,-0.15,0.145,
2905,-0.165,0.13,
2906,-0.175,0.14,
2907,-0.175,0.155,
2908,-0.165,0.165,
2909,-0.145,0.15,
2910,-0.155,0.14,
2911,-0.165,0.135,
2912,-0.185,0.145,
2913,-0.17,0.165,
2914,-0.155,0.185,
2915,-0.145,0.17,
2916,-0.155,0.165,
2917,-0.17,0.15,
2918,-0.165,0.155,
2919,-0.16,0.165,
2920,-0.145,0.175,
2921,-0.135,0.165,
2922,-0.145,0.155,
2923,-0.165,0.135,
2924,-0.17,0.15,
2925,-0.15,0.175,
2926,-0.14,0.185,
2927,-0.125,0.175,
2928,-0.14,0.155,
2929,-0.155,0.15,
2930,-0.155,0.165,
2931,-0.14,0.165,
2932,-0.13,0.18,
2933,-0.125,0.17,
2934,-0.135,0.15,
2935,-0.16,0.135,
2936,-0.155,0.155,
2937,-0.155,0.165,
2938,-0.135,0.17,
2939,-0.135,0.175,
2940,-0.13,0.15,
2941,-0.15,0.145,
2942,-0.16,0.165,
2943,-0.155,0.16,
2944,-0.145,0.175,
2945,-0.125,0.175,
2946,-0.135,0.14,
2947,-0.16,0.145,
2948,-0.16,0.15,
2949,-0.145,0.16,
2950,-0.135,0.165,
2951,-0.14,0.165,
2952,-0.15,0.145,
2953,-0.165,0.135,
2954,-0.165,0.13,
2955,-0.175,0.155,
2956,-0.145,0.16,
2957,-0.15,0.155,
2958,-0.145,0.14,
2959,-0.175,0.125,
2960,-0.17,0.145,
2961,-0.16,0.135,
2962,-0.15,0.155,
2963,-0.14,0.14,
2964,-0.16,0.14,
2965,-0.18,0.13,
2966,-0.175,0.135,
2967,-0.165,0.155,
2968,-0.15,0.14,
2969,-0.145,0.145,
2970,-0.165,0.13,
2971,-0.175,0.125,
2972,-0.18,0.13,
2973,-0.175,0.135,
2974,-0.16,0.145,
2975,-0.155,0.135,
2976,-0.18,0.12,
2977,-0.19,0.125,
2978,-0.19,0.12,
2979,-0.175,0.15,
2980,-0.16,0.14,
2981,-0.155,0.12,
2982,-0.165,0.11,
2983,-0.18,0.125,
2984,-0.185,0.115,
2985,-0.175,0.135,
2986,-0.165,0.135,
2987,-0.16,0.135,
2988,-0.17,0.11,
2989,-0.18,0.1,
2990,-0.19,0.115,
2991,-0.175,0.125,
2992,-0.175,0.125,
2993,-0.155,0.13,
2994,-0.175,0.11,
2995,-0.185,0.11,
2996,-0.19,0.105,
2997,-0.16,0.12,
2998,-0.15,0.14,
2999,-0.16,0.13,
3000,-0.165,0.11,
3001,-0.17,0.105,
3002,-0.175,0.095,
3003,-0.17,0.115,
3004,-0.165,0.135,
3005,-0.155,0.13,
3006,-0.175,0.125,
3007,-0.18,0.1,
3008,-0.185,0.11,
3009,-0.155,0.11,
3010,-0.145,0.125,
3011,-0.145,0.14,
3012,-0.15,0.12,
3013,-0.165,0.1,
3014,-0.175,0.115,
3015,-0.155,0.13,
3016,-0.15,0.14,
3017,-0.145,0.135,
3018,-0.14,0.11,
3019,-0.155,0.11,
3020,-0.16,0.105,
3021,-0.14,0.115,
3022,-0.135,0.125,
3023,-0.135,0.13,
3024,-0.14,0.105,
3025,-0.17,0.1,
3026,-0.15,0.105,
3027,-0.14,0.12,
3028,-0.135,0.125,
3029,-0.13,0.125,
3030,-0.13,0.1,
3031,-0.135,0.105,
3032,-0.16,0.11,
3033,-0.15,0.115,
3034,-0.125,0.125,
3035,-0.125,0.13,
3036,-0.135,0.115,
3037,-0.15,0.095,
3038,-0.15,0.11,
3039,-0.135,0.11,
3040,-0.12,0.135,
3041,-0.125,0.12,
3042,-0.12,0.105,
3043,-0.155,0.095,
3044,-0.145,0.1,
3045,-0.145,0.115,
3046,-0.125,0.13,
3047,-0.135,0.12,
3048,-0.13,0.11,
3049,-0.15,0.1,
3050,-0.145,0.11,
3051,-0.135,0.115,
3052,-0.12,0.135,
3053,-0.125,0.135,
3054,-0.12,0.11,
3055,-0.145,0.105,
3056,-0.145,0.1,
3057,-0.125,0.115,
3058,-0.115,0.125,
3059,-0.11,0.12,
3060,-0.13,0.1,
3061,-0.14,0.1,
3062,-0.145,0.1,
3063,-0.145,0.11,
3064,-0.125,0.12,
3065,-0.12,0.115,
3066,-0.125,0.115,
3067,-0.135,0.095,
3068,-0.135,0.105,
3069,-0.125,0.12,
3070,-0.12,0.115,
3071,-0.105,0.115,
3072,-0.115,0.1,
3073,-0.125,0.09,
3074,-0.135,0.1,
3075,-0.135,0.11,
3076,-0.105,0.115,
3077,-0.1,0.11,
3078,-0.115,0.09,
3079,-0.125,0.08,
3080,-0.13,0.095,
3081,-0.13,0.11,
3082,-0.12,0.11,
3083,-0.11,0.105,
3084,-0.125,0.09,
3085,-0.12,0.075,
3086,-0.12,0.085,
3087,-0.11,0.09,
3088,-0.105,0.105,
3089,-0.1,0.1,
3090,-0.095,0.075,
3091,-0.11,0.08,
3092,-0.105,0.08,
3093,-0.12,0.095,
3094,-0.095,0.095,
3095,-0.085,0.09,
3096,-0.095,0.075,
3097,-0.1,0.075,
3098,-0.11,0.075,
3099,-0.1,0.1,
3100,-0.095,0.135,
3101,-0.095,0.13,
3102,-0.1,0.125,
3103,-0.12,0.11,
3104,-0.13,0.115,
3105,-0.135,0.13,
3106,-0.095,0.145,
3107,-0.1,0.135,
3108,-0.085,0.12,
3109,-0.085,0.105,
3110,-0.075,0.11,
3111,-0.06,0.125,
3112,-0.03,0.115,
3113,-0.025,0.1,
3114,-0.025,0.09,
3115,-0.045,0.085,
3116,-0.045,0.095,
3117,-0.035,0.1,
3118,-0.015,0.11,
3119,-0.025,0.11,
3120,-0.035,0.11,
3121,-0.045,0.085,
3122,-0.065,0.09,
3123,-0.06,0.105,
3124,-0.055,0.1,
3125,-0.055,0.11,
3126,-0.07,0.09,
3127,-0.095,0.085,
3128,-0.095,0.095,
3129,-0.09,0.105,
3130,-0.09,0.12,
3131,-0.075,0.115,
3132,-0.08,0.09,
3133,-0.095,0.08,
3134,-0.115,0.08,
3135,-0.11,0.09,
3136,-0.075,0.105,
3137,-0.075,0.1,
3138,-0.08,0.1,
3139,-0.105,0.08,
3140,-0.105,0.08,
3141,-0.085,0.09,
3142,-0.08,0.1,
3143,-0.075,0.095,
3144,-0.08,0.09,
3145,-0.095,0.07,
3146,-0.085,0.095,
3147,-0.055,0.1,
3148,-0.05,0.13,
3149,-0.03,0.155,
3150,-0.03,0.155,
3151,-0.04,0.145,
3152,-0.03,0.135,
3153,0.005,0.08,
3154,0.035,0.02,
3155,0.08,-0.095,
3156,0.1,-0.225,
3157,0.125,-0.36,
3158,0.21,-0.49,
3159,0.33,-0.63,
3160,0.455,-0.77,
3161,0.575,-0.89,
3162,0.695,-0.97,
3163,0.815,-0.98,
3164,0.91,-0.935,
3165,1.02,-0.855,
3166,1.15,-0.745,
3167,1.245,-0.62,N
3168,1.275,-0.465,
3169,1.205,-0.31,
3170,1.08,-0.18,
3171,0.93,-0.065,
3172,0.75,0.025,
3173,0.565,0.04,
3174,0.405,0.02,
3175,0.25,-0.005,
3176,0.125,-0.02,
3177,0.05,0.01,
3178,0.01,0.04,
3179,0.0,0.07,
3180,0.01,0.07,
3181,-0.015,0.085,
3182,-0.02,0.08,
3183,-0.03,0.1,
3184,-0.04,0.115,
3185,-0.06,0.11,
3186,-0.085,0.095,
3187,-0.105,0.105,
3188,-0.125,0.105,
3189,-0.125,0.12,
3190,-0.115,0.125,
3191,-0.115,0.13,
3192,-0.135,0.105,
3193,-0.16,0.1,
3194,-0.155,0.1,
3195,-0.15,0.125,
3196,-0.13,0.135,
3197,-0.14,0.13,
3198,-0.16,0.12,
3199,-0.165,0.105,
3200,-0.17,0.125,
3201,-0.16,0.13,
3202,-0.15,0.145,
3203,-0.145,0.14,
3204,-0.155,0.12,
3205,-0.165,0.11,
3206,-0.18,0.13,
3207,-0.165,0.13,
3208,-0.15,0.155,
3209,-0.15,0.14,
3210,-0.15,0.13,
3211,-0.165,0.125,
3212,-0.17,0.13,
3213,-0.155,0.135,
3214,-0.135,0.135,
3215,-0.145,0.13,
3216,-0.145,0.12,
3217,-0.16,0.105,
3218,-0.16,0.11,
3219,-0.16,0.115,
3220,-0.14,0.125,
3221,-0.13,0.115,
3222,-0.13,0.105,
3223,-0.14,0.085,
3224,-0.15,0.09,
3225,-0.13,0.1,
3226,-0.125,0.125,
3227,-0.105,0.11,
3228,-0.12,0.085,
3229,-0.135,0.07,
3230,-0.15,0.085,
3231,-0.12,0.1,
3232,-0.105,0.1,
3233,-0.11,0.085,
3234,-0.085,0.075,
3235,-0.105,0.065,
3236,-0.11,0.07,
3237,-0.085,0.07,
3238,-0.07,0.08,
3239,-0.06,0.08,
3240,-0.07,0.065,
3241,-0.07,0.045,
3242,-0.09,0.05,
3243,-0.06,0.045,
3244,-0.045,0.055,
3245,-0.03,0.04,
3246,-0.015,0.03,
3247,-0.035,0.02,
3248,-0.02,0.015,
3249,-0.005,0.015,
3250,0.01,0.035,
3251,0.03,0.015,
3252,0.035,-0.005,
3253,0.035,-0.015,
3254,0.04,-0.01,
3255,0.055,-0.01,
3256,0.08,-0.005,
3257,0.09,-0.015,
3258,0.105,-0.03,
3259,0.115,-0.055,
3260,0.095,-0.05,
3261,0.115,-0.04,
3262,0.145,-0.035,
3263,0.165,-0.04,
3264,0.165,-0.065,
3265,0.155,-0.065,
3266,0.155,-0.06,
3267,0.165,-0.045,
3268,0.18,-0.03,
3269,0.21,-0.035,
3270,0.19,-0.04,
3271,0.18,-0.04,
3272,0.185,-0.025,
3273,0.17,0.0,
3274,0.19,0.0,
3275,0.175,0.005,
3276,0.17,0.01,
3277,0.15,-0.005,
3278,0.125,0.01,
3279,0.105,0.025,
3280,0.105,0.045,
3281,0.085,0.06,
3282,0.06,0.05,
3283,0.025,0.045,
3284,0.015,0.05,
3285,-0.015,0.055,
3286,-0.01,0.075,
3287,-0.01,0.08,
3288,-0.04,0.065,
3289,-0.075,0.06,
3290,-0.1,0.07,
3291,-0.085,0.08,
3292,-0.09,0.085,
3293,-0.095,0.095,
3294,-0.11,0.075,
3295,-0.145,0.055,
3296,-0.145,0.065,
3297,-0.16,0.075,
3298,-0.15,0.095,
3299,-0.165,0.085,
3300,-0.16,0.07,
3301,-0.18,0.07,
3302,-0.195,0.075,
3303,-0.185,0.08,
3304,-0.175,0.095,
3305,-0.18,0.105,
3306,-0.19,0.08,
3307,-0.195,0.065,
3308,-0.215,0.065,
3309,-0.2,0.085,
3310,-0.205,0.095,
3311,-0.185,0.08,
3312,-0.195,0.08,
3313,-0.215,0.06,
3314,-0.215,0.07,
3315,-0.205,0.09,
3316,-0.21,0.1,
3317,-0.195,0.09,
3318,-0.2,0.07,
3319,-0.225,0.065,
3320,-0.21,0.07,
3321,-0.2,0.08,
3322,-0.195,0.08,
3323,-0.19,0.09,
3324,-0.21,0.065,
3325,-0.205,0.065,
3326,-0.21,0.065,
3327,-0.195,0.09,
3328,-0.185,0.09,
3329,-0.185,0.095,
3330,-0.19,0.075,
3331,-0.205,0.07,
3332,-0.215,0.075,
3333,-0.2,0.1,
3334,-0.2,0.11,
3335,-0.2,0.1,
3336,-0.21,0.09,
3337,-0.215,0.08,
3338,-0.21,0.08,
3339,-0.2,0.09,
3340,-0.18,0.11,
3341,-0.185,0.1,
3342,-0.19,0.09,
3343,-0.2,0.08,
3344,-0.21,0.095,
3345,-0.195,0.11,
3346,-0.2,0.11,
3347,-0.185,0.105,
3348,-0.185,0.11,
3349,-0.205,0.08,
3350,-0.205,0.095,
3351,-0.195,0.095,
3352,-0.18,0.11,
3353,-0.18,0.12,
3354,-0.195,0.1,
3355,-0.205,0.085,
3356,-0.19,0.075,
3357,-0.175,0.095,
3358,-0.165,0.1,
3359,-0.16,0.11,
3360,-0.17,0.095,
3361,-0.195,0.075,
3362,-0.21,0.09,
3363,-0.2,0.095,
3364,-0.155,0.105,
3365,-0.16,0.09,
3366,-0.165,0.08,
3367,-0.185,0.08,
3368,-0.18,0.085,
3369,-0.175,0.09,
3370,-0.17,0.1,
3371,-0.17,0.095,
3372,-0.175,0.09,
3373,-0.185,0.065,
3374,-0.18,0.09,
3375,-0.175,0.105,
3376,-0.175,0.1,
3377,-0.16,0.09,
3378,-0.18,0.08,
3379,-0.195,0.075,
3380,-0.19,0.08,
3381,-0.18,0.11,
3382,-0.16,0.105,
3383,-0.165,0.105,
3384,-0.175,0.085,
3385,-0.175,0.075,
3386,-0.2,0.085,
3387,-0.185,0.105,
3388,-0.165,0.11,
3389,-0.16,0.11,
3390,-0.17,0.09,
3391,-0.18,0.07,
3392,-0.18,0.08,
3393,-0.18,0.09,
3394,-0.16,0.095,
3395,-0.17,0.105,
3396,-0.175,0.085,
3397,-0.18,0.09,
3398,-0.195,0.085,
3399,-0.185,0.085,
3400,-0.17,0.095,
3401,-0.16,0.095,
3402,-0.16,0.08,
3403,-0.175,0.08,
3404,-0.185,0.08,
3405,-0.175,0.085,
3406,-0.15,0.095,
3407,-0.145,0.1,
3408,-0.165,0.07,
3409,-0.18,0.07,
3410,-0.18,0.085,
3411,-0.185,0.09,
3412,-0.175,0.09,
3413,-0.155,0.09,
3414,-0.17,0.07,
3415,-0.19,0.07,
3416,-0.2,0.065,
3417,-0.19,0.085,
3418,-0.18,0.1,
3419,-0.175,0.075,
3420,-0.185,0.07,
3421,-0.19,0.07,
3422,-0.195,0.075,
3423,-0.19,0.09,
3424,-0.175,0.095,
3425,-0.175,0.085,
3426,-0.19,0.07,
3427,-0.19,0.06,
3428,-0.2,0.07,
3429,-0.2,0.06,
3430,-0.195,0.09,
3431,-0.165,0.07,
3432,-0.185,0.065,
3433,-0.19,0.045,
3434,-0.19,0.06,
3435,-0.18,0.07,
3436,-0.17,0.095,
3437,-0.18,0.085,
3438,-0.175,0.075,
3439,-0.185,0.06,
3440,-0.18,0.055,
3441,-0.19,0.07,
3442,-0.165,0.08,
3443,-0.165,0.08,
3444,-0.16,0.08,
3445,-0.2,0.065,
3446,-0.195,0.07,
3447,-0.175,0.075,
3448,-0.165,0.105,
3449,-0.15,0.09,
3450,-0.16,0.07,
3451,-0.17,0.06,
3452,-0.175,0.05,
3453,-0.16,0.07,
3454,-0.16,0.08,
3455,-0.155,0.075,
3456,-0.17,0.06,
3457,-0.185,0.055,
3458,-0.18,0.065,
3459,-0.17,0.07,
3460,-0.15,0.075,
3461,-0.155,0.07,
3462,-0.15,0.055,
3463,-0.165,0.045,
3464,-0.18,0.05,
3465,-0.185,0.06,
3466,-0.15,0.08,
3467,-0.14,0.08,
3468,-0.16,0.065,
3469,-0.17,0.055,
3470,-0.17,0.055,
3471,-0.17,0.06,
3472,-0.15,0.07,
3473,-0.155,0.08,
3474,-0.17,0.07,
3475,-0.185,0.06,
3476,-0.17,0.05,
3477,-0.165,0.06,
3478,-0.155,0.07,
3479,-0.155,0.08,
3480,-0.17,0.06,
3481,-0.18,0.045,
3482,-0.19,0.06,
3483,-0.175,0.07,
3484,-0.16,0.07,
3485,-0.16,0.07,
3486,-0.16,0.05,
3487,-0.175,0.04,
3488,-0.19,0.05,
3489,-0.17,0.065,
3490,-0.165,0.075,
3491,-0.155,0.07,
3492,-0.17,0.07,
3493,-0.185,0.05,
3494,-0.185,0.06,
3495,-0.185,0.07,
3496,-0.165,0.09,
3497,-0.155,0.075,
3498,-0.16,0.065,
3499,-0.18,0.06,
3500,-0.185,0.065,
3501,-0.17,0.075,
3502,-0.165,0.09,
3503,-0.15,0.08,
3504,-0.165,0.07,
3505,-0.175,0.07,
3506,-0.175,0.06,
3507,-0.18,0.085,
3508,-0.165,0.09,
3509,-0.15,0.08,
3510,-0.165,0.07,
3511,-0.18,0.065,
3512,-0.175,0.085,
3513,-0.17,0.085,
3514,-0.155,0.095,
3515,-0.16,0.085,
3516,-0.15,0.07,
3517,-0.175,0.055,
3518,-0.18,0.05,
3519,-0.16,0.065,
3520,-0.165,0.07,
3521,-0.15,0.075,
3522,-0.155,0.075,
3523,-0.17,0.08,
3524,-0.185,0.09,
3525,-0.175,0.11,
3526,-0.155,0.125,
3527,-0.17,0.13,
3528,-0.19,0.105,
3529,-0.195,0.11,
3530,-0.185,0.11,
3531,-0.175,0.115,
3532,-0.135,0.145,
3533,-0.13,0.13,
3534,-0.125,0.115,
3535,-0.135,0.1,
3536,-0.13,0.1,
3537,-0.12,0.115,
3538,-0.095,0.12,
3539,-0.095,0.115,
3540,-0.105,0.095,
3541,-0.13,0.085,
3542,-0.115,0.1,
3543,-0.12,0.11,
3544,-0.105,0.11,
3545,-0.115,0.1,
3546,-0.13,0.085,
3547,-0.155,0.08,
3548,-0.165,0.085,
3549,-0.16,0.105,
3550,-0.15,0.1,
3551,-0.165,0.11,
3552,-0.185,0.085,
3553,-0.185,0.07,
3554,-0.175,0.08,
3555,-0.17,0.09,
3556,-0.16,0.1,
3557,-0.15,0.09,
3558,-0.16,0.08,
3559,-0.175,0.075,
3560,-0.185,0.075,
3561,-0.17,0.085,
3562,-0.17,0.095,
3563,-0.16,0.095,
3564,-0.16,0.08,
3565,-0.175,0.075,
3566,-0.17,0.08,
3567,-0.175,0.095,
3568,-0.125,0.115,
3569,-0.12,0.115,
3570,-0.125,0.125,
3571,-0.13,0.14,
3572,-0.13,0.15,
3573,-0.095,0.165,
3574,-0.065,0.16,
3575,-0.04,0.085,
3576,-0.03,-0.02,
3577,-0.02,-0.135,
3578,0.01,-0.245,
3579,0.09,-0.355,
3580,0.185,-0.475,
3581,0.31,-0.625,
3582,0.42,-0.76,
3583,0.54,-0.865,
3584,0.685,-0.915,
3585,0.835,-0.905,
3586,0.96,-0.835,
3587,1.09,-0.755,
3588,1.205,-0.67,
3589,1.285,-0.525,N
3590,1.34,-0.37,
3591,1.3,-0.21,
3592,1.19,-0.08,
3593,0.98,0.01,
3594,0.77,0.065,
3595,0.54,0.06,
3596,0.345,0.055,
3597,0.2,0.035,
3598,0.06,0.03,
3599,-0.045,0.04,
3600,-0.095,0.06,
3601,-0.105,0.055,
3602,-0.105,0.07,
3603,-0.09,0.105,
3604,-0.095,0.11,
3605,-0.105,0.12,
3606,-0.13,0.105,
3607,-0.175,0.095,
3608,-0.17,0.115,
3609,-0.175,0.125,
3610,-0.175,0.135,
3611,-0.175,0.125,
3612,-0.185,0.11,
3613,-0.195,0.1,
3614,-0.22,0.11,
3615,-0.215,0.125,
3616,-0.215,0.14,
3617,-0.215,0.13,
3618,-0.215,0.11,
3619,-0.245,0.105,
3620,-0.25,0.125,
3621,-0.245,0.13,
3622,-0.235,0.14,
3623,-0.22,0.135,
3624,-0.245,0.12,
3625,-0.25,0.11,
3626,-0.255,0.12,
3627,-0.265,0.13,
3628,-0.245,0.145,
3629,-0.235,0.135,
3630,-0.245,0.115,
3631,-0.265,0.115,
3632,-0.26,0.13,
3633,-0.25,0.13,
3634,-0.25,0.13,
3635,-0.235,0.125,
3636,-0.255,0.12,
3637,-0.25,0.115,
3638,-0.26,0.12,
3639,-0.235,0.13,
3640,-0.22,0.14,
3641,-0.21,0.125,
3642,-0.23,0.125,
3643,-0.235,0.11,
3644,-0.23,0.12,
3645,-0.23,0.13,
3646,-0.215,0.135,
3647,-0.205,0.14,
3648,-0.195,0.115,
3649,-0.205,0.11,
3650,-0.195,0.12,
3651,-0.195,0.125,
3652,-0.175,0.13,
3653,-0.165,0.13,
3654,-0.17,0.12,
3655,-0.165,0.11,
3656,-0.165,0.1,
3657,-0.17,0.12,
3658,-0.145,0.125,
3659,-0.13,0.115,
3660,-0.14,0.105,
3661,-0.125,0.095,
3662,-0.125,0.09,
3663,-0.125,0.095,
3664,-0.085,0.11,
3665,-0.065,0.115,
3666,-0.075,0.09,
3667,-0.07,0.075,
3668,-0.065,0.075,
3669,-0.04,0.095,
3670,-0.015,0.095,
3671,-0.015,0.095,
3672,0.0,0.07,
3673,-0.005,0.06,
3674,0.005,0.065,
3675,0.025,0.06,
3676,0.055,0.075,
3677,0.07,0.055,
3678,0.065,0.04,
3679,0.06,0.025,
3680,0.05,0.03,
3681,0.08,0.035,
3682,0.105,0.04,
3683,0.125,0.035,
3684,0.13,0.025,
3685,0.125,0.015,
3686,0.13,0.03,
3687,0.14,0.015,
3688,0.15,0.04,
3689,0.165,0.04,
3690,0.16,0.035,
3691,0.16,0.025,
3692,0.155,0.045,
3693,0.165,0.055,
3694,0.16,0.065,
3695,0.145,0.075,
3696,0.145,0.075,
3697,0.125,0.06,
3698,0.105,0.075,
3699,0.085,0.095,
3700,0.08,0.11,
3701,0.065,0.1,
3702,0.05,0.1,
3703,0.015,0.085,
3704,-0.005,0.09,
3705,-0.015,0.115,
3706,-0.04,0.13,
3707,-0.04,0.13,
3708,-0.065,0.115,
3709,-0.1,0.105,
3710,-0.115,0.13,
3711,-0.115,0.13,
3712,-0.125,0.13,
3713,-0.12,0.14,
3714,-0.15,0.13,
3715,-0.18,0.11,
3716,-0.18,0.11,
3717,-0.175,0.13,
3718,-0.19,0.145,
3719,-0.18,0.15,
3720,-0.19,0.13,
3721,-0.21,0.125,
3722,-0.205,0.135,
3723,-0.2,0.15,
3724,-0.19,0.165,
3725,-0.195,0.155,
3726,-0.195,0.155,
3727,-0.225,0.135,
3728,-0.225,0.13,
3729,-0.205,0.155,
3730,-0.205,0.165,
3731,-0.19,0.155,
3732,-0.21,0.14,
3733,-0.23,0.13,
3734,-0.235,0.13,
3735,-0.22,0.145,
3736,-0.205,0.16,
3737,-0.195,0.155,
3738,-0.215,0.135,
3739,-0.215,0.12,
3740,-0.225,0.135,
3741,-0.205,0.16,
3742,-0.195,0.165,
3743,-0.2,0.155,
3744,-0.195,0.155,
3745,-0.22,0.14,
3746,-0.23,0.145,
3747,-0.22,0.16,
3748,-0.195,0.16,
3749,-0.18,0.165,
3750,-0.195,0.16,
3751,-0.205,0.15,
3752,-0.21,0.14,
3753,-0.2,0.18,
3754,-0.185,0.165,
3755,-0.185,0.17,
3756,-0.19,0.165,
3757,-0.215,0.155,
3758,-0.215,0.145,
3759,-0.19,0.16,
3760,-0.18,0.175,
3761,-0.185,0.175,
3762,-0.185,0.155,
3763,-0.205,0.145,
3764,-0.215,0.145,
3765,-0.2,0.165,
3766,-0.18,0.18,
3767,-0.17,0.17,
3768,-0.18,0.155,
3769,-0.205,0.145,
3770,-0.21,0.15,
3771,-0.205,0.165,
3772,-0.18,0.16,
3773,-0.18,0.165,
3774,-0.18,0.16,
3775,-0.195,0.14,
3776,-0.2,0.145,
3777,-0.19,0.16,
3778,-0.175,0.18,
3779,-0.175,0.17,
3780,-0.19,0.165,
3781,-0.2,0.155,
3782,-0.21,0.155,
3783,-0.185,0.175,
3784,-0.175,0.18,
3785,-0.17,0.175,
3786,-0.18,0.17,
3787,-0.195,0.155,
3788,-0.2,0.165,
3789,-0.19,0.175,
3790,-0.175,0.19,
3791,-0.175,0.19,
3792,-0.195,0.165,
3793,-0.2,0.165,
3794,-0.215,0.17,
3795,-0.2,0.17,
3796,-0.18,0.185,
3797,-0.18,0.19,
3798,-0.19,0.155,
3799,-0.205,0.165,
3800,-0.21,0.17,
3801,-0.2,0.165,
3802,-0.175,0.185,
3803,-0.185,0.175,
3804,-0.205,0.165,
3805,-0.21,0.155,
3806,-0.215,0.155,
3807,-0.205,0.165,
3808,-0.195,0.175,
3809,-0.195,0.165,
3810,-0.2,0.165,
3811,-0.215,0.155,
3812,-0.21,0.15,
3813,-0.2,0.185,
3814,-0.195,0.19,
3815,-0.19,0.19,
3816,-0.18,0.17,
3817,-0.2,0.17,
3818,-0.215,0.175,
3819,-0.205,0.18,
3820,-0.185,0.19,
3821,-0.21,0.185,
3822,-0.205,0.165,
3823,-0.22,0.16,
3824,-0.215,0.16,
3825,-0.21,0.17,
3826,-0.21,0.185,
3827,-0.205,0.165,
3828,-0.215,0.155,
3829,-0.225,0.15,
3830,-0.225,0.15,
3831,-0.22,0.165,
3832,-0.21,0.17,
3833,-0.225,0.165,
3834,-0.22,0.145,
3835,-0.235,0.15,
3836,-0.235,0.145,
3837,-0.24,0.16,
3838,-0.22,0.165,
3839,-0.215,0.175,
3840,-0.22,0.15,
3841,-0.23,0.14,
3842,-0.245,0.155,
3843,-0.23,0.175,
3844,-0.21,0.175,
3845,-0.205,0.17,
3846,-0.215,0.17,
3847,-0.23,0.16,
3848,-0.225,0.165,
3849,-0.205,0.17,
3850,-0.19,0.185,
3851,-0.19,0.18,
3852,-0.2,0.17,
3853,-0.205,0.15,
3854,-0.22,0.155,
3855,-0.2,0.175,
3856,-0.185,0.185,
3857,-0.19,0.18,
3858,-0.195,0.16,
3859,-0.21,0.155,
3860,-0.225,0.165,
3861,-0.205,0.165,
3862,-0.185,0.18,
3863,-0.185,0.17,
3864,-0.195,0.15,
3865,-0.205,0.135,
3866,-0.21,0.14,
3867,-0.2,0.15,
3868,-0.185,0.175,
3869,-0.195,0.165,
3870,-0.19,0.16,
3871,-0.21,0.14,
3872,-0.21,0.135,
3873,-0.21,0.16,
3874,-0.2,0.185,
3875,-0.185,0.17,
3876,-0.185,0.165,
3877,-0.205,0.15,
3878,-0.22,0.155,
3879,-0.21,0.165,
3880,-0.18,0.19,
3881,-0.18,0.18,
3882,-0.19,0.16,
3883,-0.205,0.15,
3884,-0.215,0.145,
3885,-0.21,0.16,
3886,-0.195,0.165,
3887,-0.185,0.165,
3888,-0.2,0.155,
3889,-0.215,0.135,
3890,-0.235,0.14,
3891,-0.225,0.155,
3892,-0.19,0.165,
3893,-0.195,0.155,
3894,-0.2,0.145,
3895,-0.215,0.14,
3896,-0.225,0.15,
3897,-0.225,0.15,
3898,-0.21,0.165,
3899,-0.205,0.17,
3900,-0.215,0.14,
3901,-0.235,0.14,
3902,-0.24,0.15,
3903,-0.225,0.15,
3904,-0.195,0.17,
3905,-0.175,0.16,
3906,-0.2,0.145,
3907,-0.2,0.145,
3908,-0.21,0.155,
3909,-0.195,0.16,
3910,-0.175,0.165,
3911,-0.175,0.16,
3912,-0.2,0.145,
3913,-0.21,0.135,
3914,-0.2,0.14,
3915,-0.185,0.155,
3916,-0.185,0.17,
3917,-0.17,0.18,
3918,-0.185,0.165,
3919,-0.185,0.15,
3920,-0.2,0.155,
3921,-0.18,0.175,
3922,-0.165,0.17,
3923,-0.165,0.165,
3924,-0.18,0.15,
3925,-0.18,0.15,
3926,-0.21,0.15,
3927,-0.175,0.17,
3928,-0.16,0.175,
3929,-0.165,0.165,
3930,-0.17,0.16,
3931,-0.175,0.14,
3932,-0.18,0.145,
3933,-0.175,0.155,
3934,-0.165,0.16,
3935,-0.155,0.155,
3936,-0.16,0.145,
3937,-0.165,0.13,
3938,-0.17,0.14,
3939,-0.165,0.155,
3940,-0.145,0.17,
3941,-0.125,0.175,
3942,-0.15,0.175,
3943,-0.16,0.16,
3944,-0.17,0.175,
3945,-0.165,0.195,
3946,-0.165,0.2,
3947,-0.16,0.2,
3948,-0.175,0.185,
3949,-0.17,0.175,
3950,-0.165,0.185,
3951,-0.14,0.19,
3952,-0.115,0.185,
3953,-0.115,0.175,
3954,-0.115,0.16,
3955,-0.105,0.15,
3956,-0.12,0.16,
3957,-0.115,0.16,
3958,-0.1,0.175,
3959,-0.085,0.17,
3960,-0.11,0.145,
3961,-0.12,0.135,
3962,-0.13,0.135,
3963,-0.12,0.135,
3964,-0.13,0.14,
3965,-0.13,0.15,
3966,-0.145,0.125,
3967,-0.155,0.12,
3968,-0.185,0.125,
3969,-0.18,0.135,
3970,-0.17,0.16,
3971,-0.18,0.145,
3972,-0.16,0.125,
3973,-0.19,0.125,
3974,-0.18,0.14,
3975,-0.175,0.145,
3976,-0.155,0.14,
3977,-0.16,0.135,
3978,-0.155,0.12,
3979,-0.185,0.115,
3980,-0.185,0.12,
3981,-0.155,0.13,
3982,-0.15,0.155,
3983,-0.14,0.145,
3984,-0.155,0.13,
3985,-0.16,0.125,
3986,-0.15,0.13,
3987,-0.15,0.15,
3988,-0.11,0.19,
3989,-0.1,0.19,
3990,-0.09,0.19,
3991,-0.095,0.17,
3992,-0.065,0.13,
3993,-0.03,0.06,
3994,-0.005,-0.03,
3995,0.035,-0.155,
3996,0.075,-0.295,
3997,0.165,-0.455,
3998,0.28,-0.6,
3999,0.405,-0.75,
4000,0.555,-0.865,
4001,0.7,-0.955,
4002,0.835,-0.985,
4003,0.945,-0.935,
4004,1.045,-0.845,
4005,1.18,-0.72,
4006,1.285,-0.57,N
4007,1.32,-0.39,
4008,1.24,-0.23,
4009,1.11,-0.11,
4010,0.915,-0.005,
4011,0.72,0.06,
4012,0.535,0.075,
4013,0.36,0.045,
4014,0.195,0.03,
4015,0.075,0.035,
4016,-0.005,0.065,
4017,-0.035,0.1,
4018,-0.02,0.135,
4019,-0.025,0.14,
4020,-0.055,0.125,
4021,-0.08,0.135,
4022,-0.095,0.15,
4023,-0.105,0.155,
4024,-0.115,0.18,
4025,-0.115,0.185,
4026,-0.135,0.17,
4027,-0.16,0.15,
4028,-0.17,0.17,
4029,-0.175,0.185,
4030,-0.175,0.2,
4031,-0.165,0.19,
4032,-0.18,0.175,
4033,-0.195,0.17,
4034,-0.19,0.165,
4035,-0.2,0.18,
4036,-0.185,0.2,
4037,-0.185,0.19,
4038,-0.205,0.185,
4039,-0.205,0.165,
4040,-0.21,0.18,
4041,-0.19,0.19,
4042,-0.19,0.2,
4043,-0.18,0.2,
4044,-0.195,0.185,
4045,-0.2,0.17,
4046,-0.215,0.175,
4047,-0.19,0.19,
4048,-0.185,0.195,
4049,-0.175,0.195,
4050,-0.175,0.18,
4051,-0.195,0.165,
4052,-0.205,0.165,
4053,-0.19,0.18,
4054,-0.165,0.2,
4055,-0.17,0.195,
4056,-0.17,0.17,
4057,-0.185,0.16,
4058,-0.19,0.165,
4059,-0.165,0.19,
4060,-0.16,0.19,
4061,-0.145,0.18,
4062,-0.155,0.17,
4063,-0.17,0.15,
4064,-0.165,0.16,
4065,-0.145,0.17,
4066,-0.135,0.17,
4067,-0.12,0.165,
4068,-0.12,0.145,
4069,-0.135,0.14,
4070,-0.145,0.135,
4071,-0.14,0.155,
4072,-0.115,0.155,
4073,-0.1,0.16,
4074,-0.1,0.14,
4075,-0.115,0.12,
4076,-0.1,0.12,
4077,-0.08,0.135,
4078,-0.065,0.14,
4079,-0.045,0.125,
4080,-0.045,0.115,
4081,-0.04,0.105,
4082,-0.045,0.11,
4083,-0.03,0.105,
4084,0.01,0.115,
4085,0.025,0.105,
4086,0.025,0.09,
4087,0.02,0.075,
4088,0.04,0.075,
4089,0.055,0.08,
4090,0.08,0.08,
4091,0.085,0.065,
4092,0.085,0.055,
4093,0.07,0.04,
4094,0.085,0.045,
4095,0.115,0.045,
4096,0.13,0.05,
4097,0.15,0.035,
4098,0.16,0.025,
4099,0.15,0.02,
4100,0.145,0.02,
4101,0.16,0.04,
4102,0.175,0.06,
4103,0.19,0.05,
4104,0.175,0.045,
4105,0.165,0.045,
4106,0.16,0.06,
4107,0.145,0.075,
4108,0.15,0.09,
4109,0.14,0.085,
4110,0.1,0.09,
4111,0.075,0.08,
4112,0.055,0.105,
4113,0.03,0.12,
4114,0.04,0.125,
4115,0.01,0.13,
4116,-0.025,0.11,
4117,-0.05,0.1,
4118,-0.075,0.12,
4119,-0.095,0.13,
4120,-0.095,0.16,
4121,-0.1,0.15,
4122,-0.125,0.14,
4123,-0.165,0.125,
4124,-0.175,0.125,
4125,-0.185,0.135,
4126,-0.17,0.145,
4127,-0.19,0.155,
4128,-0.19,0.145,
4129,-0.225,0.14,
4130,-0.235,0.145,
4131,-0.225,0.165,
4132,-0.215,0.17,
4133,-0.21,0.15,
4134,-0.22,0.135,
4135,-0.25,0.125,
4136,-0.255,0.125,
4137,-0.235,0.145,
4138,-0.23,0.165,
4139,-0.22,0.16,
4140,-0.235,0.135,
4141,-0.26,0.125,
4142,-0.255,0.13,
4143,-0.255,0.145,
4144,-0.245,0.155,
4145,-0.245,0.15,
4146,-0.25,0.14,
4147,-0.27,0.135,
4148,-0.27,0.15,
4149,-0.26,0.16,
4150,-0.24,0.17,
4151,-0.245,0.17,
4152,-0.26,0.145,
4153,-0.27,0.135,
4154,-0.265,0.15,
4155,-0.26,0.17,
4156,-0.255,0.175,
4157,-0.245,0.165,
4158,-0.245,0.145,
4159,-0.265,0.15,
4160,-0.26,0.145,
4161,-0.245,0.165,
4162,-0.235,0.18,
4163,-0.235,0.18,
4164,-0.245,0.155,
4165,-0.26,0.15,
4166,-0.275,0.165,
4167,-0.24,0.17,
4168,-0.225,0.18,
4169,-0.215,0.175,
4170,-0.23,0.16,
4171,-0.245,0.155,
4172,-0.245,0.165,
4173,-0.245,0.17,
4174,-0.23,0.18,
4175,-0.22,0.17,
4176,-0.23,0.16,
4177,-0.24,0.155,
4178,-0.24,0.165,
4179,-0.245,0.17,
4180,-0.23,0.185,
4181,-0.22,0.165,
4182,-0.23,0.155,
4183,-0.25,0.15,
4184,-0.26,0.155,
4185,-0.24,0.17,
4186,-0.22,0.18,
4187,-0.235,0.165,
4188,-0.25,0.16,
4189,-0.26,0.145,
4190,-0.26,0.16,
4191,-0.245,0.16,
4192,-0.245,0.17,
4193,-0.23,0.16,
4194,-0.24,0.155,
4195,-0.245,0.14,
4196,-0.25,0.155,
4197,-0.25,0.165,
4198,-0.245,0.19,
4199,-0.235,0.165,
4200,-0.25,0.15,
4201,-0.27,0.145,
4202,-0.27,0.15,
4203,-0.255,0.165,
4204,-0.245,0.17,
4205,-0.24,0.16,
4206,-0.25,0.155,
4207,-0.265,0.13,
4208,-0.28,0.14,
4209,-0.275,0.15,
4210,-0.25,0.165,
4211,-0.25,0.155,
4212,-0.26,0.14,
4213,-0.265,0.135,
4214,-0.275,0.14,
4215,-0.27,0.145,
4216,-0.245,0.16,
4217,-0.25,0.16,
4218,-0.26,0.14,
4219,-0.26,0.13,
4220,-0.275,0.125,
4221,-0.265,0.155,
4222,-0.27,0.15,
4223,-0.24,0.15,
4224,-0.25,0.15,
4225,-0.255,0.125,
4226,-0.27,0.14,
4227,-0.26,0.155,
4228,-0.24,0.165,
4229,-0.245,0.15,
4230,-0.265,0.145,
4231,-0.27,0.135,
4232,-0.265,0.145,
4233,-0.26,0.16,
4234,-0.26,0.155,
4235,-0.255,0.135,
4236,-0.245,0.15,
4237,-0.275,0.125,
4238,-0.285,0.135,
4239,-0.265,0.135,
4240,-0.26,0.155,
4241,-0.25,0.145,
4242,-0.25,0.13,
4243,-0.27,0.115,
4244,-0.275,0.135,
4245,-0.26,0.145,
4246,-0.25,0.155,
4247,-0.26,0.14,
4248,-0.26,0.135,
4249,-0.27,0.13,
4250,-0.27,0.14,
4251,-0.26,0.14,
4252,-0.24,0.145,
4253,-0.24,0.135,
4254,-0.26,0.125,
4255,-0.275,0.11,
4256,-0.28,0.125,
4257,-0.255,0.135,
4258,-0.255,0.155,
4259,-0.25,0.135,
4260,-0.25,0.125,
4261,-0.26,0.125,
4262,-0.275,0.115,
4263,-0.27,0.13,
4264,-0.24,0.155,
4265,-0.255,0.135,
4266,-0.26,0.125,
4267,-0.27,0.11,
4268,-0.27,0.11,
4269,-0.27,0.125,
4270,-0.25,0.135,
4271,-0.25,0.125,
4272,-0.26,0.12,
4273,-0.265,0.11,
4274,-0.275,0.11,
4275,-0.26,0.125,
4276,-0.215,0.125,
4277,-0.23,0.125,
4278,-0.25,0.115,
4279,-0.275,0.09,
4280,-0.265,0.105,
4281,-0.25,0.115,
4282,-0.23,0.105,
4283,-0.23,0.115,
4284,-0.24,0.1,
4285,-0.26,0.095,
4286,-0.255,0.1,
4287,-0.245,0.115,
4288,-0.23,0.12,
4289,-0.235,0.12,
4290,-0.235,0.095,
4291,-0.255,0.09,
4292,-0.26,0.095,
4293,-0.245,0.11,
4294,-0.23,0.125,
4295,-0.235,0.11,
4296,-0.235,0.095,
4297,-0.255,0.085,
4298,-0.26,0.09,
4299,-0.24,0.095,
4300,-0.23,0.12,
4301,-0.235,0.1,
4302,-0.24,0.09,
4303,-0.255,0.09,
4304,-0.255,0.1,
4305,-0.25,0.105,
4306,-0.225,0.115,
4307,-0.23,0.1,
4308,-0.235,0.1,
4309,-0.245,0.08,
4310,-0.25,0.1,
4311,-0.24,0.095,
4312,-0.235,0.105,
4313,-0.23,0.095,
4314,-0.235,0.09,
4315,-0.245,0.08,
4316,-0.26,0.09,
4317,-0.25,0.095,
4318,-0.225,0.105,
4319,-0.23,0.1,
4320,-0.24,0.085,
4321,-0.26,0.075,
4322,-0.245,0.07,
4323,-0.23,0.095,
4324,-0.21,0.09,
4325,-0.215,0.1,
4326,-0.215,0.085,
4327,-0.225,0.075,
4328,-0.215,0.08,
4329,-0.22,0.1,
4330,-0.215,0.09,
4331,-0.2,0.095,
4332,-0.21,0.075,
4333,-0.215,0.075,
4334,-0.21,0.085,
4335,-0.2,0.09,
4336,-0.195,0.12,
4337,-0.175,0.12,
4338,-0.19,0.12,
4339,-0.215,0.095,
4340,-0.225,0.105,
4341,-0.205,0.135,
4342,-0.195,0.14,
4343,-0.2,0.14,
4344,-0.2,0.12,
4345,-0.195,0.12,
4346,-0.17,0.13,
4347,-0.165,0.135,
4348,-0.14,0.125,
4349,-0.13,0.11,
4350,-0.135,0.1,
4351,-0.15,0.09,
4352,-0.16,0.1,
4353,-0.15,0.125,
4354,-0.13,0.125,
4355,-0.135,0.125,
4356,-0.155,0.105,
4357,-0.175,0.08,
4358,-0.175,0.09,
4359,-0.2,0.08,
4360,-0.17,0.11,
4361,-0.16,0.095,
4362,-0.175,0.085,
4363,-0.2,0.065,
4364,-0.205,0.075,
4365,-0.205,0.08,
4366,-0.18,0.095,
4367,-0.19,0.08,
4368,-0.19,0.075,
4369,-0.2,0.06,
4370,-0.215,0.085,
4371,-0.19,0.09,
4372,-0.19,0.09,
4373,-0.185,0.09,
4374,-0.18,0.065,
4375,-0.18,0.045,
4376,-0.195,0.07,
4377,-0.175,0.085,
4378,-0.165,0.09,
4379,-0.16,0.08,
4380,-0.175,0.08,
4381,-0.18,0.08,
4382,-0.185,0.11,
4383,-0.16,0.13,
4384,-0.135,0.13,
4385,-0.12,0.12,
4386,-0.085,0.05,
4387,-0.085,-0.03,
4388,-0.045,-0.14,
4389,-0.01,-0.265,
4390,0.06,-0.405,
4391,0.16,-0.565,
4392,0.275,-0.735,
4393,0.39,-0.91,
4394,0.555,-1.01,
4395,0.72,-1.015,
4396,0.875,-0.98,
4397,1.015,-0.89,
4398,1.135,-0.79,
4399,1.255,-0.655,
4400,1.34,-0.49,N
4401,1.34,-0.32,
4402,1.24,-0.17,
4403,1.035,-0.045,
4404,0.765,0.01,
4405,0.53,0.025,
4406,0.315,0.025,
4407,0.145,0.015,
4408,0.015,-0.005,
4409,-0.09,0.005,
4410,-0.145,0.015,
4411,-0.15,0.035,
4412,-0.125,0.05,
4413,-0.115,0.08,
4414,-0.11,0.1,
4415,-0.135,0.095,
4416,-0.145,0.075,
4417,-0.185,0.075,
4418,-0.18,0.085,
4419,-0.185,0.095,
4420,-0.18,0.115,
4421,-0.18,0.115,
4422,-0.22,0.11,
4423,-0.23,0.1,
4424,-0.235,0.09,
4425,-0.23,0.115,
4426,-0.23,0.125,
4427,-0.225,0.11,
4428,-0.235,0.105,
4429,-0.245,0.09,
4430,-0.245,0.095,
4431,-0.245,0.12,
4432,-0.225,0.13,
4433,-0.22,0.115,
4434,-0.23,0.105,
4435,-0.255,0.1,
4436,-0.265,0.095,
4437,-0.25,0.115,
4438,-0.23,0.125,
4439,-0.225,0.14,
4440,-0.235,0.105,
4441,-0.245,0.1,
4442,-0.25,0.11,
4443,-0.25,0.12,
4444,-0.225,0.12,
4445,-0.215,0.12,
4446,-0.23,0.1,
4447,-0.245,0.09,
4448,-0.26,0.1,
4449,-0.225,0.1,
4450,-0.23,0.11,
4451,-0.215,0.105,
4452,-0.215,0.095,
4453,-0.235,0.095,
4454,-0.235,0.085,
4455,-0.22,0.105,
4456,-0.205,0.1,
4457,-0.21,0.095,
4458,-0.205,0.09,
4459,-0.2,0.075,
4460,-0.19,0.08,
4461,-0.19,0.09,
4462,-0.17,0.1,
4463,-0.175,0.09,
4464,-0.155,0.07,
4465,-0.175,0.055,
4466,-0.17,0.07,
4467,-0.155,0.075,
4468,-0.13,0.07,
4469,-0.135,0.065,
4470,-0.12,0.045,
4471,-0.13,0.03,
4472,-0.14,0.04,
4473,-0.11,0.055,
4474,-0.075,0.055,
4475,-0.06,0.055,
4476,-0.055,0.03,
4477,-0.055,0.02,
4478,-0.04,0.005,
4479,-0.03,0.02,
4480,-0.01,0.03,
4481,0.01,0.025,
4482,0.01,0.005,
4483,0.01,0.0,
4484,0.01,0.0,
4485,0.035,-0.005,
4486,0.065,0.01,
4487,0.075,-0.005,
4488,0.065,-0.025,
4489,0.06,-0.03,
4490,0.075,-0.01,
4491,0.1,-0.01,
4492,0.105,0.005,
4493,0.135,0.0,
4494,0.125,-0.015,
4495,0.12,-0.03,
4496,0.115,-0.01,
4497,0.13,0.015,
4498,0.14,0.025,
4499,0.115,0.035,
4500,0.095,0.025,
4501,0.065,0.005,
4502,0.055,0.035,
4503,0.065,0.055,
4504,0.045,0.075,
4505,0.025,0.07,
4506,0.0,0.07,
4507,-0.04,0.06,
4508,-0.065,0.08,
4509,-0.08,0.095,
4510,-0.09,0.105,
4511,-0.09,0.09,
4512,-0.105,0.09,
4513,-0.14,0.085,
4514,-0.155,0.08,
4515,-0.17,0.1,
4516,-0.17,0.105,
4517,-0.175,0.12,
4518,-0.19,0.1,
4519,-0.23,0.095,
4520,-0.23,0.09,
4521,-0.235,0.115,
4522,-0.22,0.125,
4523,-0.23,0.115,
4524,-0.235,0.09,
4525,-0.25,0.095,
4526,-0.26,0.09,
4527,-0.255,0.105,
4528,-0.255,0.12,
4529,-0.255,0.105,
4530,-0.265,0.09,
4531,-0.27,0.095,
4532,-0.27,0.095,
4533,-0.27,0.105,
4534,-0.27,0.115,
4535,-0.245,0.12,
4536,-0.25,0.12,
4537,-0.26,0.085,
4538,-0.27,0.105,
4539,-0.27,0.12,
4540,-0.255,0.135,
4541,-0.245,0.145,
4542,-0.26,0.11,
4543,-0.275,0.105,
4544,-0.27,0.105,
4545,-0.275,0.12,
4546,-0.27,0.14,
4547,-0.265,0.125,
4548,-0.275,0.105,
4549,-0.275,0.105,
4550,-0.285,0.115,
4551,-0.265,0.125,
4552,-0.25,0.135,
4553,-0.25,0.135,
4554,-0.255,0.115,
4555,-0.275,0.12,
4556,-0.265,0.115,
4557,-0.255,0.13,
4558,-0.24,0.135,
4559,-0.235,0.13,
4560,-0.25,0.12,
4561,-0.275,0.105,
4562,-0.27,0.115,
4563,-0.265,0.125,
4564,-0.255,0.135,
4565,-0.245,0.125,
4566,-0.25,0.11,
4567,-0.275,0.11,
4568,-0.27,0.1,
4569,-0.26,0.125,
4570,-0.25,0.135,
4571,-0.25,0.125,
4572,-0.25,0.115,
4573,-0.27,0.1,
4574,-0.275,0.115,
4575,-0.265,0.125,
4576,-0.255,0.14,
4577,-0.26,0.13,
4578,-0.265,0.115,
4579,-0.27,0.11,
4580,-0.275,0.12,
4581,-0.28,0.13,
4582,-0.255,0.135,
4583,-0.255,0.125,
4584,-0.26,0.13,
4585,-0.265,0.11,
4586,-0.275,0.115,
4587,-0.255,0.135,
4588,-0.25,0.14,
4589,-0.235,0.135,
4590,-0.255,0.135,
4591,-0.265,0.12,
4592,-0.27,0.12,
4593,-0.26,0.13,
4594,-0.235,0.14,
4595,-0.255,0.145,
4596,-0.255,0.125,
4597,-0.265,0.11,
4598,-0.285,0.115,
4599,-0.26,0.14,
4600,-0.255,0.15,
4601,-0.235,0.15,
4602,-0.245,0.13,
4603,-0.27,0.12,
4604,-0.27,0.12,
4605,-0.255,0.145,
4606,-0.255,0.145,
4607,-0.245,0.14,
4608,-0.255,0.125,
4609,-0.275,0.11,
4610,-0.275,0.125,
4611,-0.265,0.135,
4612,-0.245,0.14,
4613,-0.245,0.125,
4614,-0.26,0.125,
4615,-0.26,0.11,
4616,-0.27,0.115,
4617,-0.265,0.13,
4618,-0.26,0.135,
4619,-0.245,0.135,
4620,-0.265,0.12,
4621,-0.28,0.105,
4622,-0.28,0.115,
4623,-0.255,0.125,
4624,-0.26,0.15,
4625,-0.265,0.135,
4626,-0.265,0.115,
4627,-0.285,0.105,
4628,-0.28,0.11,
4629,-0.26,0.125,
4630,-0.255,0.13,
4631,-0.26,0.12,
4632,-0.265,0.115,
4633,-0.28,0.11,
4634,-0.28,0.105,
4635,-0.27,0.13,
4636,-0.255,0.135,
4637,-0.26,0.13,
4638,-0.265,0.11,
4639,-0.305,0.105,
4640,-0.295,0.115,
4641,-0.285,0.125,
4642,-0.26,0.125,
4643,-0.265,0.125,
4644,-0.265,0.1,
4645,-0.285,0.11,
4646,-0.275,0.11,
4647,-0.275,0.12,
4648,-0.25,0.12,
4649,-0.25,0.12,
4650,-0.255,0.105,
4651,-0.27,0.095,
4652,-0.275,0.11,
4653,-0.28,0.125,
4654,-0.27,0.135,
4655,-0.255,0.125,
4656,-0.27,0.11,
4657,-0.275,0.1,
4658,-0.27,0.105,
4659,-0.265,0.115,
4660,-0.26,0.12,
4661,-0.255,0.12,
4662,-0.255,0.115,
4663,-0.275,0.1,
4664,-0.285,0.115,
4665,-0.27,0.13,
4666,-0.26,0.135,
4667,-0.245,0.12,
4668,-0.26,0.11,
4669,-0.27,0.095,
4670,-0.275,0.12,
4671,-0.27,0.125,
4672,-0.255,0.13,
4673,-0.25,0.13,
4674,-0.26,0.12,
4675,-0.265,0.105,
4676,-0.27,0.105,
4677,-0.27,0.12,
4678,-0.245,0.135,
4679,-0.25,0.125,
4680,-0.265,0.115,
4681,-0.265,0.105,
4682,-0.27,0.115,
4683,-0.255,0.12,
4684,-0.245,0.125,
4685,-0.25,0.12,
4686,-0.255,0.115,
4687,-0.28,0.095,
4688,-0.27,0.11,
4689,-0.275,0.125,
4690,-0.25,0.14,
4691,-0.245,0.13,
4692,-0.25,0.11,
4693,-0.28,0.11,
4694,-0.285,0.11,
4695,-0.27,0.12,
4696,-0.245,0.12,
4697,-0.24,0.125,
4698,-0.27,0.11,
4699,-0.27,0.1,
4700,-0.28,0.1,
4701,-0.265,0.11,
4702,-0.27,0.145,
4703,-0.275,0.115,
4704,-0.27,0.11,
4705,-0.275,0.105,
4706,-0.28,0.11,
4707,-0.26,0.125,
4708,-0.255,0.12,
4709,-0.255,0.12,
4710,-0.255,0.11,
4711,-0.28,0.105,
4712,-0.27,0.11,
4713,-0.255,0.115,
4714,-0.255,0.14,
4715,-0.24,0.13,
4716,-0.27,0.115,
4717,-0.275,0.1,
4718,-0.28,0.105,
4719,-0.27,0.11,
4720,-0.265,0.125,
4721,-0.255,0.12,
4722,-0.265,0.115,
4723,-0.275,0.085,
4724,-0.275,0.09,
4725,-0.27,0.105,
4726,-0.26,0.12,
4727,-0.265,0.095,
4728,-0.265,0.085,
4729,-0.285,0.08,
4730,-0.29,0.085,
4731,-0.27,0.095,
4732,-0.24,0.105,
4733,-0.255,0.11,
4734,-0.255,0.1,
4735,-0.255,0.1,
4736,-0.255,0.125,
4737,-0.25,0.15,
4738,-0.24,0.165,
4739,-0.25,0.16,
4740,-0.26,0.145,
4741,-0.265,0.135,
4742,-0.27,0.145,
4743,-0.245,0.15,
4744,-0.21,0.155,
4745,-0.2,0.14,
4746,-0.19,0.12,
4747,-0.2,0.12,
4748,-0.195,0.11,
4749,-0.195,0.13,
4750,-0.175,0.14,
4751,-0.17,0.135,
4752,-0.17,0.12,
4753,-0.195,0.115,
4754,-0.19,0.125,
4755,-0.185,0.135,
4756,-0.185,0.135,
4757,-0.185,0.13,
4758,-0.195,0.115,
4759,-0.22,0.105,
4760,-0.23,0.105,
4761,-0.23,0.12,
4762,-0.225,0.125,
4763,-0.225,0.125,
4764,-0.245,0.12,
4765,-0.245,0.11,
4766,-0.255,0.115,
4767,-0.24,0.12,
4768,-0.22,0.13,
4769,-0.215,0.12,
4770,-0.23,0.11,
4771,-0.23,0.095,
4772,-0.25,0.1,
4773,-0.23,0.12,
4774,-0.23,0.12,
4775,-0.205,0.115,
4776,-0.215,0.105,
4777,-0.23,0.095,
4778,-0.23,0.095,
4779,-0.215,0.135,
4780,-0.19,0.14,
4781,-0.205,0.165,
4782,-0.215,0.155,
4783,-0.2,0.15,
4784,-0.19,0.15,
4785,-0.155,0.135,
4786,-0.11,0.055,
4787,-0.095,-0.04,
4788,-0.06,-0.16,
4789,-0.04,-0.275,
4790,0.05,-0.41,
4791,0.175,-0.53,
4792,0.305,-0.67,
4793,0.425,-0.815,
4794,0.565,-0.915,
4795,0.685,-0.94,
4796,0.81,-0.89,
4797,0.93,-0.82,
4798,1.05,-0.71,
4799,1.17,-0.575,N
4800,1.215,-0.43,
4801,1.17,-0.27,
4802,1.06,-0.14,
4803,0.895,-0.025,
4804,0.7,0.03,
4805,0.49,0.045,
4806,0.29,0.01,
4807,0.11,0.0,
4808,-0.015,0.03,
4809,-0.1,0.06,
4810,-0.125,0.1,
4811,-0.11,0.115,
4812,-0.115,0.11,
4813,-0.145,0.11,
4814,-0.16,0.13,
4815,-0.205,0.135,
4816,-0.2,0.17,
4817,-0.2,0.155,
4818,-0.23,0.15,
4819,-0.25,0.13,
4820,-0.26,0.145,
4821,-0.255,0.16,
4822,-0.245,0.18,
4823,-0.25,0.18,
4824,-0.26,0.15,
4825,-0.275,0.15,
4826,-0.285,0.155,
4827,-0.27,0.16,
4828,-0.265,0.175,
4829,-0.26,0.17,
4830,-0.29,0.155,
4831,-0.3,0.155,
4832,-0.3,0.16,
4833,-0.29,0.175,
4834,-0.275,0.185,
4835,-0.265,0.185,
4836,-0.275,0.15,
4837,-0.28,0.145,
4838,-0.29,0.155,
4839,-0.285,0.175,
4840,-0.26,0.185,
4841,-0.25,0.185,
4842,-0.27,0.16,
4843,-0.275,0.16,
4844,-0.29,0.15,
4845,-0.265,0.175,
4846,-0.26,0.17,
4847,-0.255,0.165,
4848,-0.27,0.15,
4849,-0.255,0.14,
4850,-0.26,0.145,
4851,-0.245,0.15,
4852,-0.25,0.165,
4853,-0.225,0.155,
4854,-0.23,0.145,
4855,-0.245,0.13,
4856,-0.245,0.135,
4857,-0.235,0.145,
4858,-0.215,0.155,
4859,-0.2,0.155,
4860,-0.205,0.135,
4861,-0.21,0.12,
4862,-0.205,0.125,
4863,-0.205,0.145,
4864,-0.18,0.155,
4865,-0.17,0.13,
4866,-0.175,0.11,
4867,-0.19,0.1,
4868,-0.18,0.11,
4869,-0.17,0.115,
4870,-0.135,0.135,
4871,-0.135,0.115,
4872,-0.115,0.1,
4873,-0.12,0.095,
4874,-0.115,0.09,
4875,-0.095,0.085,
4876,-0.07,0.095,
4877,-0.05,0.1,
4878,-0.055,0.065,
4879,-0.07,0.055,
4880,-0.045,0.065,
4881,-0.02,0.055,
4882,0.01,0.07,
4883,0.01,0.05,
4884,0.025,0.055,
4885,0.015,0.04,
4886,0.03,0.035,
4887,0.05,0.045,
4888,0.075,0.06,
4889,0.085,0.045,
4890,0.09,0.025,
4891,0.09,0.02,
4892,0.1,0.04,
4893,0.105,0.055,
4894,0.12,0.07,
4895,0.13,0.06,
4896,0.11,0.055,
4897,0.11,0.055,
4898,0.09,0.065,
4899,0.085,0.075,
4900,0.08,0.105,
4901,0.075,0.11,
4902,0.06,0.095,
4903,0.015,0.095,
4904,0.0,0.105,
4905,-0.015,0.11,
4906,-0.03,0.13,
4907,-0.045,0.13,
4908,-0.07,0.115,
4909,-0.105,0.11,
4910,-0.125,0.115,
4911,-0.15,0.15,
4912,-0.14,0.155,
4913,-0.155,0.155,
4914,-0.19,0.13,
4915,-0.215,0.13,
4916,-0.23,0.13,
4917,-0.23,0.14,
4918,-0.23,0.155,
4919,-0.23,0.14,
4920,-0.245,0.135,
4921,-0.275,0.115,
4922,-0.28,0.135,
4923,-0.265,0.135,
4924,-0.255,0.155,
4925,-0.26,0.125,
4926,-0.285,0.13,
4927,-0.29,0.125,
4928,-0.305,0.13,
4929,-0.295,0.145,
4930,-0.29,0.15,
4931,-0.285,0.145,
4932,-0.29,0.125,
4933,-0.31,0.12,
4934,-0.315,0.12,
4935,-0.33,0.135,
4936,-0.31,0.145,
4937,-0.3,0.14,
4938,-0.315,0.125,
4939,-0.315,0.11,
4940,-0.33,0.125,
4941,-0.32,0.135,
4942,-0.29,0.15,
4943,-0.29,0.145,
4944,-0.31,0.14,
4945,-0.32,0.115,
4946,-0.325,0.125,
4947,-0.31,0.135,
4948,-0.305,0.155,
4949,-0.3,0.145,
4950,-0.31,0.125,
4951,-0.31,0.125,
4952,-0.305,0.135,
4953,-0.305,0.135,
4954,-0.285,0.17,
4955,-0.28,0.15,
4956,-0.29,0.145,
4957,-0.31,0.13,
4958,-0.305,0.14,
4959,-0.295,0.16,
4960,-0.28,0.165,
4961,-0.28,0.165,
4962,-0.29,0.155,
4963,-0.3,0.145,
4964,-0.29,0.16,
4965,-0.29,0.175,
4966,-0.28,0.175,
4967,-0.28,0.175,
4968,-0.28,0.16,
4969,-0.3,0.15,
4970,-0.29,0.155,
4971,-0.27,0.18,
4972,-0.27,0.175,
4973,-0.26,0.175,
4974,-0.27,0.17,
4975,-0.295,0.14,
4976,-0.3,0.155,
4977,-0.285,0.165,
4978,-0.275,0.17,
4979,-0.265,0.17,
4980,-0.275,0.155,
4981,-0.305,0.145,
4982,-0.31,0.155,
4983,-0.295,0.155,
4984,-0.275,0.175,
4985,-0.28,0.17,
4986,-0.285,0.17,
4987,-0.3,0.14,
4988,-0.3,0.15,
4989,-0.295,0.165,
4990,-0.29,0.175,
4991,-0.28,0.17,
4992,-0.295,0.155,
4993,-0.31,0.135,
4994,-0.315,0.155,
4995,-0.31,0.155,
4996,-0.295,0.165,
4997,-0.295,0.17,
4998,-0.29,0.145,
4999,-0.305,0.135,
5000,-0.31,0.145,
5001,-0.31,0.155,
5002,-0.31,0.165,
5003,-0.31,0.16,
5004,-0.33,0.13,
5005,-0.345,0.14,
5006,-0.345,0.14,
5007,-0.32,0.155,
5008,-0.32,0.16,
5009,-0.32,0.16,
5010,-0.335,0.15,
5011,-0.335,0.13,
5012,-0.35,0.135,
5013,-0.335,0.155,
5014,-0.32,0.175,
5015,-0.325,0.16,
5016,-0.325,0.155,
5017,-0.335,0.14,
5018,-0.35,0.125,
5019,-0.35,0.14,
5020,-0.335,0.165,
5021,-0.33,0.15,
5022,-0.34,0.135,
5023,-0.345,0.135,
5024,-0.345,0.13,
5025,-0.35,0.145,
5026,-0.345,0.155,
5027,-0.335,0.14,
5028,-0.34,0.135,
5029,-0.35,0.14,
5030,-0.365,0.14,
5031,-0.35,0.125,
5032,-0.35,0.16,
5033,-0.335,0.135,
5034,-0.35,0.14,
5035,-0.355,0.115,
5036,-0.375,0.13,
5037,-0.355,0.145,
5038,-0.335,0.155,
5039,-0.345,0.145,
5040,-0.35,0.15,
5041,-0.35,0.13,
5042,-0.365,0.13,
5043,-0.35,0.14,
5044,-0.34,0.145,
5045,-0.33,0.14,
5046,-0.34,0.135,
5047,-0.36,0.125,
5048,-0.355,0.13,
5049,-0.345,0.135,
5050,-0.33,0.15,
5051,-0.345,0.13,
5052,-0.345,0.125,
5053,-0.345,0.1,
5054,-0.345,0.115,
5055,-0.35,0.13,
5056,-0.325,0.14,
5057,-0.32,0.135,
5058,-0.335,0.12,
5059,-0.345,0.105,
5060,-0.36,0.11,
5061,-0.35,0.125,
5062,-0.335,0.135,
5063,-0.335,0.115,
5064,-0.34,0.1,
5065,-0.36,0.095,
5066,-0.355,0.105,
5067,-0.35,0.125,
5068,-0.335,0.125,
5069,-0.335,0.125,
5070,-0.345,0.125,
5071,-0.36,0.11,
5072,-0.36,0.11,
5073,-0.335,0.11,
5074,-0.32,0.12,
5075,-0.33,0.105,
5076,-0.345,0.095,
5077,-0.36,0.08,
5078,-0.36,0.1,
5079,-0.34,0.12,
5080,-0.34,0.115,
5081,-0.325,0.115,
5082,-0.33,0.1,
5083,-0.335,0.095,
5084,-0.345,0.1,
5085,-0.335,0.125,
5086,-0.325,0.13,
5087,-0.325,0.125,
5088,-0.325,0.105,
5089,-0.345,0.09,
5090,-0.34,0.105,
5091,-0.345,0.12,
5092,-0.335,0.125,
5093,-0.31,0.115,
5094,-0.33,0.11,
5095,-0.35,0.095,
5096,-0.35,0.105,
5097,-0.33,0.115,
5098,-0.3,0.135,
5099,-0.31,0.115,
5100,-0.31,0.1,
5101,-0.325,0.105,
5102,-0.32,0.12,
5103,-0.32,0.125,
5104,-0.305,0.125,
5105,-0.305,0.12,
5106,-0.325,0.105,
5107,-0.32,0.095,
5108,-0.325,0.105,
5109,-0.31,0.11,
5110,-0.315,0.12,
5111,-0.29,0.12,
5112,-0.295,0.105,
5113,-0.315,0.1,
5114,-0.31,0.1,
5115,-0.3,0.13,
5116,-0.315,0.14,
5117,-0.29,0.13,
5118,-0.295,0.11,
5119,-0.315,0.11,
5120,-0.315,0.115,
5121,-0.305,0.125,
5122,-0.29,0.12,
5123,-0.29,0.12,
5124,-0.305,0.11,
5125,-0.3,0.09,
5126,-0.31,0.1,
5127,-0.305,0.12,
5128,-0.29,0.13,
5129,-0.28,0.12,
5130,-0.285,0.09,
5131,-0.305,0.1,
5132,-0.29,0.12,
5133,-0.295,0.145,
5134,-0.28,0.16,
5135,-0.275,0.16,
5136,-0.285,0.145,
5137,-0.29,0.14,
5138,-0.295,0.15,
5139,-0.3,0.155,
5140,-0.27,0.16,
5141,-0.255,0.145,
5142,-0.27,0.145,
5143,-0.255,0.135,
5144,-0.255,0.13,
5145,-0.245,0.145,
5146,-0.22,0.155,
5147,-0.205,0.145,
5148,-0.22,0.125,
5149,-0.235,0.105,
5150,-0.23,0.11,
5151,-0.21,0.125,
5152,-0.205,0.145,
5153,-0.21,0.125,
5154,-0.22,0.12,
5155,-0.24,0.09,
5156,-0.24,0.095,
5157,-0.25,0.1,
5158,-0.24,0.115,
5159,-0.245,0.11,
5160,-0.25,0.09,
5161,-0.28,0.08,
5162,-0.295,0.075,
5163,-0.3,0.085,
5164,-0.28,0.105,
5165,-0.275,0.105,
5166,-0.27,0.085,
5167,-0.285,0.07,
5168,-0.285,0.08,
5169,-0.29,0.07,
5170,-0.275,0.095,
5171,-0.27,0.08,
5172,-0.275,0.07,
5173,-0.29,0.055,
5174,-0.285,0.085,
5175,-0.275,0.095,
5176,-0.25,0.095,
5177,-0.245,0.09,
5178,-0.255,0.08,
5179,-0.26,0.07,
5180,-0.265,0.09,
5181,-0.24,0.125,
5182,-0.215,0.16,
5183,-0.205,0.14,
5184,-0.2,0.11,
5185,-0.185,0.065,
5186,-0.15,-0.01,
5187,-0.12,-0.1,
5188,-0.065,-0.205,
5189,-0.02,-0.37,
5190,0.04,-0.54,
5191,0.115,-0.7,
5192,0.22,-0.85,
5193,0.36,-0.96,
5194,0.525,-1.025,
5195,0.655,-1.045,
5196,0.77,-1.005,
5197,0.865,-0.935,
5198,0.995,-0.805,
5199,1.125,-0.66,
5200,1.195,-0.49,N
5201,1.195,-0.335,
5202,1.11,-0.215,
5203,0.945,-0.105,
5204,0.725,-0.005,
5205,0.51,0.06,
5206,0.335,0.06,
5207,0.175,0.025,
5208,0.025,0.0,
5209,-0.095,0.0,
5210,-0.15,0.025,
5211,-0.17,0.06,
5212,-0.155,0.09,
5213,-0.15,0.1,
5214,-0.165,0.09,
5215,-0.195,0.09,
5216,-0.195,0.095,
5217,-0.215,0.115,
5218,-0.21,0.135,
5219,-0.22,0.13,
5220,-0.255,0.115,
5221,-0.28,0.105,
5222,-0.295,0.105,
5223,-0.285,0.105,
5224,-0.28,0.12,
5225,-0.275,0.11,
5226,-0.28,0.11,
5227,-0.31,0.11,
5228,-0.32,0.12,
5229,-0.305,0.13,
5230,-0.29,0.135,
5231,-0.3,0.13,
5232,-0.295,0.125,
5233,-0.315,0.12,
5234,-0.315,0.115,
5235,-0.32,0.14,
5236,-0.29,0.15,
5237,-0.295,0.14,
5238,-0.285,0.125,
5239,-0.315,0.11,
5240,-0.31,0.12,
5241,-0.305,0.13,
5242,-0.3,0.135,
5243,-0.305,0.135,
5244,-0.305,0.12,
5245,-0.315,0.11,
5246,-0.32,0.115,
5247,-0.31,0.125,
5248,-0.285,0.13,
5249,-0.285,0.12,
5250,-0.29,0.115,
5251,-0.305,0.095,
5252,-0.305,0.09,
5253,-0.3,0.125,
5254,-0.29,0.13,
5255,-0.28,0.12,
5256,-0.28,0.105,
5257,-0.3,0.1,
5258,-0.29,0.095,
5259,-0.285,0.105,
5260,-0.275,0.12,
5261,-0.26,0.115,
5262,-0.255,0.11,
5263,-0.25,0.09,
5264,-0.26,0.095,
5265,-0.245,0.11,
5266,-0.235,0.125,
5267,-0.235,0.115,
5268,-0.22,0.105,
5269,-0.23,0.075,
5270,-0.23,0.09,
5271,-0.21,0.085,
5272,-0.185,0.105,
5273,-0.16,0.095,
5274,-0.165,0.065,
5275,-0.165,0.06,
5276,-0.17,0.075,
5277,-0.15,0.075,
5278,-0.12,0.08,
5279,-0.115,0.06,
5280,-0.105,0.06,
5281,-0.105,0.055,
5282,-0.09,0.055,
5283,-0.075,0.045,
5284,-0.055,0.045,
5285,-0.035,0.045,
5286,-0.035,0.03,
5287,-0.04,0.015,
5288,-0.03,0.025,
5289,-0.02,0.03,
5290,0.0,0.045,
5291,0.03,0.02,
5292,0.025,0.015,
5293,0.02,0.02,
5294,0.03,0.01,
5295,0.06,0.035,
5296,0.085,0.045,
5297,0.085,0.045,
5298,0.07,0.03,
5299,0.06,0.03,
5300,0.06,0.045,
5301,0.07,0.055,
5302,0.085,0.085,
5303,0.085,0.07,
5304,0.07,0.065,
5305,0.03,0.065,
5306,0.02,0.08,
5307,0.005,0.1,
5308,0.005,0.115,
5309,-0.01,0.11,
5310,-0.04,0.1,
5311,-0.07,0.105,
5312,-0.085,0.115,
5313,-0.095,0.125,
5314,-0.105,0.135,
5315,-0.13,0.135,
5316,-0.14,0.135,
5317,-0.185,0.115,
5318,-0.2,0.115,
5319,-0.205,0.115,
5320,-0.22,0.135,
5321,-0.23,0.135,
5322,-0.265,0.13,
5323,-0.27,0.11,
5324,-0.285,0.125,
5325,-0.295,0.135,
5326,-0.28,0.145,
5327,-0.285,0.14,
5328,-0.295,0.12,
5329,-0.32,0.115,
5330,-0.32,0.13,
5331,-0.315,0.145,
5332,-0.3,0.155,
5333,-0.315,0.145,
5334,-0.325,0.125,
5335,-0.345,0.12,
5336,-0.345,0.12,
5337,-0.345,0.125,
5338,-0.32,0.145,
5339,-0.32,0.13,
5340,-0.34,0.125,
5341,-0.34,0.105,
5342,-0.35,0.125,
5343,-0.34,0.13,
5344,-0.325,0.145,
5345,-0.325,0.14,
5346,-0.33,0.135,
5347,-0.33,0.115,
5348,-0.34,0.13,
5349,-0.34,0.145,
5350,-0.325,0.15,
5351,-0.325,0.125,
5352,-0.32,0.12,
5353,-0.345,0.13,
5354,-0.34,0.13,
5355,-0.335,0.145,
5356,-0.31,0.16,
5357,-0.31,0.145,
5358,-0.31,0.135,
5359,-0.335,0.11,
5360,-0.335,0.125,
5361,-0.32,0.13,
5362,-0.32,0.15,
5363,-0.31,0.14,
5364,-0.32,0.13,
5365,-0.33,0.125,
5366,-0.32,0.125,
5367,-0.34,0.145,
5368,-0.305,0.155,
5369,-0.3,0.145,
5370,-0.31,0.12,
5371,-0.33,0.11,
5372,-0.32,0.12,
5373,-0.32,0.13,
5374,-0.295,0.15,
5375,-0.305,0.13,
5376,-0.315,0.125,
5377,-0.325,0.11,
5378,-0.325,0.115,
5379,-0.33,0.125,
5380,-0.305,0.135,
5381,-0.3,0.145,
5382,-0.305,0.13,
5383,-0.335,0.11,
5384,-0.34,0.125,
5385,-0.325,0.13,
5386,-0.31,0.145,
5387,-0.305,0.14,
5388,-0.32,0.125,
5389,-0.335,0.11,
5390,-0.335,0.12,
5391,-0.335,0.14,
5392,-0.305,0.145,
5393,-0.3,0.14,
5394,-0.32,0.135,
5395,-0.335,0.125,
5396,-0.33,0.125,
5397,-0.32,0.125,
5398,-0.31,0.15,
5399,-0.305,0.135,
5400,-0.315,0.12,
5401,-0.34,0.115,
5402,-0.325,0.115,
5403,-0.33,0.13,
5404,-0.315,0.155,
5405,-0.31,0.145,
5406,-0.31,0.135,
5407,-0.32,0.105,
5408,-0.345,0.13,
5409,-0.33,0.13,
5410,-0.31,0.15,
5411,-0.305,0.14,
5412,-0.325,0.14,
5413,-0.32,0.13,
5414,-0.32,0.13,
5415,-0.3,0.13,
5416,-0.305,0.15,
5417,-0.295,0.14,
5418,-0.3,0.12,
5419,-0.335,0.12,
5420,-0.35,0.125,
5421,-0.33,0.135,
5422,-0.315,0.155,
5423,-0.305,0.155,
5424,-0.31,0.12,
5425,-0.325,0.115,
5426,-0.33,0.12,
5427,-0.32,0.13,
5428,-0.31,0.13,
5429,-0.305,0.125,
5430,-0.305,0.11,
5431,-0.33,0.105,
5432,-0.335,0.13,
5433,-0.32,0.135,
5434,-0.31,0.155,
5435,-0.295,0.125,
5436,-0.3,0.11,
5437,-0.325,0.11,
5438,-0.335,0.115,
5439,-0.315,0.13,
5440,-0.315,0.135,
5441,-0.3,0.135,
5442,-0.31,0.125,
5443,-0.32,0.105,
5444,-0.33,0.125,
5445,-0.315,0.13,
5446,-0.295,0.14,
5447,-0.295,0.125,
5448,-0.32,0.105,
5449,-0.32,0.1,
5450,-0.325,0.115,
5451,-0.315,0.13,
5452,-0.305,0.135,
5453,-0.29,0.135,
5454,-0.3,0.115,
5455,-0.31,0.11,
5456,-0.315,0.105,
5457,-0.305,0.12,
5458,-0.3,0.125,
5459,-0.305,0.125,
5460,-0.3,0.12,
5461,-0.33,0.1,
5462,-0.325,0.105,
5463,-0.315,0.115,
5464,-0.305,0.12,
5465,-0.295,0.12,
5466,-0.305,0.11,
5467,-0.335,0.1,
5468,-0.335,0.1,
5469,-0.315,0.12,
5470,-0.3,0.135,
5471,-0.3,0.125,
5472,-0.305,0.11,
5473,-0.315,0.105,
5474,-0.33,0.115,
5475,-0.315,0.12,
5476,-0.285,0.125,
5477,-0.29,0.12,
5478,-0.32,0.105,
5479,-0.325,0.105,
5480,-0.335,0.105,
5481,-0.295,0.115,
5482,-0.29,0.14,
5483,-0.285,0.12,
5484,-0.29,0.1,
5485,-0.31,0.095,
5486,-0.3,0.095,
5487,-0.295,0.115,
5488,-0.285,0.12,
5489,-0.275,0.12,
5490,-0.295,0.09,
5491,-0.3,0.08,
5492,-0.3,0.095,
5493,-0.285,0.11,
5494,-0.27,0.13,
5495,-0.275,0.11,
5496,-0.285,0.105,
5497,-0.295,0.095,
5498,-0.305,0.095,
5499,-0.285,0.1,
5500,-0.275,0.115,
5501,-0.285,0.1,
5502,-0.29,0.08,
5503,-0.31,0.075,
5504,-0.3,0.105,
5505,-0.31,0.12,
5506,-0.275,0.115,
5507,-0.265,0.115,
5508,-0.265,0.1,
5509,-0.285,0.095,
5510,-0.29,0.1,
5511,-0.29,0.115,
5512,-0.275,0.115,
5513,-0.27,0.105,
5514,-0.265,0.09,
5515,-0.28,0.08,
5516,-0.285,0.085,
5517,-0.275,0.11,
5518,-0.27,0.115,
5519,-0.27,0.11,
5520,-0.275,0.09,
5521,-0.285,0.085,
5522,-0.275,0.085,
5523,-0.27,0.11,
5524,-0.27,0.115,
5525,-0.255,0.105,
5526,-0.275,0.09,
5527,-0.29,0.085,
5528,-0.29,0.085,
5529,-0.285,0.09,
5530,-0.275,0.12,
5531,-0.26,0.1,
5532,-0.275,0.09,
5533,-0.28,0.075,
5534,-0.28,0.08,
5535,-0.28,0.085,
5536,-0.28,0.105,
5537,-0.275,0.085,
5538,-0.265,0.075,
5539,-0.285,0.065,
5540,-0.285,0.075,
5541,-0.275,0.09,
5542,-0.255,0.105,
5543,-0.26,0.105,
5544,-0.27,0.105,
5545,-0.285,0.095,
5546,-0.285,0.105,
5547,-0.275,0.125,
5548,-0.265,0.135,
5549,-0.26,0.125,
5550,-0.265,0.135,
5551,-0.28,0.115,
5552,-0.29,0.115,
5553,-0.26,0.125,
5554,-0.24,0.125,
5555,-0.22,0.125,
5556,-0.22,0.115,
5557,-0.225,0.09,
5558,-0.22,0.09,
5559,-0.2,0.105,
5560,-0.19,0.12,
5561,-0.19,0.11,
5562,-0.2,0.1,
5563,-0.21,0.08,
5564,-0.215,0.095,
5565,-0.21,0.1,
5566,-0.21,0.105,
5567,-0.21,0.1,
5568,-0.23,0.085,
5569,-0.23,0.07,
5570,-0.255,0.075,
5571,-0.24,0.09,
5572,-0.23,0.1,
5573,-0.23,0.1,
5574,-0.235,0.07,
5575,-0.26,0.065,
5576,-0.265,0.075,
5577,-0.255,0.085,
5578,-0.23,0.09,
5579,-0.24,0.085,
5580,-0.245,0.06,
5581,-0.26,0.05,
5582,-0.25,0.06,
5583,-0.24,0.08,
5584,-0.23,0.1,
5585,-0.23,0.075,
5586,-0.23,0.075,
5587,-0.24,0.06,
5588,-0.245,0.07,
5589,-0.23,0.08,
5590,-0.21,0.085,
5591,-0.205,0.085,
5592,-0.2,0.095,
5593,-0.21,0.095,
5594,-0.195,0.125,
5595,-0.185,0.145,
5596,-0.16,0.17,
5597,-0.145,0.13,
5598,-0.125,0.075,
5599,-0.12,-0.01,
5600,-0.09,-0.105,
5601,-0.045,-0.195,
5602,-0.01,-0.325,
5603,0.05,-0.47,
5604,0.15,-0.63,
5605,0.23,-0.795,
5606,0.355,-0.94,
5607,0.48,-1.03,
5608,0.605,-1.055,
5609,0.735,-1.015,
5610,0.825,-0.95,
5611,0.885,-0.85,
5612,1.005,-0.68,
5613,1.08,-0.515,N
5614,1.08,-0.345,
5615,0.985,-0.2,
5616,0.825,-0.1,
5617,0.645,-0.04,
5618,0.49,0.01,
5619,0.345,0.015,
5620,0.225,-0.005,
5621,0.095,-0.01,
5622,-0.02,-0.005,
5623,-0.1,0.015,
5624,-0.14,0.035,
5625,-0.13,0.065,
5626,-0.115,0.1,
5627,-0.125,0.105,
5628,-0.145,0.1,
5629,-0.18,0.09,
5630,-0.2,0.1,
5631,-0.205,0.13,
5632,-0.205,0.13,
5633,-0.22,0.135,
5634,-0.235,0.12,
5635,-0.255,0.105,
5636,-0.255,0.125,
5637,-0.275,0.12,
5638,-0.27,0.155,
5639,-0.26,0.12,
5640,-0.27,0.11,
5641,-0.29,0.1,
5642,-0.3,0.12,
5643,-0.28,0.13,
5644,-0.285,0.145,
5645,-0.28,0.145,
5646,-0.285,0.12,
5647,-0.295,0.12,
5648,-0.295,0.115,
5649,-0.3,0.13,
5650,-0.29,0.145,
5651,-0.28,0.14,
5652,-0.295,0.13,
5653,-0.305,0.13,
5654,-0.305,0.125,
5655,-0.285,0.14,
5656,-0.275,0.16,
5657,-0.275,0.14,
5658,-0.275,0.135,
5659,-0.285,0.12,
5660,-0.29,0.13,
5661,-0.29,0.14,
5662,-0.275,0.155,
5663,-0.275,0.135,
5664,-0.275,0.125,
5665,-0.295,0.125,
5666,-0.275,0.11,
5667,-0.28,0.125,
5668,-0.27,0.13,
5669,-0.26,0.12,
5670,-0.27,0.1,
5671,-0.27,0.1,
5672,-0.27,0.1,
5673,-0.26,0.11,
5674,-0.24,0.125,
5675,-0.24,0.115,
5676,-0.27,0.095,
5677,-0.265,0.085,
5678,-0.27,0.095,
5679,-0.245,0.115,
5680,-0.235,0.105,
5681,-0.215,0.095,
5682,-0.215,0.08,
5683,-0.225,0.085,
5684,-0.21,0.075,
5685,-0.195,0.095,
5686,-0.17,0.09,
5687,-0.155,0.085,
5688,-0.17,0.08,
5689,-0.175,0.05,
5690,-0.16,0.055,
5691,-0.14,0.065,
5692,-0.11,0.075,
5693,-0.1,0.06,
5694,-0.105,0.035,
5695,-0.105,0.02,
5696,-0.105,0.02,
5697,-0.09,0.02,
5698,-0.065,0.03,
5699,-0.055,0.02,
5700,-0.045,0.0,
5701,-0.055,-0.005,
5702,-0.03,0.005,
5703,-0.015,0.015,
5704,0.015,0.01,
5705,0.03,-0.01,
5706,0.025,-0.025,
5707,0.025,-0.045,
5708,0.025,-0.035,
5709,0.045,-0.015,
5710,0.06,0.01,
5711,0.075,-0.005,
5712,0.075,-0.005,
5713,0.07,-0.02,
5714,0.06,-0.005,
5715,0.075,0.025,
5716,0.09,0.04,
5717,0.075,0.035,
5718,0.05,0.035,
5719,0.03,0.015,
5720,0.01,0.035,
5721,0.005,0.05,
5722,0.005,0.065,
5723,-0.02,0.075,
5724,-0.04,0.07,
5725,-0.07,0.05,
5726,-0.095,0.075,
5727,-0.12,0.095,
5728,-0.11,0.105,
5729,-0.125,0.105,
5730,-0.16,0.08,
5731,-0.18,0.07,
5732,-0.195,0.08,
5733,-0.205,0.095,
5734,-0.21,0.115,
5735,-0.23,0.105,
5736,-0.24,0.105,
5737,-0.26,0.105,
5738,-0.27,0.1,
5739,-0.255,0.1,
5740,-0.255,0.115,
5741,-0.255,0.115,
5742,-0.28,0.095,
5743,-0.295,0.085,
5744,-0.31,0.1,
5745,-0.3,0.1,
5746,-0.29,0.115,
5747,-0.295,0.095,
5748,-0.295,0.08,
5749,-0.315,0.08,
5750,-0.32,0.085,
5751,-0.33,0.1,
5752,-0.31,0.11,
5753,-0.315,0.105,
5754,-0.325,0.1,
5755,-0.345,0.08,
5756,-0.335,0.095,
5757,-0.34,0.09,
5758,-0.33,0.1,
5759,-0.31,0.11,
5760,-0.32,0.09,
5761,-0.335,0.085,
5762,-0.34,0.09,
5763,-0.33,0.105,
5764,-0.315,0.125,
5765,-0.315,0.11,
5766,-0.32,0.1,
5767,-0.335,0.09,
5768,-0.345,0.1,
5769,-0.33,0.1,
5770,-0.315,0.115,
5771,-0.315,0.115,
5772,-0.33,0.105,
5773,-0.34,0.095,
5774,-0.34,0.085,
5775,-0.33,0.11,
5776,-0.315,0.125,
5777,-0.32,0.115,
5778,-0.335,0.11,
5779,-0.355,0.085,
5780,-0.35,0.1,
5781,-0.34,0.115,
5782,-0.325,0.12,
5783,-0.33,0.11,
5784,-0.335,0.105,
5785,-0.355,0.09,
5786,-0.355,0.095,
5787,-0.34,0.105,
5788,-0.32,0.115,
5789,-0.32,0.11,
5790,-0.335,0.1,
5791,-0.33,0.08,
5792,-0.33,0.085,
5793,-0.325,0.095,
5794,-0.315,0.125,
5795,-0.31,0.11,
5796,-0.315,0.105,
5797,-0.33,0.09,
5798,-0.32,0.1,
5799,-0.315,0.115,
5800,-0.305,0.115,
5801,-0.295,0.1,
5802,-0.305,0.08,
5803,-0.315,0.09,
5804,-0.325,0.095,
5805,-0.315,0.105,
5806,-0.295,0.11,
5807,-0.29,0.09,
5808,-0.31,0.1,
5809,-0.315,0.085,
5810,-0.315,0.09,
5811,-0.325,0.11,
5812,-0.305,0.11,
5813,-0.29,0.105,
5814,-0.305,0.08,
5815,-0.33,0.08,
5816,-0.32,0.095,
5817,-0.32,0.09,
5818,-0.295,0.1,
5819,-0.305,0.1,
5820,-0.305,0.075,
5821,-0.33,0.08,
5822,-0.325,0.08,
5823,-0.325,0.085,
5824,-0.305,0.115,
5825,-0.3,0.095,
5826,-0.31,0.08,
5827,-0.33,0.07,
5828,-0.33,0.075,
5829,-0.325,0.09,
5830,-0.3,0.09,
5831,-0.295,0.09,
5832,-0.32,0.09,
5833,-0.335,0.075,
5834,-0.325,0.09,
5835,-0.32,0.1,
5836,-0.315,0.11,
5837,-0.315,0.095,
5838,-0.3,0.085,
5839,-0.32,0.07,
5840,-0.32,0.085,
5841,-0.305,0.09,
5842,-0.305,0.095,
5843,-0.305,0.095,
5844,-0.305,0.07,
5845,-0.335,0.06,
5846,-0.32,0.06,
5847,-0.315,0.08,
5848,-0.3,0.1,
5849,-0.305,0.085,
5850,-0.315,0.08,
5851,-0.335,0.065,
5852,-0.335,0.065,
5853,-0.31,0.085,
5854,-0.32,0.08,
5855,-0.3,0.085,
5856,-0.31,0.07,
5857,-0.32,0.06,
5858,-0.33,0.07,
5859,-0.315,0.085,
5860,-0.305,0.09,
5861,-0.3,0.08,
5862,-0.315,0.055,
5863,-0.315,0.06,
5864,-0.33,0.075,
5865,-0.325,0.09,
5866,-0.305,0.1,
5867,-0.305,0.085,
5868,-0.315,0.07,
5869,-0.315,0.07,
5870,-0.325,0.08,
5871,-0.315,0.08,
5872,-0.295,0.095,
5873,-0.29,0.08,
5874,-0.29,0.06,
5875,-0.31,0.055,
5876,-0.32,0.065,
5877,-0.32,0.07,
5878,-0.3,0.085,
5879,-0.295,0.08,
5880,-0.305,0.065,
5881,-0.32,0.055,
5882,-0.325,0.05,
5883,-0.32,0.06,
5884,-0.31,0.08,
5885,-0.305,0.07,
5886,-0.31,0.07,
5887,-0.32,0.055,
5888,-0.335,0.07,
5889,-0.33,0.07,
5890,-0.32,0.075,
5891,-0.305,0.075,
5892,-0.31,0.055,
5893,-0.33,0.045,
5894,-0.345,0.055,
5895,-0.32,0.07,
5896,-0.305,0.07,
5897,-0.3,0.06,
5898,-0.325,0.04,
5899,-0.335,0.04,
5900,-0.325,0.045,
5901,-0.315,0.075,
5902,-0.295,0.085,
5903,-0.3,0.085,
5904,-0.295,0.06,
5905,-0.31,0.05,
5906,-0.325,0.06,
5907,-0.32,0.065,
5908,-0.3,0.07,
5909,-0.315,0.07,
5910,-0.305,0.055,
5911,-0.315,0.04,
5912,-0.32,0.055,
5913,-0.31,0.05,
5914,-0.3,0.055,
5915,-0.295,0.065,
5916,-0.305,0.045,
5917,-0.325,0.055,
5918,-0.32,0.055,
5919,-0.32,0.065,
5920,-0.295,0.07,
5921,-0.285,0.05,
5922,-0.295,0.045,
5923,-0.325,0.025,
5924,-0.31,0.035,
5925,-0.305,0.055,
5926,-0.29,0.065,
5927,-0.295,0.07,
5928,-0.3,0.04,
5929,-0.315,0.03,
5930,-0.32,0.035,
5931,-0.295,0.05,
5932,-0.295,0.06,
5933,-0.3,0.05,
5934,-0.285,0.035,
5935,-0.295,0.025,
5936,-0.295,0.02,
5937,-0.29,0.035,
5938,-0.27,0.04,
5939,-0.275,0.03,
5940,-0.285,0.005,
5941,-0.295,0.01,
5942,-0.29,0.03,
5943,-0.28,0.045,
5944,-0.26,0.055,
5945,-0.265,0.04,
5946,-0.28,0.03,
5947,-0.29,0.025,
5948,-0.3,0.04,
5949,-0.295,0.06,
5950,-0.255,0.08,
5951,-0.275,0.09,
5952,-0.28,0.075,
5953,-0.285,0.07,
5954,-0.3,0.065,
5955,-0.28,0.075,
5956,-0.245,0.085,
5957,-0.245,0.085,
5958,-0.255,0.07,
5959,-0.255,0.055,
5960,-0.24,0.05,
5961,-0.23,0.055,
5962,-0.21,0.07,
5963,-0.205,0.06,
5964,-0.23,0.05,
5965,-0.255,0.045,
5966,-0.24,0.05,
5967,-0.245,0.06,
5968,-0.225,0.075,
5969,-0.23,0.05,
5970,-0.245,0.045,
5971,-0.27,0.03,
5972,-0.275,0.045,
5973,-0.28,0.055,
5974,-0.265,0.06,
5975,-0.26,0.045,
5976,-0.28,0.035,
5977,-0.285,0.025,
5978,-0.285,0.03,
5979,-0.28,0.05,
5980,-0.255,0.05,
5981,-0.26,0.05,
5982,-0.275,0.025,
5983,-0.275,0.025,
5984,-0.275,0.025,
5985,-0.265,0.045,
5986,-0.27,0.055,
5987,-0.255,0.03,
5988,-0.26,0.025,
5989,-0.27,0.025,
5990,-0.275,0.03,
5991,-0.265,0.035,
5992,-0.25,0.05,
5993,-0.255,0.03,
5994,-0.245,0.035,
5995,-0.245,0.055,
5996,-0.25,0.075,
5997,-0.23,0.105,
5998,-0.205,0.105,
5999,-0.18,0.08,
6000,-0.17,0.035,
6001,-0.145,-0.045,
6002,-0.105,-0.145,
6003,-0.08,-0.245,
6004,-0.035,-0.375,
6005,0.035,-0.515,
6006,0.125,-0.685,
6007,0.21,-0.855,
6008,0.34,-0.99,
6009,0.49,-1.08,
6010,0.635,-1.075,
6011,0.745,-1.045,
6012,0.84,-0.985,
6013,0.93,-0.875,
6014,1.06,-0.75,
6015,1.155,-0.585,N
6016,1.19,-0.45,
6017,1.13,-0.32,
6018,1.005,-0.215,
6019,0.805,-0.11,
6020,0.605,-0.035,
6021,0.42,0.0,
6022,0.26,0.0,
6023,0.1,-0.04,
6024,-0.04,-0.07,
6025,-0.145,-0.065,
6026,-0.185,-0.035,
6027,-0.18,-0.015,
6028,-0.145,0.035,
6029,-0.155,0.03,
6030,-0.175,0.025,
6031,-0.185,0.025,
6032,-0.205,0.05,
6033,-0.215,0.055,
6034,-0.22,0.075,
6035,-0.225,0.06,
6036,-0.24,0.06,
6037,-0.27,0.05,
6038,-0.29,0.055,
6039,-0.275,0.08,
6040,-0.265,0.09,
6041,-0.255,0.08,
6042,-0.28,0.07,
6043,-0.29,0.06,
6044,-0.285,0.07,
6045,-0.28,0.08,
6046,-0.275,0.095,
6047,-0.28,0.085,
6048,-0.295,0.085,
6049,-0.305,0.065,
6050,-0.3,0.06,
6051,-0.295,0.08,
6052,-0.28,0.09,
6053,-0.275,0.085,
6054,-0.285,0.07,
6055,-0.3,0.05,
6056,-0.31,0.055,
6057,-0.305,0.065,
6058,-0.28,0.085,
6059,-0.265,0.075,
6060,-0.285,0.055,
6061,-0.3,0.045,
6062,-0.295,0.06,
6063,-0.28,0.065,
6064,-0.265,0.075,
6065,-0.26,0.07,
6066,-0.265,0.06,
6067,-0.275,0.045,
6068,-0.275,0.05,
6069,-0.27,0.06,
6070,-0.265,0.065,
6071,-0.265,0.07,
6072,-0.255,0.04,
6073,-0.275,0.04,
6074,-0.27,0.045,
6075,-0.25,0.04,
6076,-0.24,0.055,
6077,-0.23,0.05,
6078,-0.23,0.035,
6079,-0.245,0.02,
6080,-0.245,0.035,
6081,-0.24,0.015,
6082,-0.2,0.035,
6083,-0.195,0.035,
6084,-0.195,0.015,
6085,-0.205,-0.01,
6086,-0.205,-0.005,
6087,-0.185,0.02,
6088,-0.155,0.02,
6089,-0.135,0.025,
6090,-0.14,0.0,
6091,-0.155,-0.005,
6092,-0.16,-0.005,
6093,-0.13,0.0,
6094,-0.095,0.01,
6095,-0.075,-0.005,
6096,-0.08,-0.02,
6097,-0.07,-0.035,
6098,-0.07,-0.04,
6099,-0.05,-0.025,
6100,-0.025,-0.025,
6101,-0.01,-0.03,
6102,-0.02,-0.05,
6103,-0.01,-0.06,
6104,-0.015,-0.065,
6105,0.02,-0.05,
6106,0.045,-0.04,
6107,0.05,-0.04,
6108,0.03,-0.055,
6109,0.035,-0.06,
6110,0.03,-0.055,
6111,0.07,-0.04,
6112,0.085,-0.02,
6113,0.08,-0.025,
6114,0.08,-0.04,
6115,0.04,-0.035,
6116,0.055,-0.03,
6117,0.045,-0.01,
6118,0.04,0.005,
6119,0.025,0.015,
6120,-0.005,0.01,
6121,-0.03,0.005,
6122,-0.045,0.02,
6123,-0.07,0.04,
6124,-0.06,0.035,
6125,-0.085,0.045,
6126,-0.115,0.04,
6127,-0.165,0.05,
6128,-0.18,0.055,
6129,-0.165,0.06,
6130,-0.165,0.07,
6131,-0.185,0.07,
6132,-0.2,0.06,
6133,-0.22,0.045,
6134,-0.255,0.05,
6135,-0.24,0.06,
6136,-0.24,0.075,
6137,-0.24,0.06,
6138,-0.265,0.06,
6139,-0.3,0.05,
6140,-0.3,0.05,
6141,-0.28,0.065,
6142,-0.275,0.06,
6143,-0.275,0.05,
6144,-0.28,0.04,
6145,-0.3,0.04,
6146,-0.315,0.05,
6147,-0.305,0.05,
6148,-0.28,0.07,
6149,-0.29,0.06,
6150,-0.305,0.045,
6151,-0.32,0.045,
6152,-0.31,0.06,
6153,-0.31,0.08,
6154,-0.295,0.085,
6155,-0.3,0.07,
6156,-0.31,0.055,
6157,-0.32,0.055,
6158,-0.315,0.07,
6159,-0.3,0.075,
6160,-0.29,0.09,
6161,-0.285,0.085,
6162,-0.31,0.07,
6163,-0.3,0.055,
6164,-0.315,0.07,
6165,-0.305,0.08,
6166,-0.29,0.09,
6167,-0.29,0.09,
6168,-0.29,0.08,
6169,-0.315,0.06,
6170,-0.3,0.07,
6171,-0.285,0.075,
6172,-0.27,0.095,
6173,-0.28,0.08,
6174,-0.285,0.075,
6175,-0.305,0.07,
6176,-0.29,0.065,
6177,-0.275,0.075,
6178,-0.27,0.085,
6179,-0.265,0.09,
6180,-0.27,0.075,
6181,-0.28,0.065,
6182,-0.285,0.075,
6183,-0.295,0.095,
6184,-0.275,0.105,
6185,-0.255,0.09,
6186,-0.26,0.075,
6187,-0.275,0.05,
6188,-0.285,0.065,
6189,-0.27,0.08,
6190,-0.255,0.08,
6191,-0.26,0.08,
6192,-0.26,0.075,
6193,-0.275,0.07,
6194,-0.275,0.085,
6195,-0.26,0.095,
6196,-0.245,0.105,
6197,-0.25,0.095,
6198,-0.255,0.07,
6199,-0.285,0.07,
6200,-0.28,0.08,
6201,-0.27,0.095,
6202,-0.275,0.09,
6203,-0.26,0.08,
6204,-0.255,0.075,
6205,-0.265,0.07,
6206,-0.285,0.075,
6207,-0.275,0.085,
6208,-0.26,0.095,
6209,-0.275,0.095,
6210,-0.27,0.075,
6211,-0.275,0.075,
6212,-0.27,0.08,
6213,-0.28,0.085,
6214,-0.275,0.105,
6215,-0.27,0.1,
6216,-0.28,0.08,
6217,-0.285,0.07,
6218,-0.29,0.09,
6219,-0.28,0.11,
6220,-0.27,0.1,
6221,-0.265,0.09,
6222,-0.275,0.08,
6223,-0.29,0.08,
6224,-0.285,0.08,
6225,-0.28,0.105,
6226,-0.28,0.105,
6227,-0.265,0.095,
6228,-0.27,0.075,
6229,-0.285,0.07,
6230,-0.29,0.075,
6231,-0.29,0.095,
6232,-0.28,0.1,
6233,-0.26,0.09,
6234,-0.27,0.07,
6235,-0.295,0.06,
6236,-0.29,0.08,
6237,-0.28,0.08,
6238,-0.29,0.09,
6239,-0.27,0.085,
6240,-0.285,0.08,
6241,-0.295,0.065,
6242,-0.295,0.095,
6243,-0.28,0.095,
6244,-0.26,0.105,
6245,-0.26,0.095,
6246,-0.265,0.075,
6247,-0.285,0.08,
6248,-0.305,0.08,
6249,-0.285,0.09,
6250,-0.25,0.095,
6251,-0.26,0.085,
6252,-0.275,0.075,
6253,-0.285,0.065,
6254,-0.285,0.075,
6255,-0.29,0.085,
6256,-0.27,0.095,
6257,-0.265,0.09,
6258,-0.27,0.07,
6259,-0.28,0.065,
6260,-0.285,0.075,
6261,-0.27,0.09,
6262,-0.255,0.1,
6263,-0.25,0.09,
6264,-0.27,0.065,
6265,-0.285,0.05,
6266,-0.275,0.065,
6267,-0.265,0.08,
6268,-0.255,0.09,
6269,-0.25,0.08,
6270,-0.265,0.07,
6271,-0.275,0.06,
6272,-0.26,0.07,
6273,-0.27,0.07,
6274,-0.265,0.075,
6275,-0.255,0.085,
6276,-0.265,0.07,
6277,-0.29,0.06,
6278,-0.29,0.07,
6279,-0.275,0.08,
6280,-0.265,0.095,
6281,-0.245,0.07,
6282,-0.255,0.075,
6283,-0.265,0.065,
6284,-0.27,0.065,
6285,-0.275,0.08,
6286,-0.25,0.095,
6287,-0.265,0.07,
6288,-0.26,0.055,
6289,-0.27,0.055,
6290,-0.275,0.07,
6291,-0.26,0.075,
6292,-0.24,0.08,
6293,-0.24,0.07,
6294,-0.245,0.05,
6295,-0.255,0.055,
6296,-0.255,0.065,
6297,-0.255,0.085,
6298,-0.24,0.085,
6299,-0.245,0.095,
6300,-0.245,0.075,
6301,-0.26,0.06,
6302,-0.255,0.075,
6303,-0.24,0.075,
6304,-0.23,0.09,
6305,-0.225,0.09,
6306,-0.235,0.07,
6307,-0.255,0.065,
6308,-0.25,0.07,
6309,-0.245,0.085,
6310,-0.225,0.085,
6311,-0.235,0.08,
6312,-0.24,0.06,
6313,-0.25,0.055,
6314,-0.245,0.07,
6315,-0.245,0.075,
6316,-0.23,0.09,
6317,-0.21,0.065,
6318,-0.23,0.075,
6319,-0.245,0.065,
6320,-0.235,0.06,
6321,-0.22,0.075,
6322,-0.205,0.08,
6323,-0.205,0.085,
6324,-0.22,0.06,
6325,-0.22,0.055,
6326,-0.235,0.06,
6327,-0.235,0.065,
6328,-0.205,0.075,
6329,-0.195,0.075,
6330,-0.215,0.06,
6331,-0.235,0.055,
6332,-0.235,0.065,
6333,-0.225,0.06,
6334,-0.2,0.085,
6335,-0.195,0.065,
6336,-0.195,0.04,
6337,-0.21,0.055,
6338,-0.215,0.065,
6339,-0.21,0.09,
6340,-0.175,0.095,
6341,-0.185,0.11,
6342,-0.18,0.095,
6343,-0.195,0.095,
6344,-0.21,0.095,
6345,-0.2,0.11,
6346,-0.2,0.13,
6347,-0.185,0.125,
6348,-0.19,0.105,
6349,-0.185,0.1,
6350,-0.18,0.095,
6351,-0.155,0.1,
6352,-0.15,0.105,
6353,-0.125,0.09,
6354,-0.14,0.08,
6355,-0.14,0.07,
6356,-0.14,0.07,
6357,-0.145,0.075,
6358,-0.12,0.1,
6359,-0.125,0.085,
6360,-0.145,0.07,
6361,-0.155,0.065,
6362,-0.15,0.06,
6363,-0.15,0.07,
6364,-0.15,0.085,
6365,-0.155,0.08,
6366,-0.165,0.075,
6367,-0.195,0.06,
6368,-0.185,0.065,
6369,-0.19,0.09,
6370,-0.165,0.095,
6371,-0.17,0.085,
6372,-0.18,0.075,
6373,-0.2,0.07,
6374,-0.185,0.065,
6375,-0.18,0.07,
6376,-0.16,0.075,
6377,-0.155,0.065,
6378,-0.175,0.045,
6379,-0.185,0.055,
6380,-0.175,0.05,
6381,-0.175,0.065,
6382,-0.155,0.075,
6383,-0.16,0.08,
6384,-0.15,0.06,
6385,-0.18,0.065,
6386,-0.155,0.07,
6387,-0.145,0.1,
6388,-0.13,0.12,
6389,-0.115,0.13,
6390,-0.11,0.115,
6391,-0.1,0.09,
6392,-0.07,0.04,
6393,-0.03,-0.02,
6394,0.02,-0.11,
6395,0.05,-0.25,
6396,0.1,-0.385,
6397,0.175,-0.535,
6398,0.275,-0.67,
6399,0.4,-0.81,
6400,0.52,-0.895,
6401,0.635,-0.965,
6402,0.75,-0.96,
6403,0.84,-0.935,
6404,0.925,-0.855,
6405,1.045,-0.745,
6406,1.135,-0.575,N
6407,1.175,-0.43,
6408,1.12,-0.295,
6409,1.005,-0.175,
6410,0.86,-0.085,
6411,0.69,-0.03,
6412,0.51,-0.01,
6413,0.385,-0.03,
6414,0.23,-0.04,
6415,0.095,-0.025,
6416,0.015,0.0,
6417,-0.025,0.04,
6418,-0.03,0.07,
6419,-0.03,0.065,
6420,-0.055,0.07,
6421,-0.08,0.065,
6422,-0.125,0.075,
6423,-0.13,0.095,
6424,-0.135,0.105,
6425,-0.16,0.105,
6426,-0.165,0.1,
6427,-0.195,0.1,
6428,-0.195,0.115,
6429,-0.2,0.125,
6430,-0.18,0.135,
6431,-0.185,0.13,
6432,-0.2,0.11,
6433,-0.22,0.115,
6434,-0.23,0.115,
6435,-0.215,0.14,
6436,-0.21,0.135,
6437,-0.205,0.13,
6438,-0.23,0.115,
6439,-0.255,0.1,
6440,-0.235,0.12,
6441,-0.225,0.125,
6442,-0.215,0.145,
6443,-0.225,0.13,
6444,-0.215,0.115,
6445,-0.23,0.115,
6446,-0.235,0.12,
6447,-0.23,0.135,
6448,-0.215,0.145,
6449,-0.205,0.125,
6450,-0.225,0.115,
6451,-0.24,0.115,
6452,-0.23,0.12,
6453,-0.22,0.125,
6454,-0.205,0.135,
6455,-0.21,0.13,
6456,-0.2,0.115,
6457,-0.22,0.1,
6458,-0.215,0.11,
6459,-0.2,0.105,
6460,-0.19,0.125,
6461,-0.19,0.115,
6462,-0.2,0.1,
6463,-0.195,0.105,
6464,-0.195,0.105,
6465,-0.17,0.115,
6466,-0.15,0.13,
6467,-0.155,0.12,
6468,-0.155,0.095,
6469,-0.16,0.085,
6470,-0.155,0.095,
6471,-0.15,0.09,
6472,-0.135,0.105,
6473,-0.12,0.085,
6474,-0.12,0.08,
6475,-0.125,0.065,
6476,-0.125,0.07,
6477,-0.115,0.065,
6478,-0.09,0.085,
6479,-0.08,0.06,
6480,-0.065,0.055,
6481,-0.08,0.025,
6482,-0.065,0.045,
6483,-0.045,0.045,
6484,-0.015,0.035,
6485,-0.015,0.025,
6486,-0.005,0.01,
6487,-0.01,-0.01,
6488,0.005,-0.005,
6489,0.015,0.01,
6490,0.05,0.015,
6491,0.06,0.0,
6492,0.07,-0.025,
6493,0.07,-0.025,
6494,0.075,-0.02,
6495,0.09,-0.015,
6496,0.11,0.0,
6497,0.125,-0.01,
6498,0.115,-0.025,
6499,0.115,-0.025,
6500,0.115,-0.015,
6501,0.125,0.005,
6502,0.135,0.01,
6503,0.125,0.005,
6504,0.125,0.0,
6505,0.11,0.0,
6506,0.095,0.025,
6507,0.08,0.05,
6508,0.08,0.06,
6509,0.06,0.055,
6510,0.04,0.06,
6511,0.005,0.055,
6512,-0.035,0.07,
6513,-0.045,0.085,
6514,-0.05,0.095,
6515,-0.07,0.09,
6516,-0.08,0.08,
6517,-0.1,0.08,
6518,-0.115,0.09,
6519,-0.135,0.095,
6520,-0.14,0.125,
6521,-0.15,0.1,
6522,-0.17,0.09,
6523,-0.195,0.08,
6524,-0.19,0.09,
6525,-0.2,0.105,
6526,-0.205,0.12,
6527,-0.2,0.105,
6528,-0.215,0.1,
6529,-0.23,0.1,
6530,-0.245,0.09,
6531,-0.235,0.11,
6532,-0.22,0.11,
6533,-0.235,0.1,
6534,-0.25,0.09,
6535,-0.265,0.095,
6536,-0.27,0.09,
6537,-0.265,0.105,
6538,-0.25,0.12,
6539,-0.25,0.1,
6540,-0.265,0.09,
6541,-0.26,0.075,
6542,-0.27,0.085,
6543,-0.26,0.095,
6544,-0.255,0.12,
6545,-0.24,0.115,
6546,-0.26,0.095,
6547,-0.26,0.085,
6548,-0.27,0.08,
6549,-0.265,0.095,
6550,-0.26,0.115,
6551,-0.26,0.1,
6552,-0.275,0.1,
6553,-0.275,0.085,
6554,-0.275,0.095,
6555,-0.28,0.12,
6556,-0.27,0.12,
6557,-0.27,0.11,
6558,-0.27,0.1,
6559,-0.27,0.095,
6560,-0.285,0.095,
6561,-0.275,0.105,
6562,-0.265,0.115,
6563,-0.255,0.1,
6564,-0.27,0.09,
6565,-0.28,0.085,
6566,-0.295,0.1,
6567,-0.29,0.12,
6568,-0.26,0.125,
6569,-0.275,0.115,
6570,-0.275,0.1,
6571,-0.285,0.095,
6572,-0.295,0.1,
6573,-0.28,0.11,
6574,-0.27,0.125,
6575,-0.26,0.11,
6576,-0.27,0.095,
6577,-0.295,0.085,
6578,-0.295,0.095,
6579,-0.275,0.11,
6580,-0.27,0.12,
6581,-0.25,0.115,
6582,-0.265,0.095,
6583,-0.285,0.075,
6584,-0.285,0.095,
6585,-0.27,0.1,
6586,-0.255,0.115,
6587,-0.25,0.115,
6588,-0.265,0.09,
6589,-0.28,0.085,
6590,-0.285,0.085,
6591,-0.27,0.105,
6592,-0.26,0.105,
6593,-0.26,0.1,
6594,-0.28,0.08,
6595,-0.295,0.075,
6596,-0.28,0.095,
6597,-0.28,0.1,
6598,-0.27,0.115,
6599,-0.27,0.1,
6600,-0.265,0.075,
6601,-0.28,0.08,
6602,-0.275,0.09,
6603,-0.275,0.1,
6604,-0.27,0.105,
6605,-0.26,0.095,
6606,-0.275,0.08,
6607,-0.3,0.09,
6608,-0.29,0.09,
6609,-0.28,0.095,
6610,-0.26,0.11,
6611,-0.265,0.095,
6612,-0.275,0.085,
6613,-0.285,0.095,
6614,-0.295,0.09,
6615,-0.28,0.105,
6616,-0.265,0.115,
6617,-0.26,0.105,
6618,-0.285,0.08,
6619,-0.285,0.08,
6620,-0.3,0.09,
6621,-0.285,0.095,
6622,-0.275,0.095,
6623,-0.27,0.105,
6624,-0.3,0.09,
6625,-0.3,0.085,
6626,-0.295,0.095,
6627,-0.28,0.095,
6628,-0.275,0.11,
6629,-0.27,0.1,
6630,-0.285,0.085,
6631,-0.3,0.085,
6632,-0.295,0.09,
6633,-0.28,0.09,
6634,-0.28,0.1,
6635,-0.275,0.09,
6636,-0.27,0.07,
6637,-0.29,0.07,
6638,-0.3,0.075,
6639,-0.285,0.085,
6640,-0.265,0.1,
6641,-0.27,0.095,
6642,-0.27,0.08,
6643,-0.295,0.075,
6644,-0.295,0.075,
6645,-0.3,0.09,
6646,-0.27,0.105,
6647,-0.27,0.085,
6648,-0.275,0.07,
6649,-0.29,0.065,
6650,-0.29,0.08,
6651,-0.285,0.085,
6652,-0.275,0.105,
6653,-0.265,0.105,
6654,-0.28,0.085,
6655,-0.29,0.065,
6656,-0.28,0.07,
6657,-0.28,0.08,
6658,-0.255,0.095,
6659,-0.265,0.085,
6660,-0.27,0.07,
6661,-0.27,0.065,
6662,-0.275,0.075,
6663,-0.265,0.09,
6664,-0.25,0.105,
6665,-0.26,0.095,
6666,-0.28,0.075,
6667,-0.295,0.075,
6668,-0.27,0.065,
6669,-0.255,0.08,
6670,-0.245,0.095,
6671,-0.255,0.095,
6672,-0.265,0.085,
6673,-0.275,0.07,
6674,-0.28,0.07,
6675,-0.265,0.075,
6676,-0.27,0.095,
6677,-0.245,0.09,
6678,-0.275,0.075,
6679,-0.27,0.07,
6680,-0.28,0.065,
6681,-0.26,0.08,
6682,-0.255,0.09,
6683,-0.255,0.08,
6684,-0.27,0.07,
6685,-0.28,0.06,
6686,-0.275,0.075,
6687,-0.26,0.075,
6688,-0.255,0.095,
6689,-0.25,0.08,
6690,-0.26,0.075,
6691,-0.255,0.055,
6692,-0.27,0.07,
6693,-0.26,0.08,
6694,-0.235,0.075,
6695,-0.255,0.08,
6696,-0.25,0.065,
6697,-0.265,0.06,
6698,-0.265,0.07,
6699,-0.245,0.065,
6700,-0.23,0.09,
6701,-0.23,0.085,
6702,-0.245,0.08,
6703,-0.255,0.06,
6704,-0.265,0.08,
6705,-0.255,0.08,
6706,-0.235,0.09,
6707,-0.235,0.065,
6708,-0.235,0.065,
6709,-0.25,0.05,
6710,-0.24,0.06,
6711,-0.245,0.06,
6712,-0.225,0.07,
6713,-0.225,0.075,
6714,-0.235,0.065,
6715,-0.24,0.065,
6716,-0.245,0.065,
6717,-0.24,0.075,
6718,-0.24,0.085,
6719,-0.22,0.07,
6720,-0.23,0.06,
6721,-0.23,0.05,
6722,-0.235,0.05,
6723,-0.23,0.055,
6724,-0.21,0.07,
6725,-0.205,0.05,
6726,-0.215,0.05,
6727,-0.235,0.03,
6728,-0.23,0.05,
6729,-0.22,0.05,
6730,-0.2,0.055,
6731,-0.195,0.055,
6732,-0.215,0.055,
6733,-0.235,0.06,
6734,-0.23,0.07,
6735,-0.22,0.085,
6736,-0.23,0.1,
6737,-0.235,0.105,
6738,-0.245,0.09,
6739,-0.245,0.085,
6740,-0.245,0.095,
6741,-0.21,0.1,
6742,-0.185,0.095,
6743,-0.175,0.085,
6744,-0.17,0.07,
6745,-0.19,0.06,
6746,-0.17,0.05,
6747,-0.165,0.065,
6748,-0.145,0.08,
6749,-0.145,0.07,
6750,-0.16,0.06,
6751,-0.175,0.055,
6752,-0.17,0.05,
6753,-0.175,0.065,
6754,-0.16,0.065,
6755,-0.18,0.05,
6756,-0.19,0.04,
6757,-0.2,0.05,
6758,-0.205,0.055,
6759,-0.205,0.055,
6760,-0.19,0.075,
6761,-0.195,0.065,
6762,-0.205,0.055,
6763,-0.21,0.05,
6764,-0.21,0.06,
6765,-0.215,0.07,
6766,-0.19,0.08,
6767,-0.19,0.06,
6768,-0.195,0.045,
6769,-0.2,0.04,
6770,-0.21,0.05,
6771,-0.215,0.05,
6772,-0.2,0.065,
6773,-0.185,0.06,
6774,-0.19,0.05,
6775,-0.195,0.04,
6776,-0.205,0.045,
6777,-0.18,0.05,
6778,-0.165,0.075,
6779,-0.16,0.075,
6780,-0.165,0.095,
6781,-0.175,0.095,
6782,-0.165,0.11,
6783,-0.14,0.095,
6784,-0.095,0.055,
6785,-0.065,-0.055,
6786,-0.04,-0.18,
6787,-0.035,-0.31,
6788,0.0,-0.46,
6789,0.085,-0.615,
6790,0.2,-0.77,
6791,0.315,-0.93,
6792,0.42,-1.085,
6793,0.525,-1.145,
6794,0.67,-1.12,
6795,0.795,-1.045,
6796,0.905,-0.935,
6797,1.025,-0.815,
6798,1.11,-0.65,N
6799,1.12,-0.485,
6800,1.055,-0.34,
6801,0.935,-0.21,
6802,0.79,-0.105,
6803,0.595,-0.07,
6804,0.4,-0.075,
6805,0.225,-0.09,
6806,0.07,-0.085,
6807,-0.025,-0.06,
6808,-0.085,-0.005,
6809,-0.1,0.005,
6810,-0.105,0.015,
6811,-0.12,0.005,
