,MLII,V1,symbol
0,-0.26,0.065,
1,-0.26,0.065,
2,-0.26,0.065,
3,-0.26,0.065,
4,-0.26,0.065,
5,-0.26,0.065,
6,-0.26,0.065,
7,-0.26,0.065,
8,-0.145,0.065,
9,-0.175,0.11,
10,-0.275,0.125,
11,-0.38,0.125,
12,-0.405,0.11,
13,-0.385,0.105,
14,-0.31,0.11,+
15,-0.24,0.09,
16,-0.255,0.06,
17,-0.325,0.06,
18,-0.375,0.075,
19,-0.345,0.11,
20,-0.23,0.125,
21,-0.12,0.125,
22,-0.06,0.11,
23,-0.12,0.115,
24,-0.22,0.12,~
25,-0.35,0.16,
26,-0.365,0.2,
27,-0.335,0.205,
28,-0.26,0.205,
29,-0.175,0.22,
30,-0.105,0.22,
31,-0.14,0.23,
32,-0.2,0.255,
33,-0.235,0.26,
34,-0.295,0.265,
35,-0.395,0.255,
36,-0.49,0.255,
37,-0.475,0.265,
38,-0.395,0.265,
39,-0.315,0.245,
40,-0.26,0.23,
41,-0.21,0.215,
42,-0.2,0.18,
43,-0.16,0.17,
44,-0.095,0.13,
45,-0.04,0.1,
46,-0.02,0.04,
47,-0.035,0.015,
48,-0.09,-0.005,
49,-0.17,0.005,
50,-0.24,0.04,
51,-0.28,0.035,
52,-0.3,0.045,
53,-0.285,0.02,
54,-0.275,0.0,
55,-0.245,0.015,
56,-0.185,0.04,
57,-0.1,0.055,
58,-0.055,0.045,
59,-0.13,-0.005,
60,-0.295,-0.03,
61,-0.4,-0.04,
62,-0.345,-0.03,
63,-0.27,-0.025,
64,-0.255,-0.025,
65,-0.255,-0.005,
66,-0.215,0.015,
67,-0.175,0.025,
68,-0.155,0.035,
69,-0.175,-0.005,
70,-0.235,-0.015,
71,-0.315,-0.035,
72,-0.335,-0.03,
73,-0.31,0.005,
74,-0.26,0.02,
75,-0.26,0.03,
76,-0.305,0.035,
77,-0.34,0.06,
78,-0.28,0.08,
79,-0.205,0.14,
80,-0.16,0.205,
81,-0.215,0.24,
82,-0.34,0.245,
83,-0.34,0.22,
84,-0.165,0.19,
85,0.04,0.175,
86,0.18,0.145,
87,0.23,0.085,
88,0.26,0.015,
89,0.255,-0.055,
90,0.275,-0.08,
91,0.43,-0.09,
92,0.7,-0.135,
93,1.0,-0.21,
94,1.285,-0.285,
95,1.465,-0.355,
96,1.53,-0.41,
97,1.48,-0.42,
98,1.385,-0.42,
99,1.345,-0.415,N
100,1.355,-0.46,
101,1.37,-0.505,
102,1.325,-0.51,
103,1.26,-0.485,
104,1.17,-0.43,
105,1.025,-0.4,
106,0.83,-0.355,
107,0.655,-0.305,
108,0.52,-0.255,
109,0.42,-0.16,
110,0.36,-0.095,
111,0.24,-0.06,
112,0.0,-0.01,
113,-0.255,0.03,
114,-0.395,0.065,
115,-0.4,0.1,
116,-0.29,0.105,
117,-0.185,0.1,
118,-0.165,0.1,
119,-0.285,0.09,
120,-0.43,0.08,
121,-0.495,0.06,
122,-0.485,0.05,
123,-0.415,-0.04,
124,-0.365,-0.105,
125,-0.34,-0.14,
126,-0.37,-0.135,
127,-0.47,-0.085,
128,-0.535,-0.05,
129,-0.565,-0.02,
130,-0.535,-0.005,
131,-0.5,-0.015,
132,-0.44,-0.02,
133,-0.41,-0.01,
134,-0.41,-0.02,
135,-0.505,-0.035,
136,-0.655,-0.06,
137,-0.77,-0.055,
138,-0.775,-0.03,
139,-0.62,0.005,
140,-0.45,0.03,
141,-0.405,0.03,
142,-0.465,0.035,
143,-0.535,0.05,
144,-0.575,0.1,
145,-0.55,0.155,
146,-0.52,0.165,
147,-0.51,0.105,
148,-0.49,0.05,
149,-0.455,-0.015,
150,-0.51,-0.03,
151,-0.64,-0.01,
152,-0.69,0.025,
153,-0.615,0.03,
154,-0.495,0.025,
155,-0.44,0.01,
156,-0.405,0.03,
157,-0.36,0.03,
158,-0.34,0.06,
159,-0.425,0.06,
160,-0.57,0.07,
161,-0.615,0.095,
162,-0.525,0.125,
163,-0.425,0.16,
164,-0.42,0.17,
165,-0.43,0.195,
166,-0.4,0.175,
167,-0.355,0.195,
168,-0.365,0.22,
169,-0.395,0.245,
170,-0.4,0.28,
171,-0.355,0.285,
172,-0.33,0.265,
173,-0.34,0.24,
174,-0.33,0.25,
175,-0.315,0.27,
176,-0.275,0.27,
177,-0.215,0.25,
178,-0.135,0.205,
179,-0.075,0.185,
180,-0.08,0.195,
181,-0.055,0.19,
182,-0.03,0.2,
183,-0.02,0.185,
184,-0.035,0.16,
185,-0.045,0.155,
186,-0.05,0.19,
187,-0.07,0.22,
188,-0.065,0.265,
189,-0.14,0.265,
190,-0.21,0.245,
191,-0.25,0.215,
192,-0.205,0.18,
193,-0.01,0.16,
194,0.125,0.13,
195,0.08,0.065,
196,-0.05,0.005,
197,-0.17,-0.06,
198,-0.225,-0.105,
199,-0.28,-0.13,
200,-0.34,-0.105,
201,-0.32,-0.105,
202,-0.255,-0.12,
203,-0.15,-0.105,
204,-0.045,-0.065,
205,-0.01,0.005,
206,-0.01,0.055,
207,0.035,0.05,
208,0.015,0.015,
209,-0.155,-0.02,
210,-0.455,-0.045,
211,-0.655,-0.045,
212,-0.64,-0.045,
213,-0.465,-0.06,
214,-0.29,-0.07,
215,-0.245,-0.065,
216,-0.26,-0.07,
217,-0.275,-0.025,
218,-0.275,0.015,
219,-0.28,0.025,
220,-0.32,0.03,
221,-0.405,0.025,
222,-0.44,0.03,
223,-0.38,0.02,
224,-0.225,0.025,
225,-0.135,0.015,
226,-0.175,-0.01,
227,-0.25,0.01,
228,-0.32,0.03,
229,-0.33,0.08,
230,-0.26,0.13,
231,-0.155,0.13,
232,-0.12,0.095,
233,-0.18,0.055,
234,-0.31,0.055,
235,-0.37,0.05,
236,-0.33,0.075,
237,-0.3,0.075,
238,-0.4,0.065,
239,-0.5,0.08,
240,-0.54,0.08,
241,-0.51,0.105,
242,-0.39,0.135,
243,-0.22,0.12,
244,-0.125,0.105,
245,-0.165,0.115,
246,-0.3,0.16,
247,-0.375,0.225,
248,-0.37,0.245,
249,-0.38,0.235,
250,-0.4,0.2,
251,-0.385,0.18,
252,-0.34,0.15,
253,-0.32,0.16,
254,-0.305,0.165,
255,-0.25,0.135,
256,-0.175,0.1,
257,-0.145,0.055,
258,-0.17,0.04,
259,-0.25,0.02,
260,-0.32,0.005,
261,-0.345,-0.02,
262,-0.32,-0.055,
263,-0.2,-0.08,
264,-0.07,-0.07,
265,-0.07,-0.04,
266,-0.205,-0.02,
267,-0.32,-0.02,
268,-0.32,-0.025,
269,-0.235,-0.035,
270,-0.155,-0.035,
271,-0.155,-0.005,
272,-0.23,0.03,
273,-0.26,0.015,
274,-0.215,0.01,
275,-0.17,-0.01,
276,-0.13,-0.025,
277,-0.1,-0.025,
278,-0.11,-0.005,
279,-0.17,-0.005,
280,-0.23,-0.01,
281,-0.27,-0.015,
282,-0.265,-0.005,
283,-0.23,0.005,
284,-0.185,0.045,
285,-0.16,0.055,
286,-0.17,0.05,
287,-0.19,0.045,
288,-0.185,0.065,
289,-0.16,0.105,
290,-0.175,0.13,
291,-0.215,0.1,
292,-0.255,0.065,
293,-0.295,0.025,
294,-0.3,0.025,
295,-0.215,0.025,
296,-0.14,0.04,
297,-0.11,0.04,
298,-0.15,0.015,
299,-0.21,0.015,
300,-0.245,0.025,
301,-0.18,0.04,
302,-0.085,0.05,
303,-0.045,0.045,
304,-0.125,0.03,
305,-0.28,0.04,
306,-0.435,0.06,
307,-0.475,0.095,
308,-0.4,0.115,
309,-0.265,0.11,
310,-0.175,0.08,
311,-0.18,0.05,
312,-0.23,0.035,
313,-0.215,0.03,
314,-0.14,0.025,
315,-0.11,-0.01,
316,-0.165,-0.045,
317,-0.245,-0.065,
318,-0.29,-0.1,
319,-0.29,-0.08,
320,-0.28,-0.1,
321,-0.275,-0.1,
322,-0.225,-0.12,
323,-0.2,-0.14,
324,-0.21,-0.155,
325,-0.265,-0.17,
326,-0.28,-0.19,
327,-0.235,-0.215,
328,-0.195,-0.26,
329,-0.185,-0.27,
330,-0.2,-0.255,
331,-0.185,-0.21,
332,-0.125,-0.16,
333,-0.05,-0.155,
334,0.02,-0.15,
335,0.0,-0.145,
336,-0.09,-0.125,
337,-0.17,-0.1,
338,-0.205,-0.08,
339,-0.18,-0.065,
340,-0.09,-0.06,
341,-0.025,-0.045,
342,-0.06,-0.01,
343,-0.175,0.03,
344,-0.215,0.05,
345,-0.175,0.025,
346,-0.155,0.01,
347,-0.145,-0.03,
348,-0.08,-0.055,
349,0.015,-0.055,
350,0.01,-0.035,
351,-0.1,-0.045,
352,-0.18,-0.045,
353,-0.18,-0.045,
354,-0.11,-0.015,
355,-0.125,0.015,
356,-0.205,0.045,
357,-0.235,0.025,
358,-0.19,-0.005,
359,-0.125,-0.04,
360,-0.12,-0.05,
361,-0.13,-0.03,
362,-0.105,0.0,
363,-0.035,0.01,
364,-0.03,0.025,
365,-0.16,0.0,
366,-0.325,0.035,
367,-0.33,0.095,
368,-0.24,0.165,
369,-0.185,0.205,
370,-0.205,0.21,
371,-0.19,0.16,
372,-0.155,0.11,
373,-0.15,0.06,
374,-0.155,0.04,
375,-0.19,0.01,
376,-0.18,-0.005,
377,-0.125,-0.015,
378,-0.095,-0.01,
379,-0.105,-0.02,
380,-0.055,-0.03,
381,-0.02,-0.06,
382,-0.065,-0.095,
383,-0.145,-0.13,
384,-0.205,-0.13,
385,-0.185,-0.115,
386,-0.135,-0.1,
387,-0.125,-0.105,
388,-0.155,-0.12,
389,-0.185,-0.14,
390,-0.14,-0.14,
391,-0.08,-0.115,
392,-0.02,-0.105,
393,-0.01,-0.075,
394,-0.03,-0.065,
395,-0.035,-0.065,
396,-0.015,-0.06,
397,-0.005,-0.045,
398,-0.02,-0.03,
399,-0.105,-0.04,
400,-0.2,-0.04,
401,-0.235,0.0,
402,-0.185,0.045,
403,-0.155,0.095,
404,-0.145,0.115,
405,-0.075,0.105,
406,-0.03,0.085,
407,-0.055,0.035,
408,-0.085,-0.005,
409,-0.09,-0.015,
410,-0.05,0.015,
411,0.03,0.005,
412,0.135,0.01,
413,0.19,0.01,
414,0.185,0.03,
415,0.17,0.035,
416,0.17,0.01,
417,0.16,0.015,
418,0.125,-0.005,
419,0.115,-0.005,
420,0.245,0.005,
421,0.47,-0.005,
422,0.69,-0.02,
423,0.86,-0.08,
424,1.04,-0.14,
425,1.265,-0.215,
426,1.485,-0.29,
427,1.67,-0.36,
428,1.76,-0.37,
429,1.815,-0.375,
430,1.8,-0.425,
431,1.715,-0.48,N
432,1.63,-0.54,
433,1.635,-0.59,
434,1.625,-0.635,
435,1.535,-0.66,
436,1.375,-0.72,
437,1.21,-0.73,
438,1.065,-0.715,
439,0.9,-0.655,
440,0.68,-0.595,
441,0.33,-0.54,
442,0.035,-0.505,
443,-0.08,-0.455,
444,-0.08,-0.4,
445,-0.085,-0.37,
446,-0.075,-0.345,
447,-0.07,-0.355,
448,-0.12,-0.37,
449,-0.27,-0.365,
450,-0.445,-0.32,
451,-0.55,-0.285,
452,-0.565,-0.22,
453,-0.47,-0.19,
454,-0.3,-0.195,
455,-0.22,-0.185,
456,-0.305,-0.165,
457,-0.5,-0.13,
458,-0.645,-0.1,
459,-0.66,-0.085,
460,-0.585,-0.08,
461,-0.5,-0.055,
462,-0.445,-0.04,
463,-0.455,-0.02,
464,-0.465,0.015,
465,-0.465,0.02,
466,-0.5,0.025,
467,-0.47,0.02,
468,-0.43,0.01,
469,-0.4,0.005,
470,-0.435,-0.005,
471,-0.475,-0.05,
472,-0.46,-0.07,
473,-0.445,-0.05,
474,-0.475,-0.02,
475,-0.55,0.035,
476,-0.64,0.08,
477,-0.655,0.12,
478,-0.61,0.125,
479,-0.545,0.13,
480,-0.475,0.155,
481,-0.425,0.165,
482,-0.395,0.195,
483,-0.41,0.205,
484,-0.415,0.225,
485,-0.46,0.235,
486,-0.475,0.245,
487,-0.465,0.28,
488,-0.435,0.325,
489,-0.405,0.335,
490,-0.38,0.345,
491,-0.375,0.33,
492,-0.38,0.345,
493,-0.395,0.365,
494,-0.42,0.375,
495,-0.455,0.37,
496,-0.49,0.335,
497,-0.51,0.275,
498,-0.475,0.25,
499,-0.415,0.235,
500,-0.355,0.195,
501,-0.34,0.135,
502,-0.345,0.04,
503,-0.35,-0.02,
504,-0.3,-0.055,
505,-0.2,-0.075,
506,-0.105,-0.105,
507,-0.045,-0.135,
508,-0.065,-0.16,
509,-0.165,-0.165,
510,-0.25,-0.15,
511,-0.285,-0.125,
512,-0.215,-0.105,
513,-0.07,-0.095,
514,0.06,-0.1,
515,0.095,-0.12,
516,-0.035,-0.09,
517,-0.15,-0.06,
518,-0.09,-0.03,
519,0.06,-0.01,
520,0.135,-0.02,
521,0.06,-0.025,
522,-0.11,-0.005,
523,-0.215,-0.03,
524,-0.165,-0.02,
525,-0.08,-0.055,
526,-0.04,-0.08,
527,-0.055,-0.1,
528,-0.03,-0.07,
529,-0.025,-0.015,
530,-0.04,0.015,
531,-0.035,0.045,
532,-0.08,0.025,
533,-0.1,0.02,
534,-0.05,0.005,
535,0.055,0.01,
536,0.075,0.01,
537,0.0,-0.01,
538,-0.135,-0.03,
539,-0.2,-0.02,
540,-0.15,0.025,
541,-0.07,0.06,
542,-0.02,0.1,
543,0.01,0.1,
544,0.015,0.055,
545,0.04,0.03,
546,-0.015,0.035,
547,-0.095,0.065,
548,-0.185,0.095,
549,-0.19,0.13,
550,-0.155,0.13,
551,-0.1,0.135,
552,-0.06,0.165,
553,-0.025,0.185,
554,-0.005,0.195,
555,0.015,0.18,
556,0.03,0.17,
557,0.025,0.165,
558,0.02,0.19,
559,-0.015,0.165,
560,-0.045,0.145,
561,-0.08,0.08,
562,-0.085,0.035,
563,-0.09,0.015,
564,-0.085,-0.005,
565,-0.08,-0.005,
566,-0.105,-0.025,
567,-0.1,-0.065,
568,-0.09,-0.085,
569,-0.025,-0.095,
570,-0.01,-0.075,
571,-0.04,-0.06,
572,-0.09,-0.055,
573,-0.105,-0.07,
574,-0.055,-0.08,
575,-0.01,-0.085,
576,-0.025,-0.08,
577,-0.09,-0.045,
578,-0.14,-0.04,
579,-0.19,-0.035,
580,-0.225,-0.04,
581,-0.21,-0.07,
582,-0.11,-0.05,
583,-0.05,-0.035,
584,-0.055,-0.015,
585,-0.07,-0.01,
586,-0.045,0.005,
587,-0.075,-0.005,
588,-0.12,0.01,
589,-0.125,0.015,
590,-0.025,0.05,
591,0.1,0.035,
592,0.175,0.03,
593,0.085,0.01,
594,-0.095,0.025,
595,-0.2,0.04,
596,-0.22,0.055,
597,-0.16,0.05,
598,-0.095,0.045,
599,-0.055,0.04,
600,-0.07,0.075,
601,-0.075,0.135,
602,-0.075,0.165,
603,-0.125,0.15,
604,-0.2,0.12,
605,-0.26,0.07,
606,-0.18,0.06,
607,-0.065,0.05,
608,0.015,0.06,
609,0.02,0.035,
610,-0.05,0.04,
611,-0.155,0.045,
612,-0.215,0.06,
613,-0.175,0.08,
614,-0.055,0.04,
615,0.07,0.02,
616,0.11,-0.02,
617,0.01,-0.04,
618,-0.11,-0.04,
619,-0.19,-0.01,
620,-0.2,-0.02,
621,-0.17,-0.04,
622,-0.095,-0.09,
623,-0.055,-0.145,
624,-0.05,-0.17,
625,-0.05,-0.19,
626,-0.06,-0.17,
627,-0.085,-0.18,
628,-0.125,-0.16,
629,-0.13,-0.175,
630,-0.105,-0.135,
631,-0.05,-0.095,
632,0.005,-0.06,
633,-0.01,-0.05,
634,-0.07,-0.015,
635,-0.12,0.03,
636,-0.125,0.095,
637,-0.035,0.145,
638,0.065,0.165,
639,0.095,0.135,
640,0.08,0.09,
641,0.015,0.045,
642,-0.06,0.025,
643,-0.08,0.045,
644,0.03,0.07,
645,0.2,0.075,
646,0.31,0.085,
647,0.335,0.09,
648,0.335,0.15,
649,0.4,0.175,
650,0.48,0.175,
651,0.59,0.135,
652,0.745,0.1,
653,0.975,0.055,
654,1.215,0.025,
655,1.4,-0.025,
656,1.48,-0.095,
657,1.46,-0.175,
658,1.42,-0.245,
659,1.425,-0.3,
660,1.455,-0.335,N
661,1.51,-0.37,
662,1.545,-0.42,
663,1.54,-0.51,
664,1.34,-0.58,
665,1.07,-0.61,
666,0.85,-0.585,
667,0.735,-0.525,
668,0.64,-0.47,
669,0.405,-0.39,
670,0.095,-0.33,
671,-0.145,-0.26,
672,-0.195,-0.205,
673,-0.17,-0.15,
674,-0.165,-0.105,
675,-0.235,-0.105,
676,-0.335,-0.145,
677,-0.39,-0.15,
678,-0.365,-0.12,
679,-0.355,-0.085,
680,-0.37,-0.04,
681,-0.42,-0.015,
682,-0.455,-0.025,
683,-0.46,-0.05,
684,-0.425,-0.11,
685,-0.405,-0.135,
686,-0.38,-0.145,
687,-0.365,-0.155,
688,-0.365,-0.17,
689,-0.365,-0.135,
690,-0.375,-0.095,
691,-0.41,-0.055,
692,-0.445,-0.035,
693,-0.435,-0.05,
694,-0.38,-0.085,
695,-0.355,-0.095,
696,-0.365,-0.095,
697,-0.365,-0.075,
698,-0.305,-0.045,
699,-0.32,-0.035,
700,-0.46,-0.025,
701,-0.59,-0.01,
702,-0.635,0.005,
703,-0.565,0.04,
704,-0.495,0.07,
705,-0.47,0.085,
706,-0.48,0.125,
707,-0.465,0.135,
708,-0.42,0.19,
709,-0.37,0.23,
710,-0.385,0.29,
711,-0.4,0.305,
712,-0.475,0.29,
713,-0.535,0.26,
714,-0.52,0.245,
715,-0.44,0.225,
716,-0.345,0.205,
717,-0.245,0.185,
718,-0.185,0.14,
719,-0.225,0.125,
720,-0.29,0.115,
721,-0.32,0.135,
722,-0.285,0.145,
723,-0.25,0.16,
724,-0.265,0.175,
725,-0.33,0.165,
726,-0.36,0.17,
727,-0.31,0.185,
728,-0.155,0.215,
729,-0.065,0.215,
730,-0.155,0.215,
731,-0.32,0.18,
732,-0.335,0.18,
733,-0.235,0.165,
734,-0.12,0.155,
735,-0.08,0.115,
736,-0.145,0.085,
737,-0.23,0.07,
738,-0.27,0.055,
739,-0.195,0.06,
740,-0.04,0.04,
741,0.055,0.015,
742,0.05,-0.01,
743,-0.05,-0.045,
744,-0.115,-0.08,
745,-0.145,-0.065,
746,-0.09,-0.03,
747,-0.035,0.02,
748,0.0,0.055,
749,-0.015,0.055,
750,-0.02,0.04,
751,-0.04,0.02,
752,-0.095,-0.035,
753,-0.145,-0.06,
754,-0.13,-0.08,
755,-0.12,-0.1,
756,-0.135,-0.055,
757,-0.125,-0.01,
758,-0.1,0.035,
759,-0.135,0.06,
760,-0.215,0.08,
761,-0.275,0.095,
762,-0.235,0.115,
763,-0.155,0.115,
764,-0.145,0.105,
765,-0.205,0.095,
766,-0.355,0.095,
767,-0.455,0.125,
768,-0.415,0.135,
769,-0.285,0.195,
770,-0.2,0.21,
771,-0.225,0.22,
772,-0.295,0.21,
773,-0.345,0.21,
774,-0.365,0.265,
775,-0.36,0.295,
776,-0.345,0.345,
777,-0.32,0.325,
778,-0.32,0.29,
779,-0.32,0.24,
780,-0.305,0.21,
781,-0.24,0.205,
782,-0.195,0.2,
783,-0.235,0.175,
784,-0.33,0.13,
785,-0.375,0.08,
786,-0.345,0.045,
787,-0.265,0.015,
788,-0.18,0.025,
789,-0.15,0.01,
790,-0.195,-0.01,
791,-0.23,-0.025,
792,-0.245,0.005,
793,-0.305,0.02,
794,-0.36,0.015,
795,-0.38,-0.01,
796,-0.35,-0.055,
797,-0.245,-0.08,
798,-0.185,-0.115,
799,-0.175,-0.145,
800,-0.185,-0.13,
801,-0.24,-0.125,
802,-0.285,-0.1,
803,-0.305,-0.08,
804,-0.305,-0.055,
805,-0.235,-0.015,
806,-0.185,-0.015,
807,-0.19,-0.015,
808,-0.235,-0.05,
809,-0.235,-0.065,
810,-0.155,-0.055,
811,-0.065,-0.035,
812,-0.08,0.015,
813,-0.17,0.08,
814,-0.28,0.11,
815,-0.32,0.115,
816,-0.32,0.115,
817,-0.305,0.075,
818,-0.245,0.03,
819,-0.175,0.005,
820,-0.15,-0.015,
821,-0.175,0.025,
822,-0.235,0.085,
823,-0.31,0.155,
824,-0.34,0.205,
825,-0.32,0.165,
826,-0.27,0.135,
827,-0.23,0.09,
828,-0.275,0.07,
829,-0.37,0.105,
830,-0.385,0.145,
831,-0.315,0.165,
832,-0.25,0.165,
833,-0.25,0.2,
834,-0.265,0.24,
835,-0.24,0.285,
836,-0.2,0.295,
837,-0.215,0.225,
838,-0.29,0.16,
839,-0.335,0.085,
840,-0.29,0.06,
841,-0.245,0.07,
842,-0.23,0.085,
843,-0.23,0.07,
844,-0.24,0.07,
845,-0.215,0.06,
846,-0.17,0.07,
847,-0.135,0.09,
848,-0.015,0.095,
849,0.09,0.115,
850,0.185,0.12,
851,0.185,0.125,
852,0.185,0.15,
853,0.24,0.15,
854,0.325,0.12,
855,0.505,0.05,
856,0.82,-0.015,
857,1.1,-0.075,
858,1.19,-0.145,
859,1.15,-0.18,
860,1.085,-0.215,
861,1.08,-0.235,
862,1.145,-0.27,N
863,1.22,-0.31,
864,1.28,-0.35,
865,1.255,-0.445,
866,1.1,-0.48,
867,0.835,-0.54,
868,0.555,-0.555,
869,0.305,-0.53,
870,0.15,-0.485,
871,0.095,-0.41,
872,0.09,-0.335,
873,0.055,-0.275,
874,-0.09,-0.215,
875,-0.29,-0.15,
876,-0.435,-0.085,
877,-0.465,-0.005,
878,-0.435,0.04,
879,-0.365,0.07,
880,-0.285,0.07,
881,-0.265,0.075,
882,-0.345,0.09,
883,-0.455,0.14,
884,-0.535,0.185,
885,-0.52,0.215,
886,-0.445,0.245,
887,-0.38,0.27,
888,-0.46,0.295,
889,-0.615,0.27,
890,-0.68,0.25,
891,-0.665,0.185,
892,-0.58,0.14,
893,-0.55,0.12,
894,-0.535,0.145,
895,-0.55,0.185,
896,-0.53,0.195,
897,-0.525,0.165,
898,-0.545,0.115,
899,-0.565,0.06,
900,-0.585,0.055,
901,-0.58,0.04,
902,-0.565,0.04,
903,-0.53,0.025,
904,-0.49,0.01,
905,-0.46,0.0,
906,-0.48,0.005,
907,-0.57,0.025,
908,-0.6,0.035,
909,-0.565,0.005,
910,-0.47,-0.005,
911,-0.445,-0.015,
912,-0.46,0.015,
913,-0.495,0.03,
914,-0.465,0.02,
915,-0.375,-0.005,
916,-0.305,-0.02,
917,-0.365,0.005,
918,-0.48,0.025,
919,-0.59,0.045,
920,-0.605,0.07,
921,-0.53,0.045,
922,-0.505,0.005,
923,-0.425,0.005,
924,-0.345,0.015,
925,-0.3,0.03,
926,-0.32,0.06,
927,-0.375,0.055,
928,-0.4,0.07,
929,-0.43,0.1,
930,-0.45,0.14,
931,-0.39,0.17,
932,-0.285,0.185,
933,-0.255,0.17,
934,-0.315,0.16,
935,-0.315,0.155,
936,-0.28,0.19,
937,-0.26,0.235,
938,-0.275,0.29,
939,-0.26,0.315,
940,-0.185,0.305,
941,-0.12,0.265,
942,-0.145,0.225,
943,-0.2,0.2,
944,-0.205,0.195,
945,-0.16,0.185,
946,-0.13,0.175,
947,-0.175,0.185,
948,-0.26,0.185,
949,-0.315,0.23,
950,-0.295,0.25,
951,-0.245,0.255,
952,-0.19,0.21,
953,-0.125,0.18,
954,-0.095,0.165,
955,-0.12,0.16,
956,-0.23,0.17,
957,-0.345,0.155,
958,-0.34,0.125,
959,-0.275,0.14,
960,-0.265,0.11,
961,-0.285,0.095,
962,-0.29,0.065,
963,-0.245,0.01,
964,-0.24,-0.03,
965,-0.245,-0.055,
966,-0.2,-0.055,
967,-0.105,-0.05,
968,-0.03,-0.055,
969,-0.085,-0.07,
970,-0.27,-0.085,
971,-0.395,-0.08,
972,-0.3,-0.06,
973,-0.1,-0.06,
974,-0.07,-0.045,
975,-0.225,-0.055,
976,-0.37,-0.055,
977,-0.34,-0.04,
978,-0.185,-0.015,
979,-0.01,0.03,
980,0.055,0.07,
981,-0.04,0.11,
982,-0.21,0.155,
983,-0.31,0.2,
984,-0.375,0.285,
985,-0.42,0.38,
986,-0.46,0.455,
987,-0.455,0.485,
988,-0.38,0.47,
989,-0.33,0.385,
990,-0.35,0.265,
991,-0.345,0.125,
992,-0.23,-0.005,
993,-0.055,-0.125,
994,0.075,-0.195,
995,0.17,-0.205,
996,0.255,-0.245,
997,0.345,-0.27,
998,0.4,-0.32,
999,0.62,-0.345,
1000,0.795,-0.38,
1001,0.865,-0.39,
1002,0.815,-0.385,N
1003,0.765,-0.33,
1004,0.735,-0.33,
1005,0.605,-0.33,
1006,0.4,-0.35,
1007,0.215,-0.34,
1008,0.095,-0.315,
1009,-0.015,-0.3,
1010,-0.18,-0.255,
1011,-0.305,-0.23,
1012,-0.365,-0.185,
1013,-0.375,-0.14,
1014,-0.405,-0.095,
1015,-0.435,-0.045,
1016,-0.505,-0.035,
1017,-0.585,-0.01,
1018,-0.64,0.005,
1019,-0.625,0.045,
1020,-0.51,0.065,
1021,-0.405,0.08,
1022,-0.35,0.045,
1023,-0.39,0.03,
1024,-0.505,0.035,
1025,-0.585,0.055,
1026,-0.615,0.08,
1027,-0.605,0.11,
1028,-0.635,0.1,
1029,-0.69,0.085,
1030,-0.695,0.07,
1031,-0.65,0.075,
1032,-0.6,0.085,
1033,-0.57,0.14,
1034,-0.58,0.165,
1035,-0.56,0.195,
1036,-0.575,0.2,
1037,-0.6,0.185,
1038,-0.57,0.17,
1039,-0.535,0.155,
1040,-0.535,0.14,
1041,-0.545,0.155,
1042,-0.535,0.175,
1043,-0.46,0.215,
1044,-0.335,0.235,
1045,-0.32,0.24,
1046,-0.435,0.205,
1047,-0.56,0.195,
1048,-0.655,0.21,
1049,-0.66,0.25,
1050,-0.56,0.295,
1051,-0.48,0.335,
1052,-0.455,0.35,
1053,-0.445,0.35,
1054,-0.405,0.365,
1055,-0.33,0.375,
1056,-0.27,0.39,
1057,-0.275,0.41,
1058,-0.33,0.38,
1059,-0.375,0.32,
1060,-0.37,0.275,
1061,-0.37,0.235,
1062,-0.395,0.23,
1063,-0.355,0.215,
1064,-0.275,0.185,
1065,-0.21,0.14,
1066,-0.205,0.14,
1067,-0.195,0.155,
1068,-0.19,0.17,
1069,-0.225,0.215,
1070,-0.295,0.22,
1071,-0.39,0.21,
1072,-0.43,0.185,
1073,-0.425,0.155,
1074,-0.385,0.135,
1075,-0.33,0.125,
1076,-0.265,0.095,
1077,-0.255,0.07,
1078,-0.295,0.08,
1079,-0.32,0.11,
1080,-0.31,0.14,
1081,-0.29,0.16,
1082,-0.28,0.155,
1083,-0.315,0.135,
1084,-0.335,0.135,
1085,-0.37,0.15,
1086,-0.37,0.185,
1087,-0.35,0.195,
1088,-0.295,0.205,
1089,-0.24,0.19,
1090,-0.25,0.17,
1091,-0.27,0.13,
1092,-0.31,0.12,
1093,-0.41,0.125,
1094,-0.555,0.13,
1095,-0.61,0.145,
1096,-0.525,0.19,
1097,-0.435,0.21,
1098,-0.425,0.255,
1099,-0.41,0.29,
1100,-0.39,0.305,
1101,-0.37,0.285,
1102,-0.37,0.23,
1103,-0.385,0.185,
1104,-0.42,0.165,
1105,-0.44,0.155,
1106,-0.43,0.16,
1107,-0.415,0.17,
1108,-0.435,0.205,
1109,-0.415,0.22,
1110,-0.35,0.225,
1111,-0.32,0.195,
1112,-0.395,0.145,
1113,-0.51,0.1,
1114,-0.54,0.095,
1115,-0.43,0.08,
1116,-0.365,0.115,
1117,-0.41,0.12,
1118,-0.475,0.11,
1119,-0.54,0.105,
1120,-0.545,0.09,
1121,-0.5,0.11,
1122,-0.415,0.125,
1123,-0.405,0.16,
1124,-0.43,0.14,
1125,-0.46,0.15,
1126,-0.485,0.15,
1127,-0.52,0.135,
1128,-0.49,0.14,
1129,-0.45,0.175,
1130,-0.42,0.175,
1131,-0.43,0.19,
1132,-0.46,0.185,
1133,-0.48,0.155,
1134,-0.44,0.165,
1135,-0.42,0.145,
1136,-0.495,0.085,
1137,-0.57,0.04,
1138,-0.55,0.055,
1139,-0.52,0.1,
1140,-0.57,0.135,
1141,-0.615,0.18,
1142,-0.575,0.175,
1143,-0.5,0.195,
1144,-0.46,0.205,
1145,-0.455,0.23,
1146,-0.515,0.255,
1147,-0.555,0.26,
1148,-0.575,0.24,
1149,-0.525,0.2,
1150,-0.52,0.185,
1151,-0.46,0.18,
1152,-0.425,0.2,
1153,-0.43,0.26,
1154,-0.515,0.27,
1155,-0.585,0.29,
1156,-0.59,0.275,
1157,-0.585,0.27,
1158,-0.54,0.245,
1159,-0.465,0.225,
1160,-0.455,0.17,
1161,-0.48,0.115,
1162,-0.485,0.075,
1163,-0.485,0.06,
1164,-0.525,0.07,
1165,-0.595,0.1,
1166,-0.595,0.075,
1167,-0.46,0.035,
1168,-0.285,-0.02,
1169,-0.29,-0.035,
1170,-0.495,-0.045,
1171,-0.675,-0.01,
1172,-0.735,0.005,
1173,-0.7,0.035,
1174,-0.635,0.055,
1175,-0.605,0.09,
1176,-0.64,0.105,
1177,-0.63,0.125,
1178,-0.585,0.11,
1179,-0.565,0.085,
1180,-0.505,0.065,
1181,-0.47,0.075,
1182,-0.51,0.09,
1183,-0.545,0.14,
1184,-0.47,0.175,
1185,-0.4,0.185,
1186,-0.53,0.2,
1187,-0.725,0.24,
1188,-0.765,0.24,
1189,-0.65,0.235,
1190,-0.61,0.205,
1191,-0.615,0.165,
1192,-0.585,0.15,
1193,-0.57,0.145,
1194,-0.54,0.155,
1195,-0.5,0.185,
1196,-0.535,0.18,
1197,-0.675,0.185,
1198,-0.795,0.175,
1199,-0.855,0.21,
1200,-0.86,0.24,
1201,-0.8,0.245,
1202,-0.66,0.245,
1203,-0.585,0.255,
1204,-0.575,0.25,
1205,-0.58,0.265,
1206,-0.625,0.3,
1207,-0.62,0.32,
1208,-0.61,0.3,
1209,-0.605,0.29,
1210,-0.585,0.24,
1211,-0.575,0.255,
1212,-0.53,0.245,
1213,-0.51,0.235,
1214,-0.48,0.225,
1215,-0.495,0.225,
1216,-0.52,0.215,
1217,-0.525,0.2,
1218,-0.48,0.19,
1219,-0.46,0.145,
1220,-0.505,0.085,
1221,-0.51,0.035,
1222,-0.5,0.0,
1223,-0.555,0.015,
1224,-0.67,0.04,
1225,-0.705,0.06,
1226,-0.605,0.06,
1227,-0.465,0.065,
1228,-0.39,0.055,
1229,-0.46,0.08,
1230,-0.62,0.095,
1231,-0.75,0.1,
1232,-0.765,0.12,
1233,-0.63,0.11,
1234,-0.485,0.13,
1235,-0.455,0.125,
1236,-0.495,0.175,
1237,-0.56,0.185,
1238,-0.595,0.17,
1239,-0.61,0.155,
1240,-0.64,0.135,
1241,-0.665,0.15,
1242,-0.61,0.155,
1243,-0.52,0.17,
1244,-0.42,0.17,
1245,-0.41,0.165,
1246,-0.47,0.19,
1247,-0.585,0.22,
1248,-0.655,0.22,
1249,-0.665,0.24,
1250,-0.635,0.22,
1251,-0.585,0.19,
1252,-0.585,0.215,
1253,-0.615,0.255,
1254,-0.555,0.295,
1255,-0.465,0.325,
1256,-0.415,0.32,
1257,-0.375,0.29,
1258,-0.305,0.29,
1259,-0.205,0.285,
1260,-0.11,0.28,
1261,0.035,0.25,
1262,0.27,0.205,
1263,0.47,0.16,
1264,0.615,0.125,
1265,0.92,0.115,
1266,1.29,0.065,
1267,1.465,-0.01,
1268,1.395,-0.08,
1269,1.21,-0.135,
1270,1.125,-0.2,N
1271,1.17,-0.26,
1272,1.315,-0.32,
1273,1.435,-0.38,
1274,1.32,-0.47,
1275,0.995,-0.5,
1276,0.675,-0.495,
1277,0.44,-0.465,
1278,0.2,-0.435,
1279,-0.07,-0.4,
1280,-0.32,-0.375,
1281,-0.43,-0.33,
1282,-0.54,-0.275,
1283,-0.69,-0.185,
1284,-0.745,-0.095,
1285,-0.65,-0.03,
1286,-0.62,-0.01,
1287,-0.71,-0.01,
1288,-0.825,0.02,
1289,-0.84,0.035,
1290,-0.795,0.06,
1291,-0.81,0.08,
1292,-0.875,0.075,
1293,-0.935,0.1,
1294,-0.94,0.115,
1295,-0.89,0.125,
1296,-0.8,0.175,
1297,-0.77,0.24,
1298,-0.85,0.275,
1299,-1.035,0.3,
1300,-1.18,0.305,
1301,-1.18,0.285,
1302,-1.09,0.275,
1303,-1.03,0.23,
1304,-1.05,0.2,
1305,-1.08,0.185,
1306,-1.045,0.195,
1307,-0.985,0.22,
1308,-0.93,0.25,
1309,-0.935,0.275,
1310,-0.965,0.29,
1311,-1.025,0.305,
1312,-1.085,0.325,
1313,-1.105,0.355,
1314,-1.085,0.38,
1315,-1.055,0.38,
1316,-1.04,0.375,
1317,-0.985,0.365,
1318,-0.95,0.355,
1319,-0.93,0.365,
1320,-0.935,0.395,
1321,-0.935,0.435,
1322,-0.89,0.43,
1323,-0.86,0.41,
1324,-0.905,0.39,
1325,-0.965,0.4,
1326,-0.975,0.415,
1327,-0.895,0.425,
1328,-0.82,0.42,
1329,-0.84,0.395,
1330,-0.945,0.39,
1331,-1.04,0.38,
1332,-1.005,0.38,
1333,-0.915,0.34,
1334,-0.825,0.29,
1335,-0.785,0.26,
1336,-0.81,0.26,
1337,-0.875,0.295,
1338,-0.93,0.335,
1339,-0.895,0.35,
1340,-0.81,0.32,
1341,-0.705,0.29,
1342,-0.64,0.255,
1343,-0.645,0.245,
1344,-0.73,0.25,
1345,-0.795,0.265,
1346,-0.79,0.275,
1347,-0.72,0.285,
1348,-0.65,0.295,
1349,-0.57,0.31,
1350,-0.48,0.335,
1351,-0.395,0.36,
1352,-0.355,0.34,
1353,-0.425,0.28,
1354,-0.545,0.24,
1355,-0.62,0.25,
1356,-0.65,0.275,
1357,-0.69,0.32,
1358,-0.725,0.36,
1359,-0.72,0.415,
1360,-0.68,0.46,
1361,-0.635,0.48,
1362,-0.64,0.485,
1363,-0.645,0.45,
1364,-0.59,0.4,
1365,-0.495,0.345,
1366,-0.445,0.32,
1367,-0.475,0.305,
1368,-0.525,0.315,
1369,-0.54,0.325,
1370,-0.535,0.33,
1371,-0.54,0.32,
1372,-0.545,0.325,
1373,-0.545,0.355,
1374,-0.51,0.34,
1375,-0.475,0.315,
1376,-0.415,0.275,
1377,-0.34,0.245,
1378,-0.325,0.22,
1379,-0.335,0.215,
1380,-0.38,0.235,
1381,-0.445,0.29,
1382,-0.52,0.31,
1383,-0.53,0.32,
1384,-0.445,0.3,
1385,-0.405,0.265,
1386,-0.52,0.205,
1387,-0.635,0.115,
1388,-0.64,0.015,
1389,-0.54,-0.05,
1390,-0.455,-0.095,
1391,-0.395,-0.07,
1392,-0.38,-0.04,
1393,-0.41,0.01,
1394,-0.465,0.05,
1395,-0.485,0.07,
1396,-0.47,0.08,
1397,-0.475,0.1,
1398,-0.485,0.12,
1399,-0.455,0.115,
1400,-0.39,0.085,
1401,-0.305,0.045,
1402,-0.245,0.015,
1403,-0.175,0.04,
1404,-0.22,0.075,
1405,-0.39,0.14,
1406,-0.565,0.175,
1407,-0.66,0.2,
1408,-0.675,0.205,
1409,-0.68,0.25,
1410,-0.67,0.24,
1411,-0.575,0.26,
1412,-0.49,0.23,
1413,-0.445,0.25,
1414,-0.455,0.295,
1415,-0.495,0.335,
1416,-0.5,0.365,
1417,-0.525,0.33,
1418,-0.545,0.27,
1419,-0.56,0.23,
1420,-0.53,0.2,
1421,-0.44,0.19,
1422,-0.4,0.21,
1423,-0.43,0.25,
1424,-0.43,0.285,
1425,-0.325,0.31,
1426,-0.21,0.3,
1427,-0.22,0.27,
1428,-0.325,0.26,
1429,-0.42,0.235,
1430,-0.48,0.22,
1431,-0.465,0.215,
1432,-0.38,0.225,
1433,-0.3,0.25,
1434,-0.31,0.26,
1435,-0.38,0.27,
1436,-0.445,0.255,
1437,-0.485,0.23,
1438,-0.5,0.21,
1439,-0.44,0.205,
1440,-0.355,0.185,
1441,-0.35,0.15,
1442,-0.425,0.085,
1443,-0.53,-0.005,
1444,-0.55,-0.055,
1445,-0.47,-0.055,
1446,-0.375,-0.035,
1447,-0.375,0.0,
1448,-0.44,0.055,
1449,-0.485,0.095,
1450,-0.45,0.125,
1451,-0.435,0.135,
1452,-0.41,0.13,
1453,-0.37,0.125,
1454,-0.25,0.095,
1455,-0.13,0.08,
1456,-0.085,0.08,
1457,-0.21,0.08,
1458,-0.39,0.105,
1459,-0.525,0.12,
1460,-0.52,0.105,
1461,-0.41,0.09,
1462,-0.275,0.13,
1463,-0.22,0.2,
1464,-0.155,0.31,
1465,-0.065,0.39,
1466,-0.04,0.395,
1467,-0.17,0.34,
1468,-0.36,0.265,
1469,-0.325,0.205,
1470,-0.095,0.18,
1471,0.145,0.16,
1472,0.24,0.175,
1473,0.205,0.205,
1474,0.195,0.205,
1475,0.295,0.215,
1476,0.49,0.165,
1477,0.79,0.12,
1478,1.11,0.035,
1479,1.355,-0.035,
1480,1.405,-0.1,
1481,1.355,-0.095,
1482,1.36,-0.085,
1483,1.465,-0.105,N
1484,1.56,-0.21,
1485,1.55,-0.32,
1486,1.365,-0.41,
1487,1.045,-0.38,
1488,0.86,-0.325,
1489,0.795,-0.3,
1490,0.645,-0.28,
1491,0.35,-0.245,
1492,0.06,-0.21,
1493,-0.13,-0.15,
1494,-0.215,-0.065,
1495,-0.295,0.01,
1496,-0.415,0.05,
1497,-0.515,0.065,
1498,-0.555,0.09,
1499,-0.51,0.11,
1500,-0.45,0.145,
1501,-0.445,0.22,
1502,-0.53,0.31,
1503,-0.6,0.38,
1504,-0.55,0.415,
1505,-0.425,0.39,
1506,-0.365,0.325,
1507,-0.445,0.24,
1508,-0.54,0.21,
1509,-0.56,0.225,
1510,-0.55,0.28,
1511,-0.525,0.32,
1512,-0.51,0.315,
1513,-0.54,0.28,
1514,-0.55,0.23,
1515,-0.565,0.14,
1516,-0.61,0.035,
1517,-0.61,-0.085,
1518,-0.545,-0.165,
1519,-0.44,-0.22,
1520,-0.455,-0.24,
1521,-0.58,-0.195,
1522,-0.685,-0.125,
1523,-0.66,-0.03,
1524,-0.595,0.01,
1525,-0.585,-0.02,
1526,-0.61,-0.11,
1527,-0.575,-0.185,
1528,-0.545,-0.215,
1529,-0.535,-0.195,
1530,-0.495,-0.145,
1531,-0.415,-0.115,
1532,-0.39,-0.115,
1533,-0.4,-0.115,
1534,-0.43,-0.11,
1535,-0.42,-0.08,
1536,-0.385,-0.04,
1537,-0.3,0.005,
1538,-0.21,-0.01,
1539,-0.255,-0.025,
1540,-0.36,-0.04,
1541,-0.365,0.005,
1542,-0.29,0.09,
1543,-0.285,0.135,
1544,-0.33,0.135,
1545,-0.31,0.075,
1546,-0.2,0.01,
1547,-0.105,0.01,
1548,-0.14,0.065,
1549,-0.23,0.14,
1550,-0.25,0.225,
1551,-0.215,0.23,
1552,-0.17,0.14,
1553,-0.175,0.06,
1554,-0.145,0.02,
1555,-0.055,0.025,
1556,0.01,0.005,
1557,0.02,0.015,
1558,-0.02,0.045,
1559,-0.02,0.1,
1560,-0.04,0.165,
1561,-0.095,0.2,
1562,-0.17,0.215,
1563,-0.165,0.195,
1564,-0.135,0.195,
1565,-0.145,0.2,
1566,-0.155,0.195,
1567,-0.125,0.165,
1568,-0.06,0.135,
1569,-0.005,0.135,
1570,-0.04,0.185,
1571,-0.09,0.21,
1572,-0.14,0.205,
1573,-0.145,0.17,
1574,-0.175,0.125,
1575,-0.185,0.085,
1576,-0.155,0.07,
1577,-0.135,0.05,
1578,-0.145,0.03,
1579,-0.12,-0.01,
1580,-0.07,-0.05,
1581,-0.025,-0.065,
1582,-0.06,-0.08,
1583,-0.15,-0.08,
1584,-0.225,-0.09,
1585,-0.26,-0.12,
1586,-0.21,-0.17,
1587,-0.185,-0.215,
1588,-0.16,-0.25,
1589,-0.2,-0.225,
1590,-0.24,-0.175,
1591,-0.235,-0.11,
1592,-0.165,-0.06,
1593,-0.12,0.01,
1594,-0.105,0.055,
1595,-0.12,0.06,
1596,-0.215,0.04,
1597,-0.275,-0.005,
1598,-0.24,-0.08,
1599,-0.135,-0.1,
1600,-0.115,-0.105,
1601,-0.145,-0.06,
1602,-0.165,-0.005,
1603,-0.14,0.02,
1604,-0.1,0.01,
1605,-0.07,-0.01,
1606,-0.12,-0.015,
1607,-0.22,0.0,
1608,-0.245,0.05,
1609,-0.15,0.1,
1610,-0.105,0.17,
1611,-0.13,0.22,
1612,-0.1,0.27,
1613,-0.03,0.275,
1614,0.045,0.22,
1615,0.095,0.115,
1616,0.12,-0.01,
1617,0.1,-0.09,
1618,-0.05,-0.11,
1619,-0.265,-0.035,
1620,-0.33,0.03,
1621,-0.24,0.01,
1622,-0.17,-0.035,
1623,-0.165,-0.1,
1624,-0.145,-0.115,
1625,-0.08,-0.085,
1626,-0.035,-0.055,
1627,-0.035,-0.015,
1628,-0.075,-0.01,
1629,-0.15,-0.015,
1630,-0.19,-0.02,
1631,-0.14,-0.005,
1632,-0.08,0.01,
1633,-0.07,-0.015,
1634,-0.1,-0.06,
1635,-0.1,-0.105,
1636,-0.06,-0.14,
1637,-0.005,-0.16,
1638,-0.02,-0.17,
1639,-0.06,-0.19,
1640,-0.08,-0.195,
1641,-0.075,-0.17,
1642,-0.065,-0.12,
1643,-0.01,-0.05,
1644,0.08,-0.02,
1645,0.175,-0.065,
1646,0.16,-0.16,
1647,0.03,-0.24,
1648,-0.055,-0.295,
1649,-0.03,-0.285,
1650,0.05,-0.23,
1651,0.12,-0.195,
1652,0.04,-0.155,
1653,-0.115,-0.12,
1654,-0.145,-0.085,
1655,-0.07,-0.04,
1656,0.015,-0.025,
1657,0.085,0.0,
1658,0.075,0.03,
1659,0.035,0.075,
1660,0.04,0.13,
1661,0.085,0.155,
1662,0.125,0.155,
1663,0.13,0.13,
1664,0.115,0.125,
1665,0.035,0.15,
1666,0.005,0.145,
1667,0.025,0.11,
1668,0.18,0.01,
1669,0.4,-0.055,
1670,0.415,-0.095,
1671,0.2,-0.07,
1672,0.005,-0.04,
1673,-0.05,-0.005,
1674,0.06,0.025,
1675,0.21,0.045,
1676,0.275,0.035,
1677,0.215,0.0,
1678,0.06,-0.035,
1679,-0.09,-0.075,
1680,-0.085,-0.115,
1681,0.02,-0.135,
1682,0.1,-0.11,
1683,0.145,-0.075,
1684,0.125,-0.045,
1685,0.03,0.0,
1686,0.0,0.02,
1687,-0.025,0.0,
1688,-0.015,-0.025,
1689,-0.02,-0.065,
1690,0.0,-0.1,
1691,0.04,-0.135,
1692,0.025,-0.175,
1693,0.015,-0.225,
1694,0.0,-0.285,
1695,-0.005,-0.265,
1696,0.005,-0.23,
1697,0.065,-0.17,
1698,0.2,-0.145,
1699,0.255,-0.165,
1700,0.14,-0.255,
1701,-0.025,-0.29,
1702,-0.025,-0.315,
1703,0.215,-0.295,
1704,0.505,-0.265,
1705,0.59,-0.245,
1706,0.455,-0.24,
1707,0.285,-0.205,
1708,0.265,-0.15,
1709,0.355,-0.075,
1710,0.545,-0.055,
1711,0.765,-0.05,
1712,1.06,-0.105,
1713,1.395,-0.155,
1714,1.645,-0.2,
1715,1.84,-0.27,
1716,1.925,-0.345,
1717,1.965,-0.4,
1718,1.965,-0.475,
1719,1.9,-0.535,N
1720,1.805,-0.555,
1721,1.75,-0.55,
1722,1.665,-0.56,
1723,1.54,-0.56,
1724,1.385,-0.55,
1725,1.185,-0.57,
1726,0.96,-0.545,
1727,0.625,-0.52,
1728,0.28,-0.46,
1729,0.04,-0.4,
1730,-0.055,-0.33,
1731,-0.08,-0.24,
1732,-0.08,-0.185,
1733,-0.1,-0.14,
1734,-0.115,-0.09,
1735,-0.115,-0.06,
1736,-0.15,-0.05,
1737,-0.155,-0.08,
1738,-0.22,-0.095,
1739,-0.235,-0.085,
1740,-0.195,-0.07,
1741,-0.125,-0.055,
1742,-0.1,-0.07,
1743,-0.11,-0.085,
1744,-0.13,-0.06,
1745,-0.175,-0.02,
1746,-0.22,0.06,
1747,-0.25,0.095,
1748,-0.19,0.025,
1749,-0.06,-0.145,
1750,0.05,-0.305,
1751,0.025,-0.465,
1752,-0.11,-0.5,
1753,-0.27,-0.47,
1754,-0.315,-0.41,
1755,-0.29,-0.375,
1756,-0.23,-0.315,
1757,-0.19,-0.255,
1758,-0.12,-0.24,
1759,-0.07,-0.27,
1760,-0.05,-0.335,
1761,-0.105,-0.39,
1762,-0.2,-0.375,
1763,-0.33,-0.285,
1764,-0.375,-0.21,
1765,-0.28,-0.15,
1766,-0.14,-0.145,
1767,-0.065,-0.11,
1768,-0.06,-0.1,
1769,-0.015,-0.07,
1770,0.055,-0.025,
1771,0.01,0.005,
1772,-0.165,0.025,
1773,-0.26,0.05,
1774,-0.225,0.055,
1775,-0.12,0.075,
1776,-0.05,0.105,
1777,0.04,0.1,
1778,0.085,0.1,
1779,0.125,0.125,
1780,0.15,0.135,
1781,0.195,0.16,
1782,0.24,0.165,
1783,0.14,0.14,
1784,-0.01,0.115,
1785,-0.13,0.1,
1786,-0.09,0.11,
1787,0.04,0.155,
1788,0.14,0.215,
1789,0.14,0.3,
1790,0.085,0.33,
1791,0.125,0.34,
1792,0.24,0.33,
1793,0.315,0.295,
1794,0.25,0.285,
1795,0.115,0.245,
1796,-0.055,0.185,
1797,-0.09,0.115,
1798,0.015,0.015,
1799,0.13,-0.09,
1800,0.245,-0.135,
1801,0.365,-0.17,
1802,0.365,-0.19,
1803,0.23,-0.22,
1804,0.115,-0.225,
1805,0.08,-0.225,
1806,0.21,-0.21,
1807,0.37,-0.205,
1808,0.425,-0.23,
1809,0.4,-0.285,
1810,0.43,-0.33,
1811,0.505,-0.345,
1812,0.455,-0.345,
1813,0.265,-0.325,
1814,0.12,-0.33,
1815,0.085,-0.335,
1816,0.09,-0.325,
1817,0.08,-0.265,
1818,0.055,-0.205,
1819,0.03,-0.145,
1820,0.06,-0.155,
1821,0.095,-0.2,
1822,0.075,-0.25,
1823,0.075,-0.275,
1824,0.165,-0.28,
1825,0.305,-0.24,
1826,0.365,-0.215,
1827,0.31,-0.16,
1828,0.185,-0.105,
1829,0.14,-0.015,
1830,0.165,0.075,
1831,0.175,0.12,
1832,0.06,0.095,
1833,-0.04,0.015,
1834,0.03,-0.1,
1835,0.195,-0.185,
1836,0.285,-0.225,
1837,0.265,-0.195,
1838,0.21,-0.16,
1839,0.215,-0.115,
1840,0.235,-0.09,
1841,0.265,-0.06,
1842,0.28,-0.03,
1843,0.275,-0.03,
1844,0.265,-0.06,
1845,0.255,-0.085,
1846,0.24,-0.095,
1847,0.225,-0.09,
1848,0.29,-0.08,
1849,0.46,-0.07,
1850,0.615,-0.07,
1851,0.665,-0.09,
1852,0.58,-0.07,
1853,0.37,0.01,
1854,0.125,0.115,
1855,-0.02,0.215,
1856,-0.005,0.27,
1857,0.025,0.275,
1858,0.06,0.235,
1859,0.115,0.16,
1860,0.175,0.035,
1861,0.3,-0.09,
1862,0.385,-0.265,
1863,0.405,-0.41,
1864,0.46,-0.49,
1865,0.58,-0.54,
1866,0.725,-0.575,
1867,0.88,-0.63,
1868,0.91,-0.705,
1869,0.855,-0.78,
1870,0.855,-0.825,
1871,1.065,-0.835,
1872,1.36,-0.83,
1873,1.575,-0.815,
1874,1.62,-0.78,N
1875,1.445,-0.735,
1876,1.22,-0.665,
1877,1.17,-0.63,
1878,1.25,-0.625,
1879,1.24,-0.63,
1880,0.96,-0.62,
1881,0.52,-0.62,
1882,0.26,-0.56,
1883,0.25,-0.48,
1884,0.29,-0.39,
1885,0.2,-0.31,
1886,0.0,-0.23,
1887,-0.115,-0.175,
1888,-0.075,-0.15,
1889,-0.04,-0.13,
1890,-0.015,-0.1,
1891,-0.02,-0.105,
1892,-0.005,-0.105,
1893,0.03,-0.12,
1894,0.045,-0.1,
1895,-0.005,-0.07,
1896,-0.085,-0.04,
1897,-0.09,-0.035,
1898,-0.065,-0.035,
1899,-0.025,-0.04,
1900,-0.02,-0.035,
1901,-0.015,-0.02,
1902,0.025,0.0,
1903,0.09,-0.01,
1904,0.135,-0.025,
1905,0.125,-0.05,
1906,0.055,-0.065,
1907,-0.015,-0.065,
1908,-0.015,-0.035,
1909,0.005,-0.05,
1910,0.035,-0.085,
1911,0.06,-0.125,
1912,0.115,-0.165,
1913,0.23,-0.185,
1914,0.325,-0.21,
1915,0.37,-0.225,
1916,0.35,-0.225,
1917,0.365,-0.24,
1918,0.445,-0.275,
1919,0.61,-0.27,
1920,0.72,-0.275,
1921,0.625,-0.27,
1922,0.44,-0.26,
1923,0.58,-0.265,
1924,0.985,-0.285,
1925,0.955,-0.3,
1926,0.315,-0.28,
1927,-0.325,-0.21,
1928,-0.33,-0.1,
1929,0.04,-0.055,
1930,0.36,-0.01,
1931,0.485,0.055,
1932,0.495,0.1,
1933,0.42,0.105,
1934,0.39,0.05,
1935,0.42,-0.02,
1936,0.505,-0.03,
1937,0.56,0.02,
1938,0.515,0.11,
1939,0.46,0.17,
1940,0.45,0.15,
1941,0.435,0.08,
1942,0.41,-0.01,
1943,0.415,-0.045,
1944,0.405,-0.06,
1945,0.385,-0.03,
1946,0.39,-0.025,
1947,0.37,-0.03,
1948,0.35,-0.01,
1949,0.32,0.01,
1950,0.31,0.035,
1951,0.305,0.025,
1952,0.245,0.025,
1953,0.17,0.0,
1954,0.185,-0.005,
1955,0.23,-0.015,
1956,0.24,-0.005,
1957,0.25,-0.005,
1958,0.225,-0.01,
1959,0.19,-0.045,
1960,0.165,-0.07,
1961,0.18,-0.055,
1962,0.21,-0.045,
1963,0.215,-0.05,
1964,0.21,-0.09,
1965,0.205,-0.125,
1966,0.22,-0.16,
1967,0.27,-0.18,
1968,0.33,-0.2,
1969,0.435,-0.24,
1970,0.485,-0.285,
1971,0.455,-0.31,
1972,0.36,-0.31,
1973,0.32,-0.3,
1974,0.36,-0.285,
1975,0.385,-0.285,
1976,0.295,-0.29,
1977,0.265,-0.29,
1978,0.33,-0.31,
1979,0.4,-0.305,
1980,0.32,-0.295,
1981,0.085,-0.27,
1982,-0.1,-0.22,
1983,-0.13,-0.14,
1984,-0.035,-0.125,
1985,0.085,-0.1,
1986,0.16,-0.085,
1987,0.185,-0.07,
1988,0.165,-0.075,
1989,0.12,-0.065,
1990,0.125,-0.07,
1991,0.2,-0.05,
1992,0.28,-0.02,
1993,0.275,-0.005,
1994,0.235,0.0,
1995,0.195,-0.015,
1996,0.185,-0.005,
1997,0.205,0.03,
1998,0.285,0.045,
1999,0.345,0.05,
2000,0.36,0.07,
2001,0.36,0.095,
2002,0.43,0.125,
2003,0.545,0.155,
2004,0.63,0.165,
2005,0.55,0.145,
2006,0.3,0.14,
2007,0.08,0.115,
2008,0.025,0.07,
2009,0.08,0.03,
2010,0.14,0.025,
2011,0.19,0.06,
2012,0.165,0.05,
2013,0.105,0.055,
2014,0.1,0.065,
2015,0.2,0.09,
2016,0.385,0.125,
2017,0.515,0.07,
2018,0.53,-0.01,
2019,0.385,-0.11,
2020,0.105,-0.135,
2021,-0.15,-0.07,
2022,-0.235,0.04,
2023,-0.1,0.1,
2024,0.125,0.085,
2025,0.26,0.005,
2026,0.32,-0.09,
2027,0.315,-0.175,
2028,0.325,-0.21,
2029,0.335,-0.21,
2030,0.3,-0.225,
2031,0.23,-0.26,
2032,0.11,-0.305,
2033,0.04,-0.32,
2034,0.015,-0.32,
2035,0.125,-0.315,
2036,0.295,-0.315,
2037,0.5,-0.305,
2038,0.63,-0.26,
2039,0.615,-0.205,
2040,0.46,-0.115,
2041,0.135,-0.065,
2042,-0.125,-0.035,
2043,-0.13,-0.03,
2044,0.0,-0.035,
2045,0.065,-0.03,
2046,0.075,-0.04,
2047,0.075,-0.055,
2048,0.135,-0.135,
2049,0.175,-0.19,
2050,0.15,-0.22,
2051,0.13,-0.205,
2052,0.19,-0.16,
2053,0.325,-0.15,
2054,0.445,-0.145,
2055,0.42,-0.145,
2056,0.205,-0.12,
2057,-0.07,-0.08,
2058,-0.2,-0.035,
2059,-0.115,-0.025,
2060,0.04,-0.035,
2061,0.16,-0.045,
2062,0.2,-0.045,
2063,0.245,-0.06,
2064,0.385,-0.075,
2065,0.625,-0.105,
2066,0.84,-0.125,
2067,0.715,-0.15,
2068,0.245,-0.145,
2069,-0.165,-0.09,
2070,-0.27,-0.005,
2071,-0.155,0.015,
2072,-0.115,0.005,
2073,-0.165,0.005,
2074,-0.155,0.02,
2075,-0.02,0.02,
2076,0.19,0.0,
2077,0.41,-0.07,
2078,0.525,-0.105,
2079,0.485,-0.18,
2080,0.235,-0.185,
2081,-0.08,-0.135,
2082,-0.24,-0.065,
2083,-0.125,0.0,
2084,0.15,-0.025,
2085,0.36,-0.1,
2086,0.445,-0.21,
2087,0.535,-0.25,
2088,0.665,-0.275,
2089,0.8,-0.235,
2090,0.81,-0.185,
2091,0.795,-0.115,
2092,0.79,-0.065,
2093,0.79,-0.07,
2094,0.79,-0.075,
2095,0.85,-0.1,
2096,1.035,-0.13,
2097,1.245,-0.16,
2098,1.35,-0.205,
2099,1.42,-0.235,
2100,1.485,-0.26,
2101,1.545,-0.28,
2102,1.53,-0.325,N
2103,1.46,-0.42,
2104,1.335,-0.495,
2105,1.18,-0.56,
2106,1.08,-0.57,
2107,1.005,-0.59,
2108,0.88,-0.595,
2109,0.725,-0.585,
2110,0.535,-0.545,
2111,0.365,-0.46,
2112,0.255,-0.355,
2113,0.185,-0.275,
2114,0.075,-0.195,
2115,0.0,-0.15,
2116,0.01,-0.075,
2117,0.035,-0.01,
2118,-0.025,0.04,
2119,-0.065,0.055,
2120,-0.055,0.055,
2121,0.005,0.045,
2122,0.01,0.06,
2123,-0.13,0.075,
2124,-0.25,0.08,
2125,-0.23,0.065,
2126,-0.165,0.005,
2127,-0.175,-0.045,
2128,-0.31,-0.065,
2129,-0.44,-0.01,
2130,-0.445,0.015,
2131,-0.38,-0.005,
2132,-0.335,-0.05,
2133,-0.33,-0.12,
2134,-0.33,-0.145,
2135,-0.28,-0.135,
2136,-0.195,-0.13,
2137,-0.115,-0.115,
2138,-0.06,-0.135,
2139,-0.075,-0.165,
2140,-0.14,-0.17,
2141,-0.2,-0.16,
2142,-0.185,-0.15,
2143,-0.07,-0.185,
2144,-0.04,-0.21,
2145,-0.115,-0.205,
2146,-0.23,-0.19,
2147,-0.285,-0.185,
2148,-0.22,-0.165,
2149,-0.11,-0.175,
2150,-0.01,-0.175,
2151,0.055,-0.185,
2152,0.035,-0.18,
2153,-0.075,-0.15,
2154,-0.19,-0.12,
2155,-0.235,-0.1,
2156,-0.19,-0.085,
2157,-0.125,-0.07,
2158,-0.13,-0.025,
2159,-0.16,0.1,
2160,-0.13,0.245,
2161,-0.02,0.33,
2162,-0.045,0.32,
2163,-0.27,0.195,
2164,-0.545,0.085,
2165,-0.58,-0.015,
2166,-0.44,-0.04,
2167,-0.295,-0.05,
2168,-0.185,-0.085,
2169,-0.11,-0.095,
2170,-0.105,-0.095,
2171,-0.15,-0.06,
2172,-0.205,-0.005,
2173,-0.225,0.04,
2174,-0.195,0.055,
2175,-0.13,0.07,
2176,-0.085,0.1,
2177,-0.035,0.145,
2178,-0.01,0.175,
2179,-0.015,0.17,
2180,-0.035,0.125,
2181,-0.035,0.1,
2182,0.03,0.095,
2183,0.075,0.1,
2184,0.055,0.085,
2185,0.035,0.095,
2186,0.055,0.085,
2187,0.065,0.06,
2188,0.05,0.055,
2189,0.025,0.07,
2190,0.0,0.075,
2191,0.045,0.08,
2192,0.115,0.045,
2193,0.175,0.015,
2194,0.22,-0.01,
2195,0.28,0.0,
2196,0.295,0.0,
2197,0.18,-0.01,
2198,0.035,-0.01,
2199,-0.07,0.0,
2200,-0.045,0.03,
2201,0.15,0.08,
2202,0.44,0.14,
2203,0.565,0.16,
2204,0.395,0.11,
2205,0.09,0.03,
2206,-0.075,-0.06,
2207,-0.13,-0.145,
2208,-0.115,-0.18,
2209,-0.17,-0.165,
2210,-0.16,-0.12,
2211,-0.115,-0.065,
2212,-0.02,0.03,
2213,0.075,0.1,
2214,0.14,0.115,
2215,0.165,0.07,
2216,0.11,0.0,
2217,-0.025,-0.085,
2218,-0.14,-0.11,
2219,-0.145,-0.075,
2220,-0.08,-0.04,
2221,0.0,-0.025,
2222,0.075,-0.03,
2223,0.14,-0.04,
2224,0.24,-0.035,
2225,0.38,-0.02,
2226,0.37,-0.03,
2227,0.19,-0.03,
2228,-0.08,-0.045,
2229,-0.135,-0.065,
2230,0.13,-0.07,
2231,0.455,-0.04,
2232,0.59,-0.025,
2233,0.405,-0.005,
2234,0.105,-0.01,
2235,-0.075,-0.005,
2236,-0.045,0.065,
2237,0.08,0.135,
2238,0.185,0.2,
2239,0.18,0.25,
2240,0.06,0.275,
2241,-0.065,0.28,
2242,-0.1,0.33,
2243,-0.14,0.365,
2244,-0.315,0.375,
2245,-0.575,0.35,
2246,-0.79,0.31,
2247,-0.895,0.205,
2248,-0.93,0.115,
2249,-0.99,0.045,
2250,-1.065,-0.015,
2251,-1.115,-0.105,V
2252,-1.15,-0.2,
2253,-1.055,-0.295,
2254,-0.855,-0.35,
2255,-0.625,-0.395,
2256,-0.43,-0.47,
2257,-0.355,-0.495,
2258,-0.46,-0.52,
2259,-0.605,-0.505,
2260,-0.705,-0.455,
2261,-0.655,-0.39,
2262,-0.46,-0.325,
2263,-0.24,-0.35,
2264,-0.085,-0.44,
2265,0.105,-0.565,
2266,0.32,-0.605,
2267,0.495,-0.615,
2268,0.445,-0.565,
2269,0.28,-0.5,
2270,0.18,-0.47,
2271,0.2,-0.465,
2272,0.18,-0.455,
2273,0.065,-0.415,
2274,-0.09,-0.36,
2275,-0.275,-0.265,
2276,-0.405,-0.195,
2277,-0.4,-0.125,
2278,-0.315,-0.08,
2279,-0.2,-0.02,
2280,-0.07,0.04,
2281,0.04,0.09,
2282,0.1,0.115,
2283,0.085,0.15,
2284,0.03,0.2,
2285,0.04,0.215,
2286,0.12,0.175,
2287,0.1,0.09,
2288,-0.005,-0.02,
2289,-0.115,-0.12,
2290,-0.16,-0.145,
2291,-0.155,-0.105,
2292,-0.115,-0.07,
2293,0.0,-0.05,
2294,0.165,-0.055,
2295,0.25,-0.07,
2296,0.225,-0.07,
2297,0.135,-0.045,
2298,0.065,-0.03,
2299,0.035,-0.02,
2300,0.05,-0.005,
2301,0.16,-0.005,
2302,0.315,0.01,
2303,0.455,0.02,
2304,0.545,0.02,
2305,0.615,0.015,
2306,0.575,0.005,
2307,0.485,0.015,
2308,0.39,0.04,
2309,0.38,0.065,
2310,0.435,0.095,
2311,0.53,0.095,
2312,0.605,0.08,
2313,0.645,0.06,
2314,0.635,0.035,
2315,0.595,0.035,
2316,0.54,0.05,
2317,0.56,0.065,
2318,0.705,0.055,
2319,0.94,0.025,
2320,1.07,0.015,
2321,1.085,0.045,
2322,1.005,0.075,
2323,0.895,0.105,
2324,0.78,0.15,
2325,0.615,0.16,
2326,0.54,0.14,
2327,0.54,0.105,
2328,0.64,0.08,
2329,0.71,0.02,
2330,0.67,-0.015,
2331,0.585,-0.04,
2332,0.535,-0.025,
2333,0.52,-0.025,
2334,0.535,0.005,
2335,0.555,0.035,
2336,0.565,0.04,
2337,0.55,0.025,
2338,0.47,0.025,
2339,0.295,0.03,
2340,0.14,0.07,
2341,0.16,0.06,
2342,0.23,0.035,
2343,0.28,0.005,
2344,0.28,-0.01,
2345,0.325,-0.005,
2346,0.34,0.01,
2347,0.3,0.015,
2348,0.175,-0.01,
2349,0.08,-0.02,
2350,0.05,-0.055,
2351,0.04,-0.05,
2352,0.15,-0.055,
2353,0.34,-0.055,
2354,0.44,-0.055,
2355,0.315,-0.045,
2356,0.085,0.0,
2357,-0.13,0.08,
2358,-0.19,0.155,
2359,-0.2,0.205,
2360,-0.255,0.27,
2361,-0.345,0.305,
2362,-0.44,0.345,
2363,-0.565,0.4,
2364,-0.74,0.44,
2365,-0.965,0.435,
2366,-1.19,0.4,
2367,-1.37,0.355,
2368,-1.43,0.295,V
2369,-1.4,0.25,
2370,-1.325,0.21,
2371,-1.155,0.175,
2372,-0.875,0.12,
2373,-0.58,0.05,
2374,-0.4,-0.02,
2375,-0.28,-0.095,
2376,-0.14,-0.155,
2377,-0.02,-0.21,
2378,0.04,-0.255,
2379,0.04,-0.29,
2380,0.005,-0.285,
2381,-0.065,-0.305,
2382,-0.14,-0.315,
2383,-0.185,-0.34,
2384,-0.235,-0.365,
2385,-0.315,-0.39,
2386,-0.365,-0.37,
2387,-0.31,-0.31,
2388,-0.245,-0.275,
2389,-0.2,-0.255,
2390,-0.17,-0.24,
2391,-0.11,-0.235,
2392,-0.035,-0.215,
2393,0.01,-0.185,
2394,-0.025,-0.145,
2395,-0.115,-0.14,
2396,-0.17,-0.13,
2397,-0.155,-0.115,
2398,-0.16,-0.105,
2399,-0.23,-0.085,
2400,-0.335,-0.065,
2401,-0.34,-0.04,
2402,-0.275,-0.025,
2403,-0.22,-0.02,
2404,-0.27,-0.01,
2405,-0.365,0.005,
2406,-0.38,0.01,
2407,-0.315,0.02,
2408,-0.2,0.0,
2409,-0.135,-0.045,
2410,-0.14,-0.065,
2411,-0.165,-0.065,
2412,-0.175,-0.065,
2413,-0.105,-0.06,
2414,-0.05,-0.07,
2415,-0.045,-0.08,
2416,-0.115,-0.09,
2417,-0.135,-0.075,
2418,-0.025,-0.06,
2419,0.205,-0.06,
2420,0.395,-0.1,
2421,0.405,-0.11,
2422,0.235,-0.13,
2423,0.025,-0.105,
2424,-0.125,-0.065,
2425,-0.18,-0.05,
2426,-0.205,-0.04,
2427,-0.16,-0.04,
2428,-0.105,-0.045,
2429,-0.04,-0.03,
2430,0.025,-0.045,
2431,0.075,-0.045,
2432,0.18,-0.07,
2433,0.295,-0.07,
2434,0.33,-0.085,
2435,0.27,-0.08,
2436,0.22,-0.08,
2437,0.2,-0.065,
2438,0.255,-0.08,
2439,0.28,-0.085,
2440,0.3,-0.07,
2441,0.345,-0.06,
2442,0.39,-0.015,
2443,0.41,0.0,
2444,0.395,-0.005,
2445,0.45,-0.005,
2446,0.535,0.015,
2447,0.605,0.07,
2448,0.575,0.1,
2449,0.49,0.125,
2450,0.315,0.145,
2451,0.105,0.135,
2452,-0.015,0.115,
2453,0.025,0.08,
2454,0.195,0.08,
2455,0.315,0.045,
2456,0.305,0.04,
2457,0.19,0.035,
2458,0.11,0.05,
2459,0.08,0.095,
2460,0.09,0.12,
2461,0.095,0.105,
2462,-0.03,0.065,
2463,-0.24,0.015,
2464,-0.315,-0.02,
2465,-0.225,-0.04,
2466,-0.105,-0.07,
2467,-0.04,-0.085,
2468,-0.025,-0.11,
2469,-0.035,-0.14,
2470,-0.035,-0.135,
2471,-0.015,-0.145,
2472,0.005,-0.12,
2473,0.015,-0.12,
2474,0.015,-0.13,
2475,0.03,-0.125,
2476,0.07,-0.12,
2477,0.115,-0.1,
2478,0.135,-0.08,
2479,0.09,-0.085,
2480,0.035,-0.105,
2481,-0.02,-0.115,
2482,-0.04,-0.08,
2483,-0.05,-0.07,
2484,-0.035,-0.045,
2485,-0.02,-0.03,
2486,-0.08,-0.01,
2487,-0.215,-0.01,
2488,-0.335,0.005,
2489,-0.31,0.04,
2490,-0.155,0.115,
2491,0.02,0.135,
2492,0.095,0.13,
2493,0.12,0.085,
2494,0.115,0.07,
2495,0.075,0.09,
2496,0.02,0.115,
2497,-0.035,0.125,
2498,-0.125,0.065,
2499,-0.195,0.005,
2500,-0.195,-0.08,
2501,-0.065,-0.12,
2502,0.135,-0.12,
2503,0.295,-0.1,
2504,0.29,-0.055,
2505,0.205,-0.005,
2506,0.175,0.055,
2507,0.22,0.105,
2508,0.28,0.135,
2509,0.39,0.155,
2510,0.53,0.17,
2511,0.645,0.185,
2512,0.66,0.19,
2513,0.66,0.175,
2514,0.705,0.175,
2515,0.81,0.165,
2516,0.89,0.08,
2517,1.0,-0.095,
2518,1.095,-0.32,N
2519,1.1,-0.535,
2520,0.95,-0.68,
2521,0.705,-0.76,
2522,0.545,-0.785,
2523,0.53,-0.77,
2524,0.51,-0.715,
2525,0.42,-0.63,
2526,0.33,-0.56,
2527,0.3,-0.495,
2528,0.275,-0.455,
2529,0.125,-0.405,
2530,-0.175,-0.335,
2531,-0.455,-0.245,
2532,-0.505,-0.2,
2533,-0.27,-0.175,
2534,0.065,-0.19,
2535,0.205,-0.205,
2536,0.02,-0.21,
2537,-0.36,-0.17,
2538,-0.66,-0.14,
2539,-0.75,-0.11,
2540,-0.68,-0.07,
2541,-0.55,-0.085,
2542,-0.425,-0.09,
2543,-0.36,-0.07,
2544,-0.395,-0.06,
2545,-0.505,-0.065,
2546,-0.625,-0.06,
2547,-0.65,-0.05,
2548,-0.59,-0.04,
2549,-0.47,-0.035,
2550,-0.385,-0.03,
2551,-0.335,-0.035,
2552,-0.345,-0.055,
2553,-0.425,-0.07,
2554,-0.505,-0.065,
2555,-0.54,-0.055,
2556,-0.5,-0.02,
2557,-0.425,-0.01,
2558,-0.4,-0.02,
2559,-0.37,-0.045,
2560,-0.355,-0.045,
2561,-0.28,-0.055,
2562,-0.155,-0.06,
2563,-0.065,-0.075,
2564,-0.035,-0.095,
2565,-0.005,-0.135,
2566,0.0,-0.135,
2567,-0.065,-0.155,
2568,-0.21,-0.165,
2569,-0.43,-0.155,
2570,-0.61,-0.145,
2571,-0.675,-0.145,
2572,-0.575,-0.145,
2573,-0.395,-0.13,
2574,-0.25,-0.105,
2575,-0.295,-0.075,
2576,-0.445,-0.025,
2577,-0.55,0.025,
2578,-0.595,0.075,
2579,-0.565,0.125,
2580,-0.45,0.12,
2581,-0.2,0.065,
2582,0.01,-0.045,
2583,0.065,-0.15,
2584,-0.035,-0.195,
2585,-0.21,-0.185,
2586,-0.31,-0.125,
2587,-0.31,-0.085,
2588,-0.245,-0.075,
2589,-0.17,-0.075,
2590,-0.095,-0.105,
2591,0.005,-0.125,
2592,0.04,-0.125,
2593,-0.02,-0.13,
2594,-0.14,-0.14,
2595,-0.255,-0.145,
2596,-0.265,-0.145,
2597,-0.185,-0.115,
2598,-0.135,-0.085,
2599,-0.13,-0.075,
2600,-0.145,-0.075,
2601,-0.11,-0.08,
2602,-0.04,-0.09,
2603,0.02,-0.085,
2604,0.055,-0.055,
2605,0.085,-0.075,
2606,0.095,-0.085,
2607,0.05,-0.08,
2608,0.0,-0.075,
2609,-0.04,-0.05,
2610,-0.005,-0.025,
2611,0.11,-0.03,
2612,0.175,-0.035,
2613,0.15,-0.03,
2614,0.075,-0.025,
2615,0.04,-0.045,
2616,-0.015,-0.055,
2617,-0.03,-0.105,
2618,-0.06,-0.12,
2619,-0.1,-0.13,
2620,-0.2,-0.12,
2621,-0.325,-0.085,
2622,-0.405,-0.07,
2623,-0.365,-0.08,
2624,-0.255,-0.08,
2625,-0.16,-0.12,
2626,-0.115,-0.145,
2627,-0.065,-0.13,
2628,0.015,-0.12,
2629,0.085,-0.13,
2630,0.075,-0.15,
2631,-0.005,-0.175,
2632,-0.075,-0.175,
2633,-0.11,-0.16,
2634,-0.09,-0.125,
2635,-0.075,-0.115,
2636,-0.095,-0.12,
2637,-0.075,-0.14,
2638,0.015,-0.13,
2639,0.155,-0.11,
2640,0.235,-0.08,
2641,0.14,-0.025,
2642,-0.04,0.03,
2643,-0.18,0.095,
2644,-0.105,0.145,
2645,0.025,0.165,
2646,0.06,0.17,
2647,-0.065,0.105,
2648,-0.215,0.02,
2649,-0.205,-0.07,
2650,-0.015,-0.08,
2651,0.29,-0.09,
2652,0.53,-0.055,
2653,0.64,-0.075,
2654,0.725,-0.18,
2655,0.835,-0.255,
2656,0.955,-0.315,
2657,1.06,-0.365,
2658,1.17,-0.4,
2659,1.33,-0.495,N
2660,1.37,-0.585,
2661,1.295,-0.655,
2662,1.105,-0.665,
2663,0.9,-0.61,
2664,0.665,-0.525,
2665,0.345,-0.44,
2666,0.065,-0.39,
2667,0.0,-0.37,
2668,0.075,-0.3,
2669,0.135,-0.225,
2670,0.105,-0.165,
2671,0.065,-0.14,
2672,0.065,-0.105,
2673,0.075,-0.09,
2674,-0.025,-0.05,
2675,-0.23,-0.01,
2676,-0.45,0.03,
2677,-0.535,0.03,
2678,-0.495,-0.06,
2679,-0.48,-0.12,
2680,-0.565,-0.165,
2681,-0.65,-0.15,
2682,-0.675,-0.11,
2683,-0.585,-0.095,
2684,-0.52,-0.115,
2685,-0.47,-0.135,
2686,-0.505,-0.125,
2687,-0.54,-0.095,
2688,-0.53,-0.09,
2689,-0.52,-0.095,
2690,-0.51,-0.125,
2691,-0.475,-0.135,
2692,-0.46,-0.15,
2693,-0.465,-0.11,
2694,-0.48,-0.07,
2695,-0.46,-0.05,
2696,-0.41,-0.07,
2697,-0.35,-0.06,
2698,-0.28,-0.075,
2699,-0.195,-0.055,
2700,-0.185,-0.025,
2701,-0.295,-0.015,
2702,-0.395,-0.035,
2703,-0.375,-0.09,
2704,-0.295,-0.115,
2705,-0.2,-0.125,
2706,-0.225,-0.125,
2707,-0.38,-0.14,
2708,-0.555,-0.145,
2709,-0.645,-0.13,
2710,-0.6,-0.105,
2711,-0.515,-0.065,
2712,-0.45,-0.025,
2713,-0.395,-0.015,
2714,-0.35,0.0,
2715,-0.31,-0.005,
2716,-0.325,0.01,
2717,-0.315,0.045,
2718,-0.31,0.07,
2719,-0.29,0.08,
2720,-0.27,0.06,
2721,-0.235,0.055,
2722,-0.18,0.04,
2723,-0.14,0.08,
2724,-0.125,0.09,
2725,-0.13,0.09,
2726,-0.13,0.09,
2727,-0.135,0.09,
2728,-0.14,0.095,
2729,-0.115,0.095,
2730,-0.035,0.095,
2731,0.055,0.1,
2732,0.115,0.065,
2733,0.085,0.035,
2734,0.0,0.06,
2735,-0.065,0.095,
2736,-0.125,0.135,
2737,-0.195,0.145,
2738,-0.23,0.15,
2739,-0.18,0.115,
2740,-0.085,0.09,
2741,0.015,0.09,
2742,0.065,0.075,
2743,0.06,0.055,
2744,0.025,0.015,
2745,0.01,0.0,
2746,-0.005,-0.01,
2747,0.045,-0.015,
2748,0.13,-0.045,
2749,0.09,-0.1,
2750,-0.08,-0.12,
2751,-0.28,-0.16,
2752,-0.35,-0.155,
2753,-0.305,-0.13,
2754,-0.235,-0.11,
2755,-0.25,-0.12,
2756,-0.31,-0.15,
2757,-0.3,-0.175,
2758,-0.225,-0.2,
2759,-0.125,-0.23,
2760,-0.085,-0.195,
2761,-0.055,-0.2,
2762,-0.035,-0.2,
2763,-0.04,-0.19,
2764,-0.065,-0.155,
2765,-0.05,-0.12,
2766,-0.005,-0.075,
2767,0.015,-0.055,
2768,-0.025,-0.025,
2769,-0.095,0.005,
2770,-0.105,0.065,
2771,0.01,0.11,
2772,0.145,0.175,
2773,0.23,0.205,
2774,0.25,0.2,
2775,0.21,0.16,
2776,0.165,0.11,
2777,0.065,0.085,
2778,-0.05,0.06,
2779,-0.13,0.04,
2780,-0.18,0.045,
2781,-0.16,0.02,
2782,-0.135,0.035,
2783,-0.03,0.08,
2784,0.205,0.11,
2785,0.49,0.1,
2786,0.705,0.04,
2787,0.83,-0.035,
2788,0.885,-0.12,
2789,0.98,-0.12,
2790,1.1,-0.105,
2791,1.205,-0.12,
2792,1.29,-0.185,N
2793,1.295,-0.295,
2794,1.175,-0.405,
2795,1.015,-0.49,
2796,0.935,-0.53,
2797,0.87,-0.55,
2798,0.7,-0.52,
2799,0.34,-0.47,
2800,-0.095,-0.375,
2801,-0.34,-0.25,
2802,-0.37,-0.185,
2803,-0.31,-0.13,
2804,-0.31,-0.125,
2805,-0.37,-0.11,
2806,-0.46,-0.095,
2807,-0.445,-0.07,
2808,-0.41,-0.065,
2809,-0.37,-0.075,
2810,-0.33,-0.095,
2811,-0.305,-0.08,
2812,-0.35,-0.01,
2813,-0.48,0.065,
2814,-0.555,0.125,
2815,-0.51,0.115,
2816,-0.36,0.02,
2817,-0.275,-0.125,
2818,-0.335,-0.24,
2819,-0.58,-0.285,
2820,-0.89,-0.29,
2821,-0.96,-0.235,
2822,-0.725,-0.2,
2823,-0.42,-0.14,
2824,-0.33,-0.07,
2825,-0.46,-0.055,
2826,-0.48,-0.045,
2827,-0.375,-0.06,
2828,-0.425,-0.11,
2829,-0.65,-0.11,
2830,-0.82,-0.08,
2831,-0.8,-0.02,
2832,-0.645,0.025,
2833,-0.5,0.03,
2834,-0.475,0.04,
2835,-0.54,0.03,
2836,-0.555,0.05,
2837,-0.49,0.08,
2838,-0.41,0.08,
2839,-0.425,0.05,
2840,-0.505,0.045,
2841,-0.55,0.015,
2842,-0.635,0.035,
2843,-0.715,0.045,
2844,-0.66,0.1,
2845,-0.56,0.105,
2846,-0.52,0.105,
2847,-0.54,0.12,
2848,-0.585,0.12,
2849,-0.53,0.14,
2850,-0.39,0.13,
2851,-0.2,0.1,
2852,-0.11,0.075,
2853,-0.19,0.065,
2854,-0.375,0.085,
2855,-0.515,0.1,
2856,-0.545,0.14,
2857,-0.46,0.14,
2858,-0.44,0.125,
2859,-0.455,0.12,
2860,-0.4,0.12,
2861,-0.315,0.11,
2862,-0.225,0.115,
2863,-0.185,0.095,
2864,-0.265,0.075,
2865,-0.365,0.065,
2866,-0.415,0.06,
2867,-0.285,0.095,
2868,-0.055,0.1,
2869,0.085,0.045,
2870,-0.03,-0.03,
2871,-0.18,-0.135,
2872,-0.18,-0.175,
2873,-0.075,-0.17,
2874,0.0,-0.135,
2875,0.075,-0.105,
2876,0.065,-0.095,
2877,-0.08,-0.09,
2878,-0.285,-0.065,
2879,-0.435,-0.01,
2880,-0.39,0.05,
2881,-0.165,0.07,
2882,-0.03,0.065,
2883,-0.165,0.06,
2884,-0.395,0.07,
2885,-0.46,0.095,
2886,-0.37,0.08,
2887,-0.275,0.055,
2888,-0.28,0.02,
2889,-0.32,0.015,
2890,-0.31,0.025,
2891,-0.2,0.075,
2892,-0.12,0.125,
2893,-0.13,0.175,
2894,-0.185,0.2,
2895,-0.22,0.19,
2896,-0.17,0.17,
2897,-0.1,0.135,
2898,-0.025,0.095,
2899,-0.045,0.065,
2900,-0.295,0.005,
2901,-0.595,-0.005,
2902,-0.72,0.03,
2903,-0.535,0.07,
2904,-0.27,0.105,
2905,-0.115,0.11,
2906,-0.145,0.095,
2907,-0.3,0.105,
2908,-0.475,0.1,
2909,-0.51,0.09,
2910,-0.435,0.09,
2911,-0.34,0.07,
2912,-0.305,0.055,
2913,-0.305,0.06,
2914,-0.255,0.075,
2915,-0.12,0.105,
2916,-0.015,0.13,
2917,-0.01,0.125,
2918,-0.11,0.125,
2919,-0.2,0.12,
2920,-0.245,0.145,
2921,-0.15,0.175,
2922,0.085,0.195,
2923,0.285,0.17,
2924,0.35,0.135,
2925,0.38,0.08,
2926,0.5,0.03,
2927,0.7,-0.04,
2928,0.87,-0.105,
2929,1.01,-0.2,
2930,1.155,-0.27,
2931,1.28,-0.31,
2932,1.315,-0.35,
2933,1.34,-0.385,N
2934,1.33,-0.43,
2935,1.23,-0.48,
2936,1.065,-0.51,
2937,0.95,-0.53,
2938,0.9,-0.54,
2939,0.8,-0.52,
2940,0.495,-0.45,
2941,0.005,-0.395,
2942,-0.44,-0.33,
2943,-0.665,-0.255,
2944,-0.66,-0.175,
2945,-0.575,-0.105,
2946,-0.55,-0.04,
2947,-0.58,-0.025,
2948,-0.675,0.005,
2949,-0.78,0.05,
2950,-0.89,0.065,
2951,-0.99,0.11,
2952,-1.025,0.14,
2953,-0.97,0.155,
2954,-0.87,0.13,
2955,-0.81,0.13,
2956,-0.795,0.135,
2957,-0.775,0.125,
2958,-0.765,0.135,
2959,-0.76,0.135,
2960,-0.81,0.1,
2961,-0.85,0.08,
2962,-0.89,0.08,
2963,-0.905,0.105,
2964,-0.895,0.13,
2965,-0.85,0.11,
2966,-0.775,0.095,
2967,-0.72,0.085,
2968,-0.68,0.095,
2969,-0.675,0.12,
2970,-0.745,0.145,
2971,-0.875,0.17,
2972,-0.905,0.145,
2973,-0.765,0.11,
2974,-0.475,0.065,
2975,-0.32,0.04,
2976,-0.5,0.045,
2977,-0.885,0.075,
2978,-1.15,0.095,
2979,-1.09,0.095,
2980,-0.875,0.095,
2981,-0.675,0.045,
2982,-0.635,0.01,
2983,-0.67,-0.03,
2984,-0.705,-0.06,
2985,-0.725,-0.06,
2986,-0.835,-0.04,
2987,-0.945,0.01,
2988,-0.99,0.05,
2989,-0.975,0.075,
2990,-0.875,0.095,
2991,-0.775,0.095,
2992,-0.745,0.125,
2993,-0.735,0.14,
2994,-0.71,0.155,
2995,-0.665,0.155,
2996,-0.62,0.165,
2997,-0.61,0.16,
2998,-0.58,0.145,
2999,-0.475,0.175,
3000,-0.305,0.18,
3001,-0.215,0.185,
3002,-0.355,0.19,
3003,-0.57,0.21,
3004,-0.695,0.25,
3005,-0.69,0.33,
3006,-0.69,0.37,
3007,-0.715,0.37,
3008,-0.635,0.31,
3009,-0.395,0.215,
3010,-0.23,0.14,
3011,-0.315,0.105,
3012,-0.49,0.095,
3013,-0.575,0.095,
3014,-0.58,0.11,
3015,-0.545,0.105,
3016,-0.535,0.13,
3017,-0.495,0.145,
3018,-0.46,0.17,
3019,-0.465,0.155,
3020,-0.56,0.145,
3021,-0.655,0.13,
3022,-0.685,0.13,
3023,-0.64,0.15,
3024,-0.6,0.17,
3025,-0.6,0.15,
3026,-0.615,0.14,
3027,-0.625,0.13,
3028,-0.625,0.125,
3029,-0.595,0.15,
3030,-0.56,0.155,
3031,-0.53,0.16,
3032,-0.535,0.15,
3033,-0.555,0.155,
3034,-0.54,0.17,
3035,-0.46,0.2,
3036,-0.33,0.24,
3037,-0.285,0.22,
3038,-0.43,0.2,
3039,-0.69,0.175,
3040,-0.905,0.16,
3041,-0.975,0.155,
3042,-0.875,0.135,
3043,-0.735,0.105,
3044,-0.66,0.085,
3045,-0.63,0.075,
3046,-0.59,0.085,
3047,-0.5,0.13,
3048,-0.42,0.165,
3049,-0.41,0.185,
3050,-0.52,0.19,
3051,-0.62,0.195,
3052,-0.685,0.215,
3053,-0.625,0.205,
3054,-0.53,0.2,
3055,-0.555,0.18,
3056,-0.665,0.16,
3057,-0.815,0.18,
3058,-0.885,0.205,
3059,-0.895,0.23,
3060,-0.82,0.24,
3061,-0.72,0.245,
3062,-0.665,0.225,
3063,-0.635,0.23,
3064,-0.64,0.265,
3065,-0.63,0.275,
3066,-0.595,0.255,
3067,-0.57,0.18,
3068,-0.565,0.09,
3069,-0.575,0.015,
3070,-0.595,-0.005,
3071,-0.6,0.01,
3072,-0.585,0.03,
3073,-0.575,0.04,
3074,-0.57,0.045,
3075,-0.585,0.035,
3076,-0.575,0.06,
3077,-0.555,0.09,
3078,-0.52,0.11,
3079,-0.5,0.11,
3080,-0.49,0.115,
3081,-0.45,0.1,
3082,-0.415,0.12,
3083,-0.435,0.155,
3084,-0.58,0.165,
3085,-0.715,0.14,
3086,-0.765,0.105,
3087,-0.735,0.08,
3088,-0.69,0.075,
3089,-0.69,0.16,
3090,-0.715,0.2,
3091,-0.63,0.23,
3092,-0.53,0.245,
3093,-0.485,0.22,
3094,-0.59,0.18,
3095,-0.78,0.18,
3096,-0.86,0.15,
3097,-0.835,0.125,
3098,-0.75,0.09,
3099,-0.67,0.065,
3100,-0.635,0.09,
3101,-0.63,0.125,
3102,-0.63,0.145,
3103,-0.66,0.14,
3104,-0.675,0.13,
3105,-0.63,0.115,
3106,-0.575,0.14,
3107,-0.575,0.175,
3108,-0.58,0.195,
3109,-0.52,0.205,
3110,-0.41,0.2,
3111,-0.305,0.205,
3112,-0.265,0.23,
3113,-0.26,0.32,
3114,-0.14,0.39,
3115,0.055,0.44,
3116,0.19,0.465,
3117,0.225,0.415,
3118,0.145,0.325,
3119,0.07,0.245,
3120,0.22,0.16,
3121,0.585,0.07,
3122,0.995,-0.02,
3123,1.28,-0.115,
3124,1.395,-0.17,
3125,1.33,-0.23,
3126,1.14,-0.245,
3127,1.03,-0.24,
3128,1.05,-0.245,N
3129,1.14,-0.245,
3130,1.225,-0.265,
3131,1.255,-0.345,
3132,1.09,-0.4,
3133,0.805,-0.47,
3134,0.545,-0.49,
3135,0.325,-0.495,
3136,0.13,-0.455,
3137,-0.125,-0.375,
3138,-0.35,-0.285,
3139,-0.49,-0.195,
3140,-0.57,-0.145,
3141,-0.625,-0.085,
3142,-0.69,-0.03,
3143,-0.695,0.05,
3144,-0.665,0.13,
3145,-0.67,0.19,
3146,-0.7,0.21,
3147,-0.79,0.19,
3148,-0.9,0.195,
3149,-0.89,0.15,
3150,-0.745,0.1,
3151,-0.535,0.015,
3152,-0.37,-0.03,
3153,-0.28,-0.065,
3154,-0.37,-0.04,
3155,-0.71,0.035,
3156,-1.065,0.105,
3157,-1.16,0.16,
3158,-1.06,0.175,
3159,-0.885,0.145,
3160,-0.685,0.135,
3161,-0.59,0.115,
3162,-0.635,0.12,
3163,-0.79,0.125,
3164,-0.985,0.14,
3165,-1.125,0.165,
3166,-1.16,0.18,
3167,-1.09,0.205,
3168,-0.95,0.22,
3169,-0.84,0.19,
3170,-0.84,0.165,
3171,-0.89,0.14,
3172,-0.875,0.13,
3173,-0.84,0.13,
3174,-0.795,0.16,
3175,-0.745,0.16,
3176,-0.71,0.165,
3177,-0.68,0.16,
3178,-0.665,0.155,
3179,-0.655,0.155,
3180,-0.655,0.115,
3181,-0.67,0.065,
3182,-0.695,0.0,
3183,-0.685,-0.03,
3184,-0.655,-0.025,
3185,-0.63,0.035,
3186,-0.62,0.075,
3187,-0.595,0.095,
3188,-0.625,0.125,
3189,-0.675,0.145,
3190,-0.675,0.19,
3191,-0.54,0.22,
3192,-0.35,0.23,
3193,-0.225,0.19,
3194,-0.395,0.135,
3195,-0.85,0.135,
3196,-1.145,0.155,
3197,-1.005,0.21,
3198,-0.685,0.25,
3199,-0.495,0.26,
3200,-0.49,0.25,
3201,-0.52,0.24,
3202,-0.54,0.255,
3203,-0.505,0.25,
3204,-0.46,0.27,
3205,-0.4,0.255,
3206,-0.375,0.23,
3207,-0.385,0.21,
3208,-0.425,0.215,
3209,-0.405,0.22,
3210,-0.375,0.245,
3211,-0.365,0.255,
3212,-0.42,0.265,
3213,-0.45,0.28,
3214,-0.45,0.325,
3215,-0.44,0.375,
3216,-0.435,0.385,
3217,-0.41,0.395,
3218,-0.39,0.32,
3219,-0.39,0.205,
3220,-0.425,0.115,
3221,-0.415,0.05,
3222,-0.325,0.01,
3223,-0.235,-0.02,
3224,-0.25,-0.035,
3225,-0.335,-0.065,
3226,-0.41,-0.065,
3227,-0.345,-0.04,
3228,-0.205,0.01,
3229,-0.14,0.02,
3230,-0.125,0.02,
3231,-0.12,0.02,
3232,-0.19,0.01,
3233,-0.37,0.025,
3234,-0.485,0.055,
3235,-0.435,0.07,
3236,-0.34,0.065,
3237,-0.305,0.05,
3238,-0.31,0.055,
3239,-0.31,0.075,
3240,-0.25,0.105,
3241,-0.165,0.145,
3242,-0.15,0.195,
3243,-0.17,0.235,
3244,-0.205,0.24,
3245,-0.24,0.255,
3246,-0.36,0.25,
3247,-0.49,0.17,
3248,-0.565,0.095,
3249,-0.515,0.03,
3250,-0.435,0.005,
3251,-0.395,0.01,
3252,-0.425,0.025,
3253,-0.41,0.055,
3254,-0.38,0.055,
3255,-0.345,0.05,
3256,-0.355,0.07,
3257,-0.355,0.085,
3258,-0.315,0.105,
3259,-0.23,0.125,
3260,-0.155,0.11,
3261,-0.17,0.105,
3262,-0.275,0.11,
3263,-0.35,0.145,
3264,-0.395,0.175,
3265,-0.37,0.215,
3266,-0.37,0.215,
3267,-0.46,0.215,
3268,-0.49,0.22,
3269,-0.425,0.235,
3270,-0.365,0.23,
3271,-0.32,0.225,
3272,-0.335,0.22,
3273,-0.35,0.22,
3274,-0.335,0.23,
3275,-0.27,0.21,
3276,-0.235,0.165,
3277,-0.23,0.065,
3278,-0.235,-0.055,
3279,-0.265,-0.155,
3280,-0.25,-0.185,
3281,-0.145,-0.17,
3282,-0.035,-0.13,
3283,0.05,-0.115,
3284,0.035,-0.095,
3285,-0.005,-0.105,
3286,-0.055,-0.07,
3287,-0.115,-0.03,
3288,-0.255,0.025,
3289,-0.41,0.075,
3290,-0.525,0.105,
3291,-0.5,0.115,
3292,-0.45,0.13,
3293,-0.385,0.125,
3294,-0.335,0.11,
3295,-0.25,0.07,
3296,-0.185,0.035,
3297,-0.175,-0.005,
3298,-0.17,0.0,
3299,-0.165,0.015,
3300,-0.18,0.015,
3301,-0.185,0.01,
3302,-0.195,-0.015,
3303,-0.185,-0.02,
3304,-0.205,-0.005,
3305,-0.205,0.035,
3306,-0.2,0.06,
3307,-0.18,0.08,
3308,-0.21,0.085,
3309,-0.24,0.095,
3310,-0.215,0.115,
3311,-0.17,0.16,
3312,-0.16,0.17,
3313,-0.17,0.135,
3314,-0.14,0.085,
3315,-0.105,0.02,
3316,-0.07,0.015,
3317,-0.015,0.025,
3318,0.075,0.04,
3319,0.2,0.085,
3320,0.345,0.105,
3321,0.385,0.12,
3322,0.415,0.135,
3323,0.49,0.13,
3324,0.665,0.105,
3325,0.91,0.065,
3326,1.175,0.015,
3327,1.45,-0.055,
3328,1.575,-0.1,
3329,1.575,-0.155,
3330,1.545,-0.19,
3331,1.595,-0.235,
3332,1.715,-0.3,
3333,1.765,-0.37,N
3334,1.69,-0.435,
3335,1.64,-0.515,
3336,1.595,-0.585,
3337,1.52,-0.655,
3338,1.375,-0.665,
3339,1.15,-0.655,
3340,0.865,-0.6,
3341,0.61,-0.5,
3342,0.43,-0.38,
3343,0.33,-0.315,
3344,0.22,-0.27,
3345,0.02,-0.24,
3346,-0.235,-0.215,
3347,-0.44,-0.18,
3348,-0.445,-0.155,
3349,-0.29,-0.15,
3350,-0.175,-0.16,
3351,-0.215,-0.155,
3352,-0.37,-0.135,
3353,-0.445,-0.09,
3354,-0.45,-0.06,
3355,-0.49,-0.02,
3356,-0.61,0.0,
3357,-0.705,0.025,
3358,-0.69,0.045,
3359,-0.645,0.08,
3360,-0.595,0.11,
3361,-0.575,0.135,
3362,-0.565,0.16,
3363,-0.56,0.22,
3364,-0.485,0.26,
3365,-0.415,0.25,
3366,-0.385,0.22,
3367,-0.435,0.135,
3368,-0.49,0.025,
3369,-0.45,-0.045,
3370,-0.39,-0.065,
3371,-0.42,-0.035,
3372,-0.505,0.015,
3373,-0.545,0.04,
3374,-0.455,0.075,
3375,-0.395,0.12,
3376,-0.48,0.155,
3377,-0.6,0.17,
3378,-0.58,0.15,
3379,-0.455,0.09,
3380,-0.505,-0.01,
3381,-0.665,-0.085,
3382,-0.745,-0.125,
3383,-0.695,-0.14,
3384,-0.575,-0.125,
3385,-0.465,-0.1,
3386,-0.4,-0.11,
3387,-0.39,-0.1,
3388,-0.39,-0.09,
3389,-0.385,-0.045,
3390,-0.34,-0.035,
3391,-0.265,-0.025,
3392,-0.275,-0.025,
3393,-0.365,-0.03,
3394,-0.41,0.005,
3395,-0.34,0.035,
3396,-0.23,0.07,
3397,-0.13,0.065,
3398,-0.055,0.055,
3399,-0.035,-0.005,
3400,-0.065,-0.015,
3401,-0.095,-0.005,
3402,-0.085,0.06,
3403,-0.105,0.105,
3404,-0.195,0.115,
3405,-0.23,0.11,
3406,-0.185,0.11,
3407,-0.105,0.105,
3408,-0.04,0.085,
3409,-0.025,0.065,
3410,-0.09,0.03,
3411,-0.17,0.005,
3412,-0.155,0.02,
3413,-0.11,0.04,
3414,-0.11,0.075,
3415,-0.13,0.09,
3416,-0.17,0.09,
3417,-0.175,0.105,
3418,-0.15,0.11,
3419,-0.125,0.125,
3420,-0.1,0.13,
3421,-0.06,0.115,
3422,0.045,0.09,
3423,0.095,0.06,
3424,0.015,0.06,
3425,-0.17,0.085,
3426,-0.275,0.1,
3427,-0.26,0.095,
3428,-0.13,0.07,
3429,0.01,0.045,
3430,-0.01,0.04,
3431,-0.175,0.06,
3432,-0.285,0.06,
3433,-0.295,0.075,
3434,-0.29,0.075,
3435,-0.315,0.065,
3436,-0.325,0.08,
3437,-0.285,0.09,
3438,-0.195,0.095,
3439,-0.13,0.09,
3440,-0.15,0.07,
3441,-0.19,0.05,
3442,-0.195,0.065,
3443,-0.16,0.075,
3444,-0.095,0.095,
3445,0.005,0.1,
3446,0.07,0.105,
3447,0.07,0.12,
3448,-0.03,0.16,
3449,-0.1,0.205,
3450,-0.095,0.235,
3451,0.005,0.25,
3452,0.07,0.245,
3453,0.11,0.215,
3454,0.15,0.215,
3455,0.28,0.18,
3456,0.5,0.14,
3457,0.78,0.065,
3458,1.085,0.0,
3459,1.305,-0.055,
3460,1.495,-0.065,
3461,1.625,-0.075,
3462,1.615,-0.115,
3463,1.53,-0.195,
3464,1.39,-0.275,N
3465,1.27,-0.355,
3466,1.21,-0.42,
3467,1.18,-0.43,
3468,1.065,-0.425,
3469,0.93,-0.39,
3470,0.815,-0.345,
3471,0.725,-0.28,
3472,0.6,-0.22,
3473,0.415,-0.19,
3474,0.235,-0.195,
3475,0.085,-0.205,
3476,-0.065,-0.215,
3477,-0.28,-0.21,
3478,-0.485,-0.165,
3479,-0.515,-0.105,
3480,-0.46,-0.05,
3481,-0.4,-0.04,
3482,-0.395,-0.05,
3483,-0.43,-0.04,
3484,-0.46,-0.015,
3485,-0.475,0.01,
3486,-0.45,0.03,
3487,-0.445,0.03,
3488,-0.495,0.03,
3489,-0.53,0.025,
3490,-0.555,0.04,
3491,-0.555,0.06,
3492,-0.51,0.09,
3493,-0.495,0.105,
3494,-0.45,0.12,
3495,-0.415,0.12,
3496,-0.43,0.155,
3497,-0.495,0.18,
3498,-0.575,0.22,
3499,-0.59,0.19,
3500,-0.555,0.17,
3501,-0.5,0.135,
3502,-0.415,0.155,
3503,-0.32,0.155,
3504,-0.345,0.17,
3505,-0.54,0.2,
3506,-0.765,0.22,
3507,-0.855,0.24,
3508,-0.77,0.27,
3509,-0.635,0.275,
3510,-0.56,0.26,
3511,-0.525,0.21,
3512,-0.495,0.16,
3513,-0.46,0.11,
3514,-0.46,0.095,
3515,-0.44,0.12,
3516,-0.425,0.155,
3517,-0.385,0.165,
3518,-0.37,0.14,
3519,-0.355,0.115,
3520,-0.365,0.105,
3521,-0.335,0.095,
3522,-0.305,0.11,
3523,-0.265,0.075,
3524,-0.26,0.055,
3525,-0.235,0.015,
3526,-0.23,0.02,
3527,-0.205,0.045,
3528,-0.17,0.06,
3529,-0.15,0.04,
3530,-0.125,0.035,
3531,-0.14,0.02,
3532,-0.15,0.015,
3533,-0.105,0.04,
3534,-0.065,0.055,
3535,-0.035,0.055,
3536,-0.03,0.03,
3537,0.0,0.03,
3538,0.01,0.025,
3539,0.01,0.035,
3540,-0.01,0.075,
3541,-0.06,0.065,
3542,-0.115,0.07,
3543,-0.16,0.085,
3544,-0.18,0.085,
3545,-0.165,0.115,
3546,-0.14,0.155,
3547,-0.12,0.15,
3548,-0.165,0.15,
3549,-0.195,0.13,
3550,-0.215,0.15,
3551,-0.185,0.175,
3552,-0.175,0.18,
3553,-0.17,0.185,
3554,-0.15,0.165,
3555,-0.11,0.165,
3556,-0.115,0.185,
3557,-0.19,0.2,
3558,-0.26,0.235,
3559,-0.285,0.24,
3560,-0.285,0.235,
3561,-0.305,0.23,
3562,-0.305,0.245,
3563,-0.27,0.245,
3564,-0.25,0.26,
3565,-0.265,0.26,
3566,-0.26,0.225,
3567,-0.245,0.21,
3568,-0.235,0.195,
3569,-0.235,0.215,
3570,-0.215,0.215,
3571,-0.195,0.21,
3572,-0.205,0.19,
3573,-0.23,0.16,
3574,-0.24,0.155,
3575,-0.225,0.15,
3576,-0.185,0.135,
3577,-0.145,0.11,
3578,-0.135,0.065,
3579,-0.175,0.045,
3580,-0.225,0.015,
3581,-0.23,0.015,
3582,-0.22,0.01,
3583,-0.19,-0.015,
3584,-0.175,-0.025,~
3585,-0.19,-0.03,
3586,-0.195,-0.02,
3587,-0.18,0.01,
3588,-0.165,0.035,
3589,-0.17,0.025,
3590,-0.17,0.02,
3591,-0.17,-0.005,
3592,-0.175,0.01,
3593,-0.195,0.03,
3594,-0.16,0.055,
3595,-0.13,0.04,
3596,-0.105,0.025,
3597,-0.125,0.01,
3598,-0.165,0.02,
3599,-0.175,0.025,
3600,-0.18,0.065,
3601,-0.165,0.055,
3602,-0.14,0.05,
3603,-0.12,0.045,
3604,-0.13,0.045,
3605,-0.165,0.075,
3606,-0.195,0.105,
3607,-0.19,0.115,
3608,-0.195,0.11,
3609,-0.185,0.095,
3610,-0.19,0.11,
3611,-0.18,0.125,
3612,-0.17,0.155,
3613,-0.165,0.155,
3614,-0.175,0.155,
3615,-0.17,0.17,
3616,-0.175,0.17,
3617,-0.175,0.175,
3618,-0.18,0.17,
3619,-0.16,0.15,
3620,-0.155,0.11,
3621,-0.16,0.085,
3622,-0.17,0.075,
3623,-0.17,0.07,
3624,-0.145,0.085,
3625,-0.135,0.05,
3626,-0.145,0.03,
3627,-0.16,0.01,
3628,-0.17,0.01,
3629,-0.16,0.025,
3630,-0.17,0.02,
3631,-0.155,0.005,
3632,-0.155,-0.025,
3633,-0.165,-0.035,
3634,-0.175,-0.03,
3635,-0.175,-0.03,
3636,-0.145,-0.015,
3637,-0.125,-0.02,
3638,-0.135,-0.04,
3639,-0.125,-0.03,
3640,-0.105,-0.04,
3641,-0.11,-0.01,
3642,-0.11,0.0,
3643,-0.105,-0.005,
3644,-0.085,0.0,
3645,-0.08,-0.005,
3646,-0.1,0.01,
3647,-0.105,0.02,
3648,-0.085,0.045,
3649,-0.05,0.045,
3650,-0.045,0.05,
3651,-0.08,0.045,
3652,-0.095,0.05,
3653,-0.105,0.065,
3654,-0.08,0.09,
3655,-0.065,0.08,
3656,-0.08,0.07,
3657,-0.1,0.08,
3658,-0.105,0.085,
3659,-0.115,0.115,
3660,-0.105,0.135,
3661,-0.085,0.135,
3662,-0.085,0.115,
3663,-0.07,0.115,
3664,-0.075,0.115,
3665,-0.105,0.12,
3666,-0.11,0.13,
3667,-0.095,0.135,
3668,-0.09,0.14,
3669,-0.09,0.125,
3670,-0.105,0.14,
3671,-0.095,0.13,
3672,-0.085,0.135,
3673,-0.065,0.11,
3674,-0.08,0.075,
3675,-0.085,0.055,
3676,-0.1,0.045,
3677,-0.09,0.055,
3678,-0.06,0.07,
3679,-0.055,0.045,
3680,-0.075,0.0,
3681,-0.09,-0.005,
3682,-0.095,-0.025,
3683,-0.06,-0.025,
3684,-0.05,-0.025,
3685,-0.045,-0.05,
3686,-0.04,-0.065,
3687,-0.06,-0.08,
3688,-0.065,-0.065,
3689,-0.07,-0.07,
3690,-0.055,-0.04,
3691,-0.025,-0.035,
3692,-0.04,-0.06,
3693,-0.055,-0.075,
3694,-0.07,-0.045,
3695,-0.005,-0.035,
3696,0.075,-0.01,
3697,0.135,0.015,
3698,0.16,-0.005,
3699,0.185,0.01,
3700,0.24,0.045,
3701,0.345,0.085,
3702,0.425,0.15,
3703,0.495,0.17,
3704,0.555,0.155,
3705,0.635,0.075,
3706,0.83,0.05,
3707,1.145,0.015,
3708,1.455,-0.025,
3709,1.665,-0.1,
3710,1.715,-0.185,
3711,1.74,-0.2,
3712,1.795,-0.205,
3713,1.845,-0.23,
3714,1.83,-0.26,N
3715,1.785,-0.36,
3716,1.7,-0.46,
3717,1.52,-0.52,
3718,1.345,-0.53,
3719,1.185,-0.505,
3720,1.015,-0.465,
3721,0.835,-0.41,
3722,0.59,-0.35,
3723,0.35,-0.3,
3724,0.155,-0.235,
3725,-0.005,-0.12,
3726,-0.115,-0.035,
3727,-0.18,-0.005,
3728,-0.195,-0.005,
3729,-0.215,0.025,
3730,-0.24,0.02,
3731,-0.27,0.045,
3732,-0.285,0.07,
3733,-0.27,0.07,
3734,-0.26,0.045,
3735,-0.295,0.04,
3736,-0.31,0.035,
3737,-0.325,0.055,
3738,-0.31,0.07,
3739,-0.31,0.055,
3740,-0.32,0.035,
3741,-0.35,0.015,
3742,-0.355,0.01,
3743,-0.33,0.03,
3744,-0.32,0.04,
3745,-0.34,0.035,
3746,-0.325,0.015,
3747,-0.35,-0.005,
3748,-0.355,0.0,
3749,-0.345,0.015,
3750,-0.325,0.045,
3751,-0.3,0.035,
3752,-0.305,0.025,
3753,-0.32,0.02,
3754,-0.33,0.015,
3755,-0.32,0.04,
3756,-0.31,0.06,
3757,-0.29,0.06,
3758,-0.295,0.06,
3759,-0.305,0.055,
3760,-0.3,0.08,
3761,-0.285,0.085,
3762,-0.275,0.09,
3763,-0.265,0.08,
3764,-0.27,0.06,
3765,-0.295,0.065,
3766,-0.295,0.07,
3767,-0.285,0.085,
3768,-0.27,0.115,
3769,-0.26,0.11,
3770,-0.23,0.095,
3771,-0.225,0.085,
3772,-0.22,0.075,
3773,-0.22,0.095,
3774,-0.19,0.13,
3775,-0.175,0.145,
3776,-0.18,0.135,
3777,-0.175,0.135,
3778,-0.17,0.135,
3779,-0.13,0.14,
3780,-0.115,0.15,
3781,-0.09,0.15,
3782,-0.085,0.125,
3783,-0.06,0.11,
3784,-0.055,0.125,
3785,-0.03,0.14,
3786,0.0,0.16,
3787,0.045,0.17,
3788,0.06,0.16,
3789,0.07,0.15,
3790,0.1,0.155,
3791,0.13,0.175,
3792,0.16,0.195,
3793,0.19,0.2,
3794,0.19,0.175,
3795,0.2,0.16,
3796,0.2,0.165,
3797,0.205,0.165,
3798,0.23,0.165,
3799,0.245,0.16,
3800,0.245,0.145,
3801,0.23,0.135,
3802,0.215,0.125,
3803,0.21,0.155,
3804,0.22,0.16,
3805,0.22,0.16,
3806,0.225,0.13,
3807,0.21,0.125,
3808,0.205,0.115,
3809,0.21,0.11,
3810,0.195,0.125,
3811,0.195,0.12,
3812,0.2,0.1,
3813,0.19,0.075,
3814,0.17,0.075,
3815,0.185,0.085,
3816,0.205,0.09,
3817,0.22,0.07,
3818,0.22,0.06,
3819,0.195,0.03,
3820,0.185,0.01,
3821,0.205,0.01,
3822,0.2,0.0,
3823,0.22,-0.02,
3824,0.21,-0.055,
3825,0.19,-0.055,
3826,0.195,-0.045,
3827,0.19,-0.03,
3828,0.205,0.0,
3829,0.24,-0.01,
3830,0.27,-0.015,
3831,0.29,-0.045,
3832,0.345,-0.06,
3833,0.415,-0.055,
3834,0.495,-0.04,
3835,0.53,-0.04,
3836,0.49,-0.05,
3837,0.385,-0.045,
3838,0.33,-0.015,
3839,0.285,0.035,
3840,0.22,0.12,
3841,0.09,0.19,
3842,-0.015,0.245,
3843,-0.04,0.31,
3844,-0.01,0.355,
3845,0.02,0.375,
3846,-0.015,0.355,
3847,-0.11,0.28,
3848,-0.165,0.185,
3849,-0.195,0.09,
3850,-0.225,-0.005,
3851,-0.325,-0.075,
3852,-0.405,-0.145,
3853,-0.465,-0.25,V
3854,-0.46,-0.4,
3855,-0.425,-0.485,
3856,-0.42,-0.51,
3857,-0.42,-0.51,
3858,-0.325,-0.5,
3859,-0.19,-0.5,
3860,-0.07,-0.53,
3861,-0.015,-0.525,
3862,-0.01,-0.52,
3863,-0.04,-0.495,
3864,-0.05,-0.47,
3865,-0.04,-0.455,
3866,-0.015,-0.47,
3867,0.025,-0.465,
3868,0.085,-0.425,
3869,0.15,-0.385,
3870,0.195,-0.355,
3871,0.205,-0.33,
3872,0.245,-0.315,
3873,0.27,-0.295,
3874,0.255,-0.28,
3875,0.22,-0.25,
3876,0.225,-0.225,
3877,0.2,-0.22,
3878,0.155,-0.225,
3879,0.105,-0.24,
3880,0.075,-0.21,
3881,0.075,-0.175,
3882,0.095,-0.13,
3883,0.105,-0.145,
3884,0.095,-0.135,
3885,0.08,-0.145,
3886,0.095,-0.13,
3887,0.105,-0.125,
3888,0.145,-0.095,
3889,0.135,-0.09,
3890,0.145,-0.095,
3891,0.15,-0.095,
3892,0.15,-0.095,
3893,0.17,-0.075,
3894,0.2,-0.045,
3895,0.24,-0.025,
3896,0.26,-0.015,
3897,0.27,-0.015,
3898,0.29,0.01,
3899,0.345,0.025,
3900,0.395,0.035,
3901,0.43,0.06,
3902,0.435,0.035,
3903,0.46,0.035,
3904,0.5,0.045,
3905,0.545,0.075,
3906,0.58,0.085,
3907,0.615,0.095,
3908,0.645,0.085,
3909,0.67,0.075,
3910,0.69,0.085,
3911,0.73,0.1,
3912,0.775,0.11,
3913,0.83,0.105,
3914,0.865,0.1,
3915,0.875,0.08,
3916,0.905,0.09,
3917,0.965,0.1,
3918,1.01,0.105,
3919,1.035,0.105,
3920,1.09,0.09,
3921,1.12,0.08,
3922,1.145,0.07,
3923,1.165,0.085,
3924,1.19,0.085,
3925,1.22,0.085,
3926,1.25,0.075,
3927,1.245,0.055,
3928,1.245,0.06,
3929,1.26,0.07,
3930,1.26,0.085,
3931,1.235,0.055,
3932,1.225,0.035,
3933,1.18,0.02,
3934,1.125,0.01,
3935,1.095,-0.005,
3936,1.06,-0.005,
3937,1.04,-0.03,
3938,0.985,-0.065,
3939,0.93,-0.085,
3940,0.865,-0.095,
3941,0.85,-0.085,
3942,0.81,-0.075,
3943,0.765,-0.075,
3944,0.725,-0.07,
3945,0.675,-0.075,
3946,0.635,-0.065,
3947,0.59,-0.045,
3948,0.575,-0.025,
3949,0.55,-0.015,
3950,0.52,-0.035,
3951,0.48,-0.04,
3952,0.435,-0.03,
3953,0.425,-0.005,
3954,0.43,0.005,
3955,0.415,0.005,
3956,0.395,-0.005,
3957,0.365,-0.03,
3958,0.35,-0.015,
3959,0.335,-0.005,
3960,0.315,0.005,
3961,0.325,-0.005,
3962,0.32,-0.03,
3963,0.295,-0.04,
3964,0.27,-0.05,
3965,0.285,-0.035,
3966,0.31,-0.02,
3967,0.295,-0.03,
3968,0.295,-0.045,
3969,0.27,-0.05,
3970,0.265,-0.055,
3971,0.28,-0.035,
3972,0.28,-0.01,
3973,0.29,-0.005,
3974,0.29,0.0,
3975,0.275,-0.02,
3976,0.3,0.0,
3977,0.385,0.02,
3978,0.505,0.055,
3979,0.59,0.04,
3980,0.625,0.025,
3981,0.67,0.01,
3982,0.725,0.02,
3983,0.75,0.06,
3984,0.77,0.11,
3985,0.895,0.135,
3986,1.07,0.09,
3987,1.3,0.055,
3988,1.535,0.025,
3989,1.735,-0.02,
3990,1.82,-0.08,
3991,1.82,-0.19,
3992,1.825,-0.285,
3993,1.785,-0.36,N
3994,1.7,-0.4,
3995,1.62,-0.47,
3996,1.52,-0.545,
3997,1.39,-0.625,
3998,1.235,-0.665,
3999,1.1,-0.67,
4000,0.95,-0.64,
4001,0.785,-0.58,
4002,0.585,-0.495,
4003,0.415,-0.44,
4004,0.23,-0.4,
4005,0.075,-0.365,
4006,-0.03,-0.29,
4007,-0.04,-0.22,
4008,-0.045,-0.19,
4009,-0.06,-0.175,
4010,-0.11,-0.17,
4011,-0.15,-0.165,
4012,-0.19,-0.14,
4013,-0.205,-0.105,
4014,-0.205,-0.085,
4015,-0.195,-0.075,
4016,-0.23,-0.08,
4017,-0.265,-0.095,
4018,-0.28,-0.09,
4019,-0.295,-0.07,
4020,-0.275,-0.055,
4021,-0.265,-0.06,
4022,-0.29,-0.06,
4023,-0.3,-0.09,
4024,-0.3,-0.08,
4025,-0.3,-0.09,
4026,-0.285,-0.065,
4027,-0.27,-0.095,
4028,-0.265,-0.105,
4029,-0.28,-0.115,
4030,-0.28,-0.12,
4031,-0.28,-0.11,
4032,-0.26,-0.1,
4033,-0.25,-0.115,
4034,-0.245,-0.15,
4035,-0.24,-0.16,
4036,-0.24,-0.17,
4037,-0.225,-0.155,
4038,-0.2,-0.13,
4039,-0.205,-0.155,
4040,-0.215,-0.165,
4041,-0.225,-0.175,
4042,-0.215,-0.185,
4043,-0.18,-0.165,
4044,-0.185,-0.15,
4045,-0.185,-0.185,
4046,-0.205,-0.2,
4047,-0.205,-0.22,
4048,-0.215,-0.205,
4049,-0.21,-0.195,
4050,-0.195,-0.17,
4051,-0.18,-0.17,
4052,-0.165,-0.185,
4053,-0.18,-0.18,
4054,-0.19,-0.16,
4055,-0.175,-0.13,
4056,-0.145,-0.105,
4057,-0.13,-0.1,
4058,-0.11,-0.1,
4059,-0.1,-0.1,
4060,-0.065,-0.09,
4061,-0.005,-0.07,
4062,0.03,-0.045,
4063,0.045,-0.06,
4064,0.08,-0.07,
4065,0.1,-0.085,
4066,0.13,-0.065,
4067,0.155,-0.04,
4068,0.185,-0.035,
4069,0.2,-0.045,
4070,0.21,-0.055,
4071,0.2,-0.06,
4072,0.175,-0.045,
4073,0.205,-0.035,
4074,0.23,-0.02,
4075,0.23,-0.025,
4076,0.195,-0.035,
4077,0.185,-0.035,
4078,0.185,-0.04,
4079,0.18,-0.015,
4080,0.18,0.0,
4081,0.17,-0.005,
4082,0.155,-0.02,
4083,0.135,-0.025,
4084,0.125,-0.04,
4085,0.125,-0.04,
4086,0.145,-0.035,
4087,0.145,-0.045,
4088,0.135,-0.07,
4089,0.105,-0.105,
4090,0.125,-0.125,
4091,0.13,-0.14,
4092,0.13,-0.145,
4093,0.125,-0.155,
4094,0.12,-0.205,
4095,0.11,-0.25,
4096,0.115,-0.27,
4097,0.135,-0.26,
4098,0.145,-0.265,
4099,0.17,-0.29,
4100,0.185,-0.31,
4101,0.165,-0.325,
4102,0.14,-0.32,
4103,0.15,-0.305,
4104,0.18,-0.295,
4105,0.195,-0.295,
4106,0.16,-0.285,
4107,0.12,-0.305,
4108,0.11,-0.285,
4109,0.125,-0.255,
4110,0.125,-0.235,
4111,0.145,-0.225,
4112,0.135,-0.24,
4113,0.13,-0.25,
4114,0.115,-0.23,
4115,0.14,-0.205,
4116,0.17,-0.165,
4117,0.16,-0.17,
4118,0.14,-0.185,
4119,0.13,-0.18,
4120,0.145,-0.18,
4121,0.145,-0.155,
4122,0.14,-0.145,
4123,0.145,-0.135,
4124,0.15,-0.155,
4125,0.13,-0.16,
4126,0.13,-0.14,
4127,0.15,-0.12,
4128,0.165,-0.11,
4129,0.15,-0.115,
4130,0.145,-0.125,
4131,0.125,-0.13,
4132,0.155,-0.125,
4133,0.125,-0.1,
4134,0.115,-0.085,
4135,0.13,-0.08,
4136,0.155,-0.1,
4137,0.135,-0.125,
4138,0.11,-0.12,
4139,0.12,-0.115,
4140,0.15,-0.09,
4141,0.15,-0.1,
4142,0.125,-0.135,
4143,0.095,-0.135,
4144,0.095,-0.135,
4145,0.09,-0.13,
4146,0.09,-0.11,
4147,0.105,-0.115,
4148,0.105,-0.13,
4149,0.075,-0.13,
4150,0.05,-0.13,
4151,0.055,-0.105,
4152,0.1,-0.09,
4153,0.09,-0.1,
4154,0.075,-0.125,
4155,0.045,-0.13,
4156,0.055,-0.155,
4157,0.09,-0.17,
4158,0.105,-0.2,
4159,0.12,-0.26,
4160,0.115,-0.315,
4161,0.115,-0.34,
4162,0.12,-0.345,
4163,0.13,-0.33,
4164,0.13,-0.33,
4165,0.125,-0.335,
4166,0.11,-0.32,
4167,0.085,-0.345,
4168,0.085,-0.32,
4169,0.095,-0.28,
4170,0.095,-0.27,
4171,0.095,-0.26,
4172,0.075,-0.27,
4173,0.08,-0.275,
4174,0.085,-0.255,
4175,0.1,-0.235,
4176,0.095,-0.215,
4177,0.12,-0.21,
4178,0.125,-0.235,
4179,0.1,-0.245,
4180,0.075,-0.225,
4181,0.075,-0.2,
4182,0.09,-0.17,
4183,0.09,-0.18,
4184,0.08,-0.195,
4185,0.06,-0.205,
4186,0.05,-0.18,
4187,0.045,-0.16,
4188,0.06,-0.135,
4189,0.065,-0.145,
4190,0.085,-0.14,
4191,0.085,-0.165,
4192,0.075,-0.17,
4193,0.08,-0.155,
4194,0.085,-0.14,
4195,0.07,-0.14,
4196,0.05,-0.135,
4197,0.06,-0.14,
4198,0.06,-0.145,
4199,0.065,-0.095,
4200,0.05,-0.08,
4201,0.07,-0.09,
4202,0.065,-0.11,
4203,0.07,-0.11,
4204,0.045,-0.135,
4205,0.04,-0.115,
4206,0.065,-0.1,
4207,0.095,-0.11,
4208,0.105,-0.13,
4209,0.075,-0.145,
4210,0.05,-0.14,
4211,0.05,-0.13,
4212,0.06,-0.105,
4213,0.075,-0.105,
4214,0.1,-0.135,
4215,0.15,-0.155,
4216,0.215,-0.16,
4217,0.27,-0.135,
4218,0.32,-0.13,
4219,0.35,-0.125,
4220,0.36,-0.12,
4221,0.37,-0.115,
4222,0.395,-0.09,
4223,0.46,-0.02,
4224,0.515,0.02,
4225,0.535,-0.005,
4226,0.565,-0.02,
4227,0.61,-0.07,
4228,0.705,-0.085,
4229,0.795,-0.1,
4230,0.88,-0.105,
4231,0.93,-0.175,
4232,0.97,-0.26,
4233,1.02,-0.335,
4234,1.06,-0.375,
4235,1.095,-0.385,
4236,1.14,-0.4,N
4237,1.175,-0.47,
4238,1.085,-0.54,
4239,0.965,-0.595,
4240,0.855,-0.645,
4241,0.795,-0.655,
4242,0.76,-0.625,
4243,0.66,-0.615,
4244,0.485,-0.59,
4245,0.305,-0.545,
4246,0.17,-0.475,
4247,0.1,-0.4,
4248,0.0,-0.315,
4249,-0.05,-0.265,
4250,-0.09,-0.225,
4251,-0.105,-0.21,
4252,-0.115,-0.185,
4253,-0.125,-0.135,
4254,-0.145,-0.12,
4255,-0.165,-0.12,
4256,-0.19,-0.11,
4257,-0.21,-0.11,
4258,-0.225,-0.1,
4259,-0.23,-0.07,
4260,-0.225,-0.055,
4261,-0.22,-0.055,
4262,-0.225,-0.06,
4263,-0.265,-0.07,
4264,-0.295,-0.06,
4265,-0.275,-0.04,
4266,-0.265,-0.015,
4267,-0.26,-0.035,
4268,-0.285,-0.05,
4269,-0.32,-0.06,
4270,-0.32,-0.06,
4271,-0.315,-0.04,
4272,-0.315,-0.02,
4273,-0.32,-0.04,
4274,-0.34,-0.055,
4275,-0.325,-0.075,
4276,-0.31,-0.08,
4277,-0.31,-0.09,
4278,-0.31,-0.09,
4279,-0.295,-0.09,
4280,-0.28,-0.125,
4281,-0.285,-0.145,
4282,-0.305,-0.15,
4283,-0.285,-0.16,
4284,-0.27,-0.155,
4285,-0.255,-0.205,
4286,-0.25,-0.26,
4287,-0.245,-0.305,
4288,-0.23,-0.32,
4289,-0.185,-0.325,
4290,-0.15,-0.335,
4291,-0.13,-0.37,
4292,-0.11,-0.395,
4293,-0.11,-0.41,
4294,-0.105,-0.38,
4295,-0.11,-0.355,
4296,-0.075,-0.295,
4297,-0.04,-0.29,
4298,-0.04,-0.29,
4299,-0.07,-0.285,
4300,-0.085,-0.26,
4301,-0.055,-0.215,
4302,-0.035,-0.17,
4303,0.0,-0.17,
4304,-0.02,-0.18,
4305,-0.02,-0.16,
4306,-0.01,-0.14,
4307,0.0,-0.11,
4308,0.01,-0.08,
4309,0.015,-0.085,
4310,0.015,-0.08,
4311,0.035,-0.08,
4312,0.05,-0.075,
4313,0.045,-0.04,
4314,0.08,-0.015,
4315,0.1,-0.01,
4316,0.09,-0.02,
4317,0.085,-0.025,
4318,0.065,-0.005,
4319,0.045,0.0,
4320,0.05,0.02,
4321,0.065,0.0,
4322,0.08,-0.035,
4323,0.07,-0.045,
4324,0.015,-0.025,
4325,0.015,-0.01,
4326,0.045,0.0,
4327,0.055,-0.02,
4328,0.03,-0.045,
4329,-0.025,-0.075,
4330,-0.04,-0.07,
4331,-0.03,-0.045,
4332,0.0,-0.055,
4333,0.015,-0.05,
4334,-0.005,-0.07,
4335,-0.01,-0.095,
4336,-0.025,-0.1,
4337,-0.05,-0.08,
4338,-0.06,-0.075,
4339,-0.035,-0.075,
4340,-0.03,-0.105,
4341,-0.035,-0.13,
4342,-0.045,-0.14,
4343,-0.02,-0.155,
4344,-0.005,-0.16,
4345,-0.015,-0.21,
4346,-0.01,-0.25,
4347,-0.015,-0.29,
4348,-0.005,-0.3,
4349,0.01,-0.325,
4350,0.01,-0.32,
4351,0.02,-0.315,
4352,0.015,-0.33,
4353,0.0,-0.34,
4354,0.01,-0.355,
4355,0.005,-0.315,
4356,0.005,-0.275,
4357,-0.015,-0.26,
4358,-0.005,-0.265,
4359,0.02,-0.255,
4360,0.025,-0.245,
4361,0.025,-0.185,
4362,0.04,-0.17,
4363,0.045,-0.145,
4364,0.025,-0.15,
4365,0.02,-0.13,
4366,0.01,-0.115,
4367,0.04,-0.1,
4368,0.065,-0.065,
4369,0.06,-0.075,
4370,0.03,-0.07,
4371,0.005,-0.08,
4372,0.0,-0.075,
4373,0.03,-0.045,
4374,0.065,-0.02,
4375,0.08,-0.02,
4376,0.05,-0.025,
4377,0.015,-0.04,
4378,-0.01,-0.045,
4379,0.01,-0.025,
4380,0.04,-0.01,
4381,0.035,-0.005,
4382,0.025,-0.03,
4383,-0.02,-0.04,
4384,-0.04,-0.04,
4385,-0.025,-0.03,
4386,-0.01,0.005,
4387,-0.015,0.0,
4388,-0.035,-0.02,
4389,-0.04,-0.03,
4390,-0.045,-0.03,
4391,-0.045,-0.015,
4392,-0.06,-0.005,
4393,-0.05,-0.005,
4394,-0.045,-0.035,
4395,-0.07,-0.05,
4396,-0.105,-0.045,
4397,-0.14,-0.045,
4398,-0.13,-0.03,
4399,-0.125,-0.035,
4400,-0.115,-0.075,
4401,-0.125,-0.095,
4402,-0.145,-0.11,
4403,-0.16,-0.095,
4404,-0.17,-0.085,
4405,-0.15,-0.105,
4406,-0.145,-0.14,
4407,-0.14,-0.2,
4408,-0.12,-0.22,
4409,-0.1,-0.21,
4410,-0.09,-0.215,
4411,-0.08,-0.23,
4412,-0.065,-0.25,
4413,-0.075,-0.265,
4414,-0.095,-0.25,
4415,-0.11,-0.25,
4416,-0.1,-0.22,
4417,-0.09,-0.23,
4418,-0.105,-0.25,
4419,-0.145,-0.265,
4420,-0.145,-0.22,
4421,-0.13,-0.215,
4422,-0.12,-0.2,
4423,-0.13,-0.205,
4424,-0.16,-0.22,
4425,-0.185,-0.205,
4426,-0.17,-0.17,
4427,-0.15,-0.145,
4428,-0.125,-0.12,
4429,-0.12,-0.13,
4430,-0.155,-0.14,
4431,-0.19,-0.135,
4432,-0.16,-0.1,
4433,-0.13,-0.08,
4434,-0.115,-0.06,
4435,-0.105,-0.08,
4436,-0.095,-0.075,
4437,-0.13,-0.075,
4438,-0.165,-0.055,
4439,-0.2,-0.035,
4440,-0.19,-0.025,
4441,-0.175,-0.03,
4442,-0.195,-0.05,
4443,-0.215,-0.045,
4444,-0.22,-0.03,
4445,-0.21,0.0,
4446,-0.205,0.005,
4447,-0.185,0.01,
4448,-0.225,0.005,
4449,-0.22,-0.005,
4450,-0.185,0.005,
4451,-0.155,0.01,
4452,-0.135,0.02,
4453,-0.165,0.025,
4454,-0.22,-0.005,
4455,-0.245,-0.005,
4456,-0.25,0.005,
4457,-0.24,0.02,
4458,-0.215,0.02,
4459,-0.23,0.025,
4460,-0.255,-0.005,
4461,-0.265,0.0,
4462,-0.265,0.01,
4463,-0.265,0.015,
4464,-0.25,0.035,
4465,-0.23,0.03,
4466,-0.23,0.01,
4467,-0.25,0.01,
4468,-0.265,0.01,
4469,-0.25,0.01,
4470,-0.225,0.0,
4471,-0.21,-0.015,
4472,-0.245,-0.045,
4473,-0.26,-0.055,
4474,-0.245,-0.065,
4475,-0.215,-0.085,
4476,-0.18,-0.095,
4477,-0.17,-0.12,
4478,-0.17,-0.19,
4479,-0.185,-0.235,
4480,-0.18,-0.26,
4481,-0.175,-0.27,
4482,-0.18,-0.255,
4483,-0.205,-0.255,
4484,-0.215,-0.26,
4485,-0.2,-0.27,
4486,-0.185,-0.26,
4487,-0.19,-0.235,
4488,-0.2,-0.215,
4489,-0.19,-0.22,
4490,-0.175,-0.21,
4491,-0.185,-0.22,
4492,-0.2,-0.2,
4493,-0.195,-0.165,
4494,-0.165,-0.15,
4495,-0.16,-0.135,
4496,-0.17,-0.15,
4497,-0.2,-0.155,
4498,-0.23,-0.13,
4499,-0.22,-0.09,
4500,-0.21,-0.08,
4501,-0.21,-0.07,
4502,-0.22,-0.085,
4503,-0.235,-0.095,
4504,-0.245,-0.08,
4505,-0.24,-0.055,
4506,-0.21,-0.035,
4507,-0.18,-0.04,
4508,-0.195,-0.045,
4509,-0.205,-0.055,
4510,-0.175,-0.04,
4511,-0.095,-0.025,
4512,-0.01,-0.025,
4513,0.05,-0.05,
4514,0.09,-0.075,
4515,0.115,-0.11,
4516,0.13,-0.14,
4517,0.17,-0.155,
4518,0.215,-0.21,
4519,0.245,-0.3,
4520,0.265,-0.385,
4521,0.295,-0.49,
4522,0.315,-0.58,
4523,0.38,-0.675,
4524,0.435,-0.765,
4525,0.435,-0.875,
4526,0.44,-0.975,
4527,0.48,-1.025,
4528,0.49,-1.05,
4529,0.43,-1.065,
4530,0.335,-1.05,
4531,0.2,-1.045,
4532,-0.02,-1.04,
4533,-0.24,-1.0,
4534,-0.43,-0.955,
4535,-0.55,-0.895,
4536,-0.625,-0.845,
4537,-0.76,-0.815,
4538,-0.965,-0.815,
4539,-1.1,-0.8,
4540,-1.115,-0.76,V
4541,-1.035,-0.72,
4542,-0.975,-0.68,
4543,-0.94,-0.65,
4544,-0.88,-0.645,
4545,-0.81,-0.61,
4546,-0.745,-0.57,
4547,-0.695,-0.51,
4548,-0.64,-0.46,
4549,-0.585,-0.415,
4550,-0.53,-0.385,
4551,-0.475,-0.375,
4552,-0.39,-0.315,
4553,-0.305,-0.275,
4554,-0.285,-0.23,
4555,-0.295,-0.205,
4556,-0.365,-0.19,
4557,-0.405,-0.15,
4558,-0.445,-0.08,
4559,-0.445,-0.03,
4560,-0.435,0.015,
4561,-0.45,0.055,
4562,-0.46,0.07,
4563,-0.485,0.1,
4564,-0.5,0.14,
4565,-0.485,0.195,
4566,-0.475,0.24,
4567,-0.47,0.24,
4568,-0.5,0.24,
4569,-0.53,0.26,
4570,-0.51,0.26,
4571,-0.5,0.28,
4572,-0.53,0.305,
4573,-0.56,0.3,
4574,-0.595,0.3,
4575,-0.6,0.31,
4576,-0.58,0.325,
4577,-0.555,0.33,
4578,-0.53,0.35,
4579,-0.495,0.345,
4580,-0.52,0.33,
4581,-0.61,0.31,
4582,-0.745,0.32,
4583,-0.79,0.345,
4584,-0.725,0.36,
4585,-0.695,0.35,
4586,-0.75,0.32,
4587,-0.815,0.315,
4588,-0.79,0.335,
4589,-0.675,0.345,
4590,-0.605,0.355,
4591,-0.625,0.34,
4592,-0.645,0.295,
4593,-0.66,0.265,
4594,-0.635,0.245,
4595,-0.645,0.25,
4596,-0.685,0.265,
4597,-0.665,0.26,
4598,-0.64,0.235,
4599,-0.645,0.245,
4600,-0.66,0.26,
4601,-0.61,0.27,
4602,-0.545,0.285,
4603,-0.51,0.29,
4604,-0.525,0.295,
4605,-0.56,0.295,
4606,-0.565,0.285,
4607,-0.54,0.3,
4608,-0.525,0.305,
4609,-0.475,0.305,
4610,-0.435,0.295,
4611,-0.4,0.28,
4612,-0.37,0.29,
4613,-0.335,0.3,
4614,-0.285,0.305,
4615,-0.24,0.285,
4616,-0.225,0.255,
4617,-0.23,0.225,
4618,-0.22,0.235,
4619,-0.19,0.23,
4620,-0.165,0.23,
4621,-0.12,0.21,
4622,-0.085,0.18,
4623,-0.09,0.16,
4624,-0.095,0.165,
4625,-0.085,0.18,
4626,-0.065,0.18,
4627,-0.06,0.14,
4628,-0.08,0.105,
4629,-0.055,0.09,
4630,-0.025,0.11,
4631,-0.02,0.12,
4632,-0.045,0.12,
4633,-0.085,0.105,
4634,-0.135,0.065,
4635,-0.19,0.035,
4636,-0.2,0.04,
4637,-0.18,0.04,
4638,-0.155,0.04,
4639,-0.165,0.04,
4640,-0.175,0.005,
4641,-0.165,0.0,
4642,-0.15,0.0,
4643,-0.155,0.01,
4644,-0.16,0.035,
4645,-0.185,0.03,
4646,-0.22,0.005,
4647,-0.25,0.0,
4648,-0.26,-0.015,
4649,-0.235,-0.005,
4650,-0.225,-0.005,
4651,-0.255,-0.025,
4652,-0.31,-0.05,
4653,-0.35,-0.065,
4654,-0.335,-0.09,
4655,-0.28,-0.1,
4656,-0.24,-0.115,
4657,-0.26,-0.125,
4658,-0.29,-0.14,
4659,-0.335,-0.15,
4660,-0.345,-0.14,
4661,-0.33,-0.125,
4662,-0.315,-0.08,
4663,-0.295,-0.095,
4664,-0.275,-0.105,
4665,-0.285,-0.1,
4666,-0.32,-0.08,
4667,-0.295,-0.09,
4668,-0.265,-0.06,
4669,-0.29,-0.065,
4670,-0.33,-0.05,
4671,-0.36,-0.04,
4672,-0.35,-0.035,
4673,-0.325,-0.02,
4674,-0.335,-0.025,
4675,-0.36,-0.025,
4676,-0.35,-0.025,
4677,-0.3,-0.02,
4678,-0.28,-0.03,
4679,-0.285,-0.025,
4680,-0.315,-0.005,
4681,-0.355,-0.015,
4682,-0.35,-0.015,
4683,-0.325,-0.04,
4684,-0.315,-0.04,
4685,-0.315,-0.025,
4686,-0.315,-0.035,
4687,-0.29,-0.035,
4688,-0.305,-0.065,
4689,-0.3,-0.075,
4690,-0.295,-0.065,
4691,-0.265,-0.055,
4692,-0.23,-0.05,
4693,-0.175,-0.065,
4694,-0.115,-0.075,
4695,-0.04,-0.075,
4696,-0.01,-0.045,
4697,-0.045,0.01,
4698,-0.125,0.075,
4699,-0.225,0.14,
4700,-0.36,0.19,
4701,-0.48,0.25,
4702,-0.54,0.305,
4703,-0.555,0.315,
4704,-0.525,0.29,
4705,-0.505,0.21,
4706,-0.53,0.105,
4707,-0.54,-0.035,
4708,-0.53,-0.185,
4709,-0.58,-0.33,
4710,-0.595,-0.43,
4711,-0.525,-0.535,
4712,-0.37,-0.59,
4713,-0.22,-0.655,
4714,-0.065,-0.69,
4715,0.09,-0.71,
4716,0.24,-0.715,
4717,0.385,-0.725,
4718,0.51,-0.745,
4719,0.585,-0.775,
4720,0.655,-0.765,
4721,0.68,-0.77,
4722,0.69,-0.755,N
4723,0.675,-0.755,
4724,0.65,-0.75,
4725,0.595,-0.75,
4726,0.535,-0.69,
4727,0.44,-0.65,
4728,0.3,-0.585,
4729,0.13,-0.53,
4730,-0.05,-0.48,
4731,-0.21,-0.435,
4732,-0.34,-0.38,
4733,-0.43,-0.305,
4734,-0.41,-0.25,
4735,-0.405,-0.2,
4736,-0.435,-0.195,
4737,-0.47,-0.19,
4738,-0.48,-0.15,
4739,-0.48,-0.115,
4740,-0.485,-0.085,
4741,-0.505,-0.095,
4742,-0.525,-0.1,
4743,-0.51,-0.085,
4744,-0.51,-0.07,
4745,-0.485,-0.06,
4746,-0.49,-0.04,
4747,-0.48,-0.045,
4748,-0.495,-0.065,
4749,-0.51,-0.055,
4750,-0.52,-0.06,
4751,-0.51,-0.04,
4752,-0.465,-0.035,
4753,-0.455,-0.035,
4754,-0.44,-0.055,
4755,-0.44,-0.045,
4756,-0.435,-0.035,
4757,-0.42,-0.025,
4758,-0.4,-0.005,
4759,-0.375,-0.01,
4760,-0.34,-0.035,
4761,-0.32,-0.045,
4762,-0.285,-0.06,
4763,-0.22,-0.05,
4764,-0.17,-0.06,
4765,-0.145,-0.08,
4766,-0.15,-0.12,
4767,-0.155,-0.12,
4768,-0.13,-0.125,
4769,-0.085,-0.095,
4770,-0.065,-0.085,
4771,-0.08,-0.09,
4772,-0.055,-0.095,
4773,-0.015,-0.11,
4774,0.025,-0.09,
4775,0.055,-0.07,
4776,0.085,-0.075,
4777,0.1,-0.07,
4778,0.11,-0.07,
4779,0.105,-0.06,
4780,0.12,-0.06,
4781,0.14,-0.03,
4782,0.16,-0.01,
4783,0.14,-0.01,
4784,0.12,-0.01,
4785,0.09,-0.02,
4786,0.085,-0.005,
4787,0.075,0.02,
4788,0.075,0.04,
4789,0.04,0.04,
4790,0.015,0.04,
4791,0.005,0.015,
4792,-0.02,0.03,
4793,-0.035,0.045,
4794,-0.05,0.065,
4795,-0.08,0.05,
4796,-0.1,0.04,
4797,-0.12,0.035,
4798,-0.165,0.035,
4799,-0.17,0.045,
4800,-0.175,0.06,
4801,-0.175,0.055,
4802,-0.21,0.04,
4803,-0.245,0.015,
4804,-0.26,0.015,
4805,-0.255,0.025,
4806,-0.26,0.03,
4807,-0.275,0.025,
4808,-0.3,0.01,
4809,-0.295,-0.02,
4810,-0.295,-0.015,
4811,-0.275,0.005,
4812,-0.275,0.015,
4813,-0.275,-0.01,
4814,-0.27,-0.025,
4815,-0.26,-0.035,
4816,-0.26,-0.03,
4817,-0.25,-0.02,
4818,-0.24,-0.03,
4819,-0.23,-0.04,
4820,-0.235,-0.075,
4821,-0.24,-0.09,
4822,-0.255,-0.115,
4823,-0.24,-0.105,
4824,-0.205,-0.1,
4825,-0.195,-0.125,
4826,-0.225,-0.145,
4827,-0.235,-0.165,
4828,-0.24,-0.16,
4829,-0.22,-0.15,
4830,-0.205,-0.145,
4831,-0.215,-0.14,
4832,-0.23,-0.14,
4833,-0.235,-0.165,
4834,-0.23,-0.15,
4835,-0.225,-0.13,
4836,-0.23,-0.11,
4837,-0.23,-0.105,
4838,-0.215,-0.1,
4839,-0.185,-0.105,
4840,-0.155,-0.085,
4841,-0.14,-0.065,
4842,-0.135,-0.02,
4843,-0.115,-0.02,
4844,-0.105,-0.04,
4845,-0.085,-0.045,
4846,-0.075,-0.025,
4847,-0.05,-0.005,
4848,0.0,-0.005,
4849,0.135,-0.03,
4850,0.325,-0.085,
4851,0.525,-0.13,
4852,0.71,-0.17,
4853,0.805,-0.215,
4854,0.87,-0.285,
4855,0.965,-0.345,
4856,1.07,-0.39,
4857,1.11,-0.425,
4858,1.11,-0.455,
4859,1.125,-0.485,N
4860,1.125,-0.495,
4861,1.08,-0.54,
4862,0.995,-0.56,
4863,0.87,-0.565,
4864,0.745,-0.545,
4865,0.58,-0.465,
4866,0.36,-0.43,
4867,0.12,-0.38,
4868,-0.075,-0.355,
4869,-0.285,-0.335,
4870,-0.41,-0.275,
4871,-0.485,-0.22,
4872,-0.465,-0.17,
4873,-0.465,-0.175,
4874,-0.53,-0.195,
4875,-0.58,-0.185,
4876,-0.59,-0.185,
4877,-0.565,-0.175,
4878,-0.57,-0.18,
4879,-0.6,-0.175,
4880,-0.61,-0.185,
4881,-0.615,-0.2,
4882,-0.63,-0.19,
4883,-0.63,-0.18,
4884,-0.63,-0.155,
4885,-0.6,-0.15,
4886,-0.6,-0.17,
4887,-0.62,-0.19,
4888,-0.645,-0.155,
4889,-0.63,-0.155,
4890,-0.605,-0.125,
4891,-0.59,-0.125,
4892,-0.6,-0.14,
4893,-0.6,-0.14,
4894,-0.59,-0.14,
4895,-0.56,-0.115,
4896,-0.55,-0.105,
4897,-0.535,-0.11,
4898,-0.555,-0.115,
4899,-0.565,-0.1,
4900,-0.565,-0.095,
4901,-0.545,-0.06,
4902,-0.515,-0.05,
4903,-0.5,-0.05,
4904,-0.52,-0.065,
4905,-0.525,-0.06,
4906,-0.51,-0.035,
4907,-0.49,-0.015,
4908,-0.455,0.015,
4909,-0.465,0.01,
4910,-0.46,-0.005,
4911,-0.46,-0.01,
4912,-0.47,0.01,
4913,-0.45,0.01,
4914,-0.445,0.015,
4915,-0.44,0.0,
4916,-0.42,-0.01,
4917,-0.405,-0.03,
4918,-0.4,-0.03,
4919,-0.33,-0.02,
4920,-0.27,-0.02,
4921,-0.24,-0.07,
4922,-0.25,-0.1,
4923,-0.27,-0.155,
4924,-0.255,-0.175,
4925,-0.22,-0.185,
4926,-0.21,-0.19,
4927,-0.19,-0.21,
4928,-0.14,-0.245,
4929,-0.095,-0.255,
4930,-0.075,-0.255,
4931,-0.125,-0.24,
4932,-0.22,-0.23,
4933,-0.265,-0.225,
4934,-0.29,-0.225,
4935,-0.28,-0.25,
4936,-0.28,-0.23,
4937,-0.275,-0.215,
4938,-0.265,-0.18,
4939,-0.26,-0.19,
4940,-0.305,-0.19,
4941,-0.33,-0.18,
4942,-0.325,-0.155,
4943,-0.3,-0.13,
4944,-0.27,-0.105,
4945,-0.275,-0.11,
4946,-0.28,-0.12,
4947,-0.285,-0.135,
4948,-0.33,-0.12,
4949,-0.33,-0.1,
4950,-0.34,-0.085,
4951,-0.355,-0.1,
4952,-0.385,-0.11,
4953,-0.38,-0.095,
4954,-0.365,-0.075,
4955,-0.325,-0.045,
4956,-0.3,-0.025,
4957,-0.295,-0.06,
4958,-0.29,-0.105,
4959,-0.3,-0.14,
4960,-0.32,-0.135,
4961,-0.395,-0.105,
4962,-0.445,-0.07,
4963,-0.455,-0.06,
4964,-0.47,-0.04,
4965,-0.49,-0.03,
4966,-0.51,-0.01,
4967,-0.475,0.035,
4968,-0.45,0.06,
4969,-0.41,0.055,
4970,-0.39,0.03,
4971,-0.36,-0.015,
4972,-0.28,-0.055,
4973,-0.195,-0.09,
4974,-0.16,-0.16,
4975,-0.185,-0.23,
4976,-0.265,-0.29,
4977,-0.355,-0.3,
4978,-0.36,-0.29,
4979,-0.36,-0.265,
4980,-0.37,-0.255,
4981,-0.415,-0.255,
4982,-0.51,-0.29,
4983,-0.605,-0.33,
4984,-0.675,-0.35,
4985,-0.685,-0.335,
4986,-0.675,-0.34,
4987,-0.635,-0.32,
4988,-0.64,-0.315,
4989,-0.68,-0.285,
4990,-0.71,-0.23,
4991,-0.69,-0.135,
4992,-0.625,-0.09,
4993,-0.56,-0.08,
4994,-0.555,-0.06,
4995,-0.57,-0.05,
4996,-0.565,-0.06,
4997,-0.545,-0.055,
4998,-0.53,-0.07,
4999,-0.525,-0.115,
5000,-0.54,-0.19,
5001,-0.555,-0.245,
5002,-0.515,-0.255,
5003,-0.465,-0.255,
5004,-0.435,-0.23,
5005,-0.44,-0.245,
5006,-0.48,-0.27,
5007,-0.475,-0.26,
5008,-0.48,-0.245,
5009,-0.48,-0.235,
5010,-0.485,-0.205,
5011,-0.495,-0.205,
5012,-0.485,-0.205,
5013,-0.5,-0.2,
5014,-0.505,-0.175,
5015,-0.52,-0.15,
5016,-0.51,-0.145,
5017,-0.5,-0.14,
5018,-0.52,-0.155,
5019,-0.54,-0.16,
5020,-0.565,-0.13,
5021,-0.565,-0.115,
5022,-0.55,-0.085,
5023,-0.535,-0.09,
5024,-0.545,-0.1,
5025,-0.57,-0.115,
5026,-0.58,-0.09,
5027,-0.58,-0.05,
5028,-0.575,-0.03,
5029,-0.61,-0.045,
5030,-0.61,-0.06,
5031,-0.615,-0.05,
5032,-0.625,-0.035,
5033,-0.625,-0.015,
5034,-0.625,-0.005,
5035,-0.63,-0.035,
5036,-0.645,-0.055,
5037,-0.665,-0.07,
5038,-0.675,-0.07,
5039,-0.65,-0.065,
5040,-0.645,-0.07,
5041,-0.615,-0.09,
5042,-0.625,-0.12,
5043,-0.635,-0.145,
5044,-0.635,-0.155,
5045,-0.63,-0.15,
5046,-0.63,-0.14,
5047,-0.63,-0.145,
5048,-0.655,-0.165,
5049,-0.66,-0.165,
5050,-0.665,-0.155,
5051,-0.66,-0.14,
5052,-0.62,-0.125,
5053,-0.58,-0.12,
5054,-0.565,-0.14,
5055,-0.59,-0.13,
5056,-0.625,-0.115,
5057,-0.645,-0.09,
5058,-0.665,-0.075,
5059,-0.685,-0.07,
5060,-0.71,-0.075,
5061,-0.715,-0.09,
5062,-0.675,-0.055,
5063,-0.62,-0.035,
5064,-0.56,0.02,
5065,-0.535,-0.005,
5066,-0.545,-0.015,
5067,-0.585,0.005,
5068,-0.535,0.005,
5069,-0.43,0.01,
5070,-0.3,0.02,
5071,-0.245,-0.01,
5072,-0.2,-0.045,
5073,-0.135,-0.08,
5074,0.01,-0.135,
5075,0.235,-0.175,
5076,0.49,-0.22,
5077,0.69,-0.295,
5078,0.795,-0.38,
5079,0.83,-0.465,
5080,0.85,-0.495,
5081,0.91,-0.475,
5082,0.955,-0.475,N
5083,0.96,-0.48,
5084,0.93,-0.505,
5085,0.835,-0.55,
5086,0.73,-0.56,
5087,0.61,-0.53,
5088,0.485,-0.5,
5089,0.255,-0.465,
5090,-0.035,-0.425,
5091,-0.305,-0.395,
5092,-0.535,-0.33,
5093,-0.715,-0.265,
5094,-0.825,-0.21,
5095,-0.855,-0.175,
5096,-0.88,-0.16,
5097,-0.92,-0.165,
5098,-0.98,-0.125,
5099,-1.0,-0.09,
5100,-1.0,-0.085,
5101,-0.995,-0.06,
5102,-1.015,-0.085,
5103,-1.04,-0.08,
5104,-1.055,-0.045,
5105,-1.075,-0.03,
5106,-1.07,0.01,
5107,-1.09,0.0,
5108,-1.105,-0.01,
5109,-1.15,0.0,
5110,-1.18,0.015,
5111,-1.17,0.035,
5112,-1.155,0.05,
5113,-1.13,0.055,
5114,-1.155,0.05,
5115,-1.155,0.05,
5116,-1.17,0.075,
5117,-1.16,0.095,
5118,-1.155,0.115,
5119,-1.14,0.11,
5120,-1.155,0.105,
5121,-1.16,0.11,
5122,-1.16,0.12,
5123,-1.16,0.15,
5124,-1.135,0.155,
5125,-1.135,0.15,
5126,-1.175,0.15,
5127,-1.175,0.16,
5128,-1.145,0.165,
5129,-1.12,0.175,
5130,-1.12,0.185,
5131,-1.125,0.19,
5132,-1.155,0.175,
5133,-1.15,0.195,
5134,-1.145,0.205,
5135,-1.125,0.235,
5136,-1.105,0.25,
5137,-1.1,0.26,
5138,-1.09,0.26,
5139,-1.105,0.27,
5140,-1.115,0.29,
5141,-1.085,0.305,
5142,-1.07,0.29,
5143,-1.07,0.275,
5144,-1.05,0.23,
5145,-1.04,0.19,
5146,-1.03,0.195,
5147,-1.025,0.17,
5148,-1.005,0.135,
5149,-0.975,0.12,
5150,-0.985,0.07,
5151,-0.97,0.05,
5152,-0.94,0.05,
5153,-0.915,0.07,
5154,-0.92,0.07,
5155,-0.89,0.075,
5156,-0.865,0.065,
5157,-0.86,0.055,
5158,-0.855,0.055,
5159,-0.87,0.075,
5160,-0.895,0.1,
5161,-0.875,0.08,
5162,-0.87,0.08,
5163,-0.91,0.07,
5164,-0.91,0.085,
5165,-0.9,0.095,
5166,-0.885,0.115,
5167,-0.87,0.105,
5168,-0.87,0.1,
5169,-0.885,0.085,
5170,-0.905,0.085,
5171,-0.905,0.11,
5172,-0.895,0.13,
5173,-0.9,0.12,
5174,-0.93,0.11,
5175,-0.94,0.1,
5176,-0.935,0.115,
5177,-0.92,0.135,
5178,-0.875,0.15,
5179,-0.865,0.16,
5180,-0.885,0.135,
5181,-0.895,0.14,
5182,-0.9,0.145,
5183,-0.885,0.165,
5184,-0.87,0.19,
5185,-0.875,0.18,
5186,-0.885,0.165,
5187,-0.895,0.16,
5188,-0.91,0.175,
5189,-0.92,0.21,
5190,-0.925,0.205,
5191,-0.935,0.19,
5192,-0.94,0.18,
5193,-0.955,0.17,
5194,-0.92,0.195,
5195,-0.915,0.19,
5196,-0.865,0.205,
5197,-0.88,0.165,
5198,-0.91,0.155,
5199,-0.95,0.14,
5200,-0.97,0.125,
5201,-0.975,0.16,
5202,-0.98,0.135,
5203,-1.005,0.13,
5204,-1.005,0.105,
5205,-0.99,0.085,
5206,-0.97,0.08,
5207,-0.97,0.085,
5208,-0.975,0.08,
5209,-1.02,0.065,
5210,-1.03,0.05,
5211,-1.03,0.05,
5212,-1.02,0.05,
5213,-0.98,0.06,
5214,-0.96,0.04,
5215,-0.98,0.05,
5216,-1.02,0.04,
5217,-1.045,0.035,
5218,-1.025,0.04,
5219,-1.015,0.085,
5220,-1.005,0.075,
5221,-1.0,0.07,
5222,-0.995,0.06,
5223,-0.99,0.05,
5224,-0.995,0.06,
5225,-1.005,0.075,
5226,-0.99,0.1,
5227,-0.995,0.095,
5228,-1.005,0.095,
5229,-1.03,0.095,
5230,-1.0,0.125,
5231,-0.94,0.175,
5232,-0.885,0.205,
5233,-0.89,0.23,
5234,-0.87,0.21,
5235,-0.805,0.22,
5236,-0.775,0.225,
5237,-0.7,0.23,
5238,-0.555,0.22,
5239,-0.335,0.155,
5240,-0.08,0.07,
5241,0.215,-0.03,
5242,0.505,-0.14,
5243,0.695,-0.245,
5244,0.77,-0.33,
5245,0.815,-0.385,
5246,0.895,-0.44,
5247,0.92,-0.5,N
5248,0.885,-0.525,
5249,0.855,-0.54,
5250,0.76,-0.54,
5251,0.63,-0.56,
5252,0.41,-0.54,
5253,0.135,-0.525,
5254,-0.13,-0.47,
5255,-0.39,-0.385,
5256,-0.645,-0.32,
5257,-0.915,-0.26,
5258,-1.14,-0.21,
5259,-1.255,-0.135,
5260,-1.275,-0.065,
5261,-1.28,-0.015,
5262,-1.29,0.02,
5263,-1.295,0.035,
5264,-1.335,0.03,
5265,-1.37,0.035,
5266,-1.365,0.06,
5267,-1.355,0.065,
5268,-1.33,0.09,
5269,-1.345,0.085,
5270,-1.355,0.065,
5271,-1.375,0.09,
5272,-1.405,0.09,
5273,-1.405,0.12,
5274,-1.38,0.135,
5275,-1.37,0.125,
5276,-1.395,0.12,
5277,-1.435,0.12,
5278,-1.42,0.15,
5279,-1.39,0.16,
5280,-1.355,0.19,
5281,-1.355,0.19,
5282,-1.37,0.185,
5283,-1.38,0.17,
5284,-1.38,0.21,
5285,-1.355,0.235,
5286,-1.355,0.25,
5287,-1.345,0.235,
5288,-1.37,0.225,
5289,-1.375,0.21,
5290,-1.37,0.23,
5291,-1.345,0.24,
5292,-1.305,0.275,
5293,-1.295,0.265,
5294,-1.3,0.25,
5295,-1.285,0.255,
5296,-1.28,0.245,
5297,-1.245,0.255,
5298,-1.24,0.245,
5299,-1.215,0.21,
5300,-1.205,0.18,
5301,-1.23,0.135,
5302,-1.23,0.12,
5303,-1.195,0.1,
5304,-1.17,0.095,
5305,-1.145,0.035,
5306,-1.135,0.0,
5307,-1.14,-0.025,
5308,-1.12,-0.03,
5309,-1.11,-0.02,
5310,-1.11,-0.04,
5311,-1.1,-0.02,
5312,-1.065,-0.05,
5313,-1.01,-0.055,
5314,-0.975,-0.055,
5315,-0.95,-0.03,
5316,-0.95,-0.005,
5317,-0.955,0.0,
5318,-0.98,0.01,
5319,-1.0,0.005,
5320,-1.0,0.035,
5321,-0.985,0.065,
5322,-0.975,0.08,
5323,-0.975,0.09,
5324,-0.985,0.08,
5325,-1.0,0.095,
5326,-1.015,0.13,
5327,-1.055,0.14,
5328,-1.03,0.155,
5329,-1.02,0.15,
5330,-1.025,0.15,
5331,-1.045,0.145,
5332,-1.05,0.17,
5333,-1.075,0.19,
5334,-1.075,0.21,
5335,-1.085,0.185,
5336,-1.08,0.19,
5337,-1.08,0.185,
5338,-1.085,0.2,
5339,-1.08,0.235,
5340,-1.07,0.23,
5341,-1.045,0.24,
5342,-1.065,0.22,
5343,-1.07,0.205,
5344,-1.07,0.21,
5345,-1.055,0.215,
5346,-1.055,0.215,
5347,-1.045,0.2,
5348,-1.06,0.17,
5349,-1.06,0.155,
5350,-1.055,0.155,
5351,-1.035,0.16,
5352,-1.025,0.16,
5353,-1.06,0.12,
5354,-1.065,0.095,
5355,-1.075,0.075,
5356,-1.06,0.06,
5357,-1.03,0.05,
5358,-1.01,0.055,
5359,-1.01,0.03,
5360,-0.995,0.0,
5361,-1.01,-0.01,
5362,-1.02,0.0,
5363,-1.03,0.005,
5364,-1.025,0.03,
5365,-1.035,0.02,
5366,-1.075,0.01,
5367,-1.105,0.015,
5368,-1.09,0.025,
5369,-1.055,0.06,
5370,-1.045,0.06,
5371,-1.07,0.05,
5372,-1.1,0.04,
5373,-1.11,0.035,
5374,-1.085,0.04,
5375,-1.065,0.075,
5376,-1.05,0.085,
5377,-1.065,0.075,
5378,-1.07,0.085,
5379,-1.085,0.085,
5380,-1.085,0.075,
5381,-1.07,0.12,
5382,-1.055,0.13,
5383,-1.05,0.12,
5384,-1.045,0.11,
5385,-1.055,0.105,
5386,-1.04,0.135,
5387,-1.01,0.155,
5388,-0.99,0.19,
5389,-0.995,0.19,
5390,-0.995,0.18,
5391,-1.005,0.175,
5392,-1.015,0.2,
5393,-0.995,0.21,
5394,-0.98,0.22,
5395,-0.95,0.2,
5396,-0.935,0.195,
5397,-0.945,0.185,
5398,-0.945,0.175,
5399,-0.935,0.19,
5400,-0.905,0.2,
5401,-0.895,0.17,
5402,-0.895,0.16,
5403,-0.915,0.145,
5404,-0.915,0.145,
5405,-0.89,0.165,
5406,-0.89,0.15,
5407,-0.865,0.115,
5408,-0.87,0.08,
5409,-0.88,0.06,
5410,-0.88,0.06,
5411,-0.855,0.05,
5412,-0.83,0.05,
5413,-0.81,0.04,
5414,-0.845,0.01,
5415,-0.845,0.0,
5416,-0.8,0.015,
5417,-0.735,0.035,
5418,-0.68,0.055,
5419,-0.665,0.035,
5420,-0.63,0.025,
5421,-0.56,-0.005,
5422,-0.46,-0.005,
5423,-0.355,0.025,
5424,-0.24,-0.005,
5425,-0.105,-0.055,
5426,0.09,-0.12,
5427,0.325,-0.185,
5428,0.575,-0.23,
5429,0.835,-0.28,
5430,1.005,-0.335,
5431,1.08,-0.42,
5432,1.075,-0.46,
5433,1.085,-0.465,
5434,1.105,-0.455,N
5435,1.095,-0.45,
5436,1.07,-0.485,
5437,0.99,-0.515,
5438,0.835,-0.53,
5439,0.67,-0.525,
5440,0.465,-0.49,
5441,0.21,-0.42,
5442,-0.055,-0.36,
5443,-0.345,-0.3,
5444,-0.59,-0.24,
5445,-0.805,-0.19,
5446,-0.935,-0.115,
5447,-0.95,-0.06,
5448,-0.92,-0.015,
5449,-0.93,-0.015,
5450,-0.965,-0.015,
5451,-1.005,-0.015,
5452,-1.015,0.01,
5453,-1.035,0.025,
5454,-1.035,0.045,
5455,-1.035,0.035,
5456,-1.055,0.055,
5457,-1.055,0.035,
5458,-1.04,0.05,
5459,-1.03,0.08,
5460,-1.03,0.11,
5461,-1.045,0.095,
5462,-1.045,0.085,
5463,-1.05,0.085,
5464,-1.04,0.095,
5465,-1.055,0.1,
5466,-1.045,0.1,
5467,-1.03,0.085,
5468,-1.03,0.075,
5469,-1.04,0.06,
5470,-1.04,0.08,
5471,-1.025,0.08,
5472,-0.995,0.1,
5473,-0.99,0.085,
5474,-1.015,0.075,
5475,-1.025,0.085,
5476,-1.015,0.085,
5477,-0.995,0.105,
5478,-0.985,0.12,
5479,-0.975,0.12,
5480,-0.995,0.095,
5481,-1.01,0.115,
5482,-1.015,0.12,
5483,-1.015,0.13,
5484,-0.99,0.125,
5485,-0.985,0.13,
5486,-0.995,0.13,
5487,-0.99,0.11,
5488,-1.01,0.14,
5489,-0.98,0.155,
5490,-0.965,0.175,
5491,-0.955,0.175,
5492,-0.95,0.16,
5493,-0.94,0.15,
5494,-0.915,0.155,
5495,-0.88,0.18,
5496,-0.83,0.175,
5497,-0.805,0.16,
5498,-0.8,0.13,
5499,-0.795,0.115,
5500,-0.77,0.115,
5501,-0.74,0.11,
5502,-0.715,0.125,
5503,-0.695,0.095,
5504,-0.68,0.08,
5505,-0.65,0.085,
5506,-0.635,0.095,
5507,-0.62,0.115,
5508,-0.585,0.11,
5509,-0.595,0.1,
5510,-0.595,0.085,
5511,-0.615,0.08,
5512,-0.6,0.07,
5513,-0.58,0.075,
5514,-0.545,0.075,
5515,-0.545,0.04,
5516,-0.57,0.025,
5517,-0.575,0.0,
5518,-0.575,-0.005,
5519,-0.56,-0.01,
5520,-0.56,0.015,
5521,-0.55,-0.005,
5522,-0.545,-0.025,
5523,-0.55,-0.025,
5524,-0.55,-0.015,
5525,-0.555,-0.005,
5526,-0.52,0.01,
5527,-0.53,0.0,
5528,-0.555,-0.025,
5529,-0.555,-0.015,
5530,-0.55,-0.01,
5531,-0.53,-0.005,
5532,-0.51,0.0,
5533,-0.515,0.005,
5534,-0.515,-0.005,
5535,-0.535,-0.01,
5536,-0.54,-0.005,
5537,-0.535,0.005,
5538,-0.505,0.035,
5539,-0.485,0.03,
5540,-0.49,0.01,
5541,-0.525,0.025,
5542,-0.56,0.025,
5543,-0.56,0.045,
5544,-0.545,0.065,
5545,-0.555,0.055,
5546,-0.59,0.035,
5547,-0.565,0.05,
5548,-0.55,0.025,
5549,-0.51,0.04,
5550,-0.5,0.045,
5551,-0.52,0.03,
5552,-0.525,0.01,
5553,-0.53,-0.01,
5554,-0.525,0.01,
5555,-0.52,0.01,
5556,-0.515,0.0,
5557,-0.51,-0.025,
5558,-0.495,-0.05,
5559,-0.51,-0.075,
5560,-0.505,-0.075,
5561,-0.495,-0.065,
5562,-0.455,-0.05,
5563,-0.45,-0.075,
5564,-0.465,-0.085,
5565,-0.46,-0.09,
5566,-0.445,-0.085,
5567,-0.445,-0.075,
5568,-0.45,-0.085,
5569,-0.46,-0.1,
5570,-0.455,-0.105,
5571,-0.43,-0.12,
5572,-0.42,-0.12,
5573,-0.42,-0.08,
5574,-0.4,-0.07,
5575,-0.385,-0.09,
5576,-0.365,-0.09,
5577,-0.365,-0.11,
5578,-0.35,-0.095,
5579,-0.35,-0.07,
5580,-0.355,-0.06,
5581,-0.34,-0.07,
5582,-0.345,-0.075,
5583,-0.345,-0.065,
5584,-0.35,-0.06,
5585,-0.335,-0.04,
5586,-0.325,-0.01,
5587,-0.32,-0.015,
5588,-0.345,-0.01,
5589,-0.385,-0.01,
5590,-0.41,0.01,
5591,-0.405,0.01,
5592,-0.38,0.04,
5593,-0.35,0.04,
5594,-0.355,0.04,
5595,-0.36,0.035,
5596,-0.38,0.04,
5597,-0.395,0.065,
5598,-0.38,0.06,
5599,-0.37,0.065,
5600,-0.39,0.04,
5601,-0.41,0.03,
5602,-0.415,0.03,
5603,-0.385,0.04,
5604,-0.36,0.04,
5605,-0.395,0.015,
5606,-0.41,0.005,
5607,-0.385,-0.01,
5608,-0.355,-0.015,
5609,-0.335,-0.01,
5610,-0.335,-0.005,
5611,-0.345,-0.03,
5612,-0.37,-0.035,
5613,-0.365,-0.065,
5614,-0.35,-0.065,
5615,-0.315,-0.06,
5616,-0.295,-0.06,
5617,-0.31,-0.09,
5618,-0.33,-0.09,
5619,-0.32,-0.11,
5620,-0.295,-0.09,
5621,-0.29,-0.08,
5622,-0.285,-0.08,
5623,-0.29,-0.115,
5624,-0.285,-0.11,
5625,-0.295,-0.105,
5626,-0.26,-0.095,
5627,-0.215,-0.085,
5628,-0.19,-0.07,
5629,-0.21,-0.075,
5630,-0.245,-0.085,
5631,-0.25,-0.085,
5632,-0.215,-0.045,
5633,-0.17,-0.025,
5634,-0.1,-0.005,
5635,-0.065,0.015,
5636,-0.015,0.0,
5637,0.08,0.005,
5638,0.21,0.015,
5639,0.345,0.03,
5640,0.46,0.015,
5641,0.59,-0.025,
5642,0.765,-0.09,
5643,1.0,-0.135,
5644,1.26,-0.205,
5645,1.48,-0.285,
5646,1.625,-0.35,
5647,1.665,-0.425,
5648,1.665,-0.48,
5649,1.69,-0.485,N
5650,1.7,-0.525,
5651,1.675,-0.555,
5652,1.61,-0.605,
5653,1.445,-0.655,
5654,1.27,-0.68,
5655,1.09,-0.675,
5656,0.865,-0.63,
5657,0.63,-0.555,
5658,0.38,-0.475,
5659,0.125,-0.425,
5660,-0.13,-0.375,
5661,-0.325,-0.32,
5662,-0.37,-0.25,
5663,-0.365,-0.2,
5664,-0.355,-0.17,
5665,-0.375,-0.15,
5666,-0.405,-0.145,
5667,-0.43,-0.145,
5668,-0.465,-0.145,
5669,-0.49,-0.115,
5670,-0.46,-0.095,
5671,-0.44,-0.11,
5672,-0.465,-0.125,
5673,-0.48,-0.115,
5674,-0.505,-0.085,
5675,-0.485,-0.045,
5676,-0.485,-0.05,
5677,-0.505,-0.035,
5678,-0.52,-0.045,
5679,-0.52,-0.055,
5680,-0.495,-0.035,
5681,-0.48,-0.035,
5682,-0.475,-0.015,
5683,-0.46,-0.035,
5684,-0.465,-0.055,
5685,-0.47,-0.06,
5686,-0.48,-0.055,
5687,-0.465,-0.04,
5688,-0.44,-0.035,
5689,-0.45,-0.04,
5690,-0.415,-0.055,
5691,-0.425,-0.075,
5692,-0.395,-0.075,
5693,-0.385,-0.07,
5694,-0.395,-0.07,
5695,-0.36,-0.09,
5696,-0.36,-0.115,
5697,-0.35,-0.13,
5698,-0.36,-0.11,
5699,-0.32,-0.095,
5700,-0.285,-0.095,
5701,-0.285,-0.095,
5702,-0.29,-0.135,
5703,-0.31,-0.145,
5704,-0.3,-0.14,
5705,-0.27,-0.115,
5706,-0.25,-0.125,
5707,-0.255,-0.135,
5708,-0.245,-0.145,
5709,-0.25,-0.13,
5710,-0.225,-0.11,
5711,-0.2,-0.095,
5712,-0.17,-0.1,
5713,-0.15,-0.105,
5714,-0.12,-0.12,
5715,-0.115,-0.1,
5716,-0.105,-0.1,
5717,-0.065,-0.085,
5718,-0.02,-0.075,
5719,-0.02,-0.115,
5720,-0.015,-0.12,
5721,-0.005,-0.125,
5722,0.035,-0.1,
5723,0.055,-0.09,
5724,0.055,-0.075,
5725,0.05,-0.08,
5726,0.075,-0.08,
5727,0.09,-0.085,
5728,0.095,-0.07,
5729,0.115,-0.05,
5730,0.115,-0.04,
5731,0.085,-0.045,
5732,0.065,-0.065,
5733,0.03,-0.04,
5734,0.03,-0.03,
5735,0.055,0.0,
5736,0.055,0.005,
5737,0.07,-0.015,
5738,0.045,-0.025,
5739,0.03,-0.025,
5740,0.015,-0.01,
5741,0.035,-0.005,
5742,0.04,0.005,
5743,0.04,0.0,
5744,0.03,-0.015,
5745,0.005,-0.03,
5746,0.005,-0.025,
5747,0.005,-0.03,
5748,0.035,-0.025,
5749,0.06,-0.06,
5750,0.075,-0.105,
5751,0.03,-0.125,
5752,0.03,-0.14,
5753,0.03,-0.14,
5754,0.06,-0.175,
5755,0.05,-0.2,
5756,0.035,-0.235,
5757,0.055,-0.25,
5758,0.095,-0.245,
5759,0.105,-0.23,
5760,0.12,-0.205,
5761,0.105,-0.225,
5762,0.12,-0.225,
5763,0.135,-0.23,
5764,0.11,-0.215,
5765,0.11,-0.195,
5766,0.11,-0.19,
5767,0.11,-0.18,
5768,0.1,-0.2,
5769,0.08,-0.2,
5770,0.095,-0.18,
5771,0.13,-0.165,
5772,0.16,-0.15,
5773,0.155,-0.155,
5774,0.15,-0.17,
5775,0.2,-0.145,
5776,0.28,-0.11,
5777,0.33,-0.08,
5778,0.33,-0.05,
5779,0.305,-0.02,
5780,0.335,-0.01,
5781,0.34,0.005,
5782,0.37,0.035,
5783,0.425,0.045,
5784,0.515,0.03,
5785,0.67,-0.01,
5786,0.855,-0.07,
5787,1.08,-0.13,
5788,1.29,-0.2,
5789,1.485,-0.255,
5790,1.545,-0.315,
5791,1.6,-0.36,
5792,1.675,-0.41,
5793,1.725,-0.445,
5794,1.715,-0.5,N
5795,1.68,-0.565,
5796,1.64,-0.6,
5797,1.54,-0.64,
5798,1.39,-0.655,
5799,1.225,-0.645,
5800,1.08,-0.6,
5801,0.875,-0.51,
5802,0.655,-0.465,
5803,0.425,-0.425,
5804,0.22,-0.4,
5805,0.095,-0.355,
5806,0.01,-0.285,
5807,-0.01,-0.255,
5808,-0.02,-0.215,
5809,-0.075,-0.215,
5810,-0.105,-0.21,
5811,-0.145,-0.205,
5812,-0.16,-0.2,
5813,-0.145,-0.17,
5814,-0.155,-0.185,
5815,-0.185,-0.205,
5816,-0.22,-0.245,
5817,-0.235,-0.255,
5818,-0.215,-0.24,
5819,-0.205,-0.24,
5820,-0.185,-0.235,
5821,-0.195,-0.235,
5822,-0.23,-0.255,
5823,-0.23,-0.24,
5824,-0.255,-0.225,
5825,-0.235,-0.185,
5826,-0.225,-0.16,
5827,-0.23,-0.16,
5828,-0.245,-0.165,
5829,-0.23,-0.15,
5830,-0.2,-0.125,
5831,-0.195,-0.1,
5832,-0.185,-0.075,
5833,-0.185,-0.085,
5834,-0.17,-0.085,
5835,-0.185,-0.095,
5836,-0.19,-0.07,
5837,-0.17,-0.04,
5838,-0.14,-0.03,
5839,-0.12,-0.04,
5840,-0.125,-0.045,
5841,-0.125,-0.045,
5842,-0.12,-0.025,
5843,-0.11,-0.005,
5844,-0.085,-0.01,
5845,-0.07,-0.015,
5846,-0.045,-0.04,
5847,-0.02,-0.045,
5848,-0.015,-0.04,
5849,0.015,-0.045,
5850,0.05,-0.055,
5851,0.08,-0.085,
5852,0.065,-0.13,
5853,0.075,-0.15,
5854,0.12,-0.15,
5855,0.17,-0.135,
5856,0.2,-0.13,
5857,0.2,-0.135,
5858,0.2,-0.14,
5859,0.205,-0.155,
5860,0.235,-0.135,
5861,0.25,-0.115,
5862,0.28,-0.115,
5863,0.29,-0.11,
5864,0.28,-0.12,
5865,0.295,-0.14,
5866,0.3,-0.15,
5867,0.31,-0.135,
5868,0.27,-0.135,
5869,0.245,-0.155,
5870,0.235,-0.165,
5871,0.225,-0.18,
5872,0.205,-0.155,
5873,0.185,-0.13,
5874,0.2,-0.11,
5875,0.18,-0.115,
5876,0.175,-0.13,
5877,0.16,-0.12,
5878,0.165,-0.11,
5879,0.18,-0.08,
5880,0.195,-0.075,
5881,0.195,-0.085,
5882,0.18,-0.095,
5883,0.18,-0.09,
5884,0.17,-0.075,
5885,0.175,-0.055,
5886,0.18,-0.07,
5887,0.18,-0.06,
5888,0.185,-0.07,
5889,0.185,-0.06,
5890,0.2,-0.045,
5891,0.235,-0.045,
5892,0.26,-0.04,
5893,0.25,-0.07,
5894,0.24,-0.08,
5895,0.215,-0.095,
5896,0.21,-0.085,
5897,0.215,-0.07,
5898,0.23,-0.08,
5899,0.205,-0.085,
5900,0.19,-0.105,
5901,0.17,-0.115,
5902,0.18,-0.12,
5903,0.185,-0.11,
5904,0.18,-0.1,
5905,0.165,-0.12,
5906,0.165,-0.14,
5907,0.15,-0.15,
5908,0.13,-0.145,
5909,0.14,-0.115,
5910,0.165,-0.11,
5911,0.175,-0.115,
5912,0.165,-0.125,
5913,0.135,-0.125,
5914,0.115,-0.125,
5915,0.135,-0.115,
5916,0.165,-0.095,
5917,0.17,-0.11,
5918,0.12,-0.125,
5919,0.08,-0.125,
5920,0.11,-0.11,
5921,0.175,-0.09,
5922,0.215,-0.085,
5923,0.2,-0.09,
5924,0.16,-0.11,
5925,0.125,-0.11,
5926,0.095,-0.095,
5927,0.1,-0.09,
5928,0.11,-0.1,
5929,0.125,-0.11,
5930,0.125,-0.13,
5931,0.11,-0.14,
5932,0.08,-0.13,
5933,0.1,-0.13,
5934,0.13,-0.115,
5935,0.16,-0.125,
5936,0.175,-0.15,
5937,0.155,-0.14,
5938,0.155,-0.135,
5939,0.15,-0.12,
5940,0.165,-0.105,
5941,0.165,-0.11,
5942,0.155,-0.125,
5943,0.14,-0.13,
5944,0.135,-0.115,
5945,0.14,-0.095,
5946,0.16,-0.09,
5947,0.155,-0.11,
5948,0.145,-0.145,
5949,0.13,-0.145,
5950,0.125,-0.135,
5951,0.155,-0.12,
5952,0.19,-0.11,
5953,0.195,-0.13,
5954,0.175,-0.14,
5955,0.145,-0.145,
5956,0.125,-0.13,
5957,0.12,-0.1,
5958,0.115,-0.1,
5959,0.13,-0.11,
5960,0.135,-0.09,
5961,0.125,-0.09,
5962,0.11,-0.045,
5963,0.13,-0.015,
5964,0.15,-0.01,
5965,0.15,-0.02,
5966,0.105,-0.04,
5967,0.095,-0.035,
5968,0.095,-0.045,
5969,0.095,-0.05,
5970,0.08,-0.04,
5971,0.085,-0.07,
5972,0.075,-0.08,
5973,0.075,-0.085,
5974,0.07,-0.09,
5975,0.08,-0.075,
5976,0.1,-0.07,
5977,0.08,-0.09,
5978,0.065,-0.09,
5979,0.055,-0.105,
5980,0.075,-0.085,
5981,0.095,-0.08,
5982,0.12,-0.07,
5983,0.105,-0.09,
5984,0.1,-0.08,
5985,0.095,-0.075,
5986,0.075,-0.065,
5987,0.1,-0.05,
5988,0.125,-0.06,
5989,0.115,-0.075,
5990,0.09,-0.08,
5991,0.08,-0.095,
5992,0.075,-0.075,
5993,0.085,-0.06,
5994,0.1,-0.07,
5995,0.085,-0.09,
5996,0.085,-0.11,
5997,0.1,-0.12,
5998,0.09,-0.13,
5999,0.115,-0.11,
6000,0.15,-0.11,
6001,0.16,-0.115,
6002,0.15,-0.155,
6003,0.12,-0.17,
6004,0.125,-0.155,
6005,0.13,-0.155,
6006,0.17,-0.175,
6007,0.19,-0.2,
6008,0.195,-0.21,
6009,0.19,-0.215,
6010,0.16,-0.205,
6011,0.165,-0.165,
6012,0.195,-0.15,
6013,0.185,-0.15,
6014,0.21,-0.145,
6015,0.27,-0.13,
6016,0.33,-0.09,
6017,0.385,-0.07,
6018,0.47,-0.055,
6019,0.565,-0.035,
6020,0.62,-0.01,
6021,0.675,0.01,
6022,0.745,0.025,
6023,0.91,0.01,
6024,1.145,-0.025,
6025,1.42,-0.09,
6026,1.64,-0.205,
6027,1.745,-0.295,
6028,1.77,-0.365,
6029,1.795,-0.395,
6030,1.83,-0.42,N
6031,1.83,-0.47,
6032,1.785,-0.55,
6033,1.67,-0.63,
6034,1.51,-0.675,
6035,1.355,-0.66,
6036,1.225,-0.65,
6037,1.055,-0.625,
6038,0.805,-0.59,
6039,0.53,-0.52,
6040,0.305,-0.425,
6041,0.115,-0.33,
6042,-0.035,-0.275,
6043,-0.11,-0.225,
6044,-0.105,-0.205,
6045,-0.125,-0.2,
6046,-0.165,-0.19,
6047,-0.165,-0.175,
6048,-0.175,-0.165,
6049,-0.2,-0.165,
6050,-0.235,-0.185,
6051,-0.27,-0.2,
6052,-0.285,-0.17,
6053,-0.305,-0.15,
6054,-0.3,-0.13,
6055,-0.31,-0.155,
6056,-0.34,-0.175,
6057,-0.365,-0.185,
6058,-0.385,-0.18,
6059,-0.385,-0.16,
6060,-0.365,-0.175,
6061,-0.38,-0.175,
6062,-0.38,-0.18,
6063,-0.37,-0.16,
6064,-0.355,-0.13,
6065,-0.35,-0.105,
6066,-0.34,-0.095,
6067,-0.35,-0.095,
6068,-0.345,-0.095,
6069,-0.38,-0.105,
6070,-0.355,-0.07,
6071,-0.33,-0.05,
6072,-0.3,-0.04,
6073,-0.3,-0.02,
6074,-0.32,-0.035,
6075,-0.35,-0.03,
6076,-0.36,0.0,
6077,-0.34,0.04,
6078,-0.315,0.06,
6079,-0.325,0.07,
6080,-0.355,0.08,
6081,-0.35,0.1,
6082,-0.335,0.115,
6083,-0.315,0.135,
6084,-0.305,0.145,
6085,-0.325,0.15,
6086,-0.32,0.15,
6087,-0.33,0.15,
6088,-0.32,0.175,
6089,-0.325,0.19,
6090,-0.28,0.21,
6091,-0.285,0.2,
6092,-0.3,0.18,
6093,-0.315,0.175,
6094,-0.305,0.17,
6095,-0.29,0.185,
6096,-0.245,0.18,
6097,-0.245,0.135,
6098,-0.245,0.11,
6099,-0.245,0.105,
6100,-0.225,0.095,
6101,-0.205,0.075,
6102,-0.155,0.07,
6103,-0.13,0.03,
6104,-0.125,-0.005,
6105,-0.12,-0.01,
6106,-0.1,-0.03,
6107,-0.05,-0.045,
6108,-0.01,-0.06,
6109,0.015,-0.1,
6110,0.015,-0.11,
6111,-0.005,-0.12,
6112,-0.01,-0.105,
6113,0.025,-0.115,
6114,0.04,-0.105,
6115,0.045,-0.125,
6116,0.025,-0.15,
6117,0.025,-0.135,
6118,0.025,-0.14,
6119,0.045,-0.105,
6120,0.075,-0.115,
6121,0.05,-0.105,
6122,0.045,-0.11,
6123,0.045,-0.1,
6124,0.03,-0.085,
6125,0.04,-0.065,
6126,0.06,-0.055,
6127,0.065,-0.065,
6128,0.05,-0.055,
6129,0.045,-0.055,
6130,0.045,-0.01,
6131,0.07,0.025,
6132,0.075,0.04,
6133,0.07,0.045,
6134,0.06,0.04,
6135,0.055,0.055,
6136,0.07,0.065,
6137,0.075,0.09,
6138,0.075,0.11,
6139,0.075,0.1,
6140,0.07,0.1,
6141,0.065,0.095,
6142,0.07,0.115,
6143,0.085,0.14,
6144,0.12,0.135,
6145,0.12,0.11,
6146,0.1,0.08,
6147,0.075,0.065,
6148,0.11,0.04,
6149,0.135,0.025,
6150,0.125,-0.005,
6151,0.125,-0.035,
6152,0.11,-0.065,
6153,0.1,-0.085,
6154,0.09,-0.08,
6155,0.08,-0.06,
6156,0.11,-0.1,
6157,0.09,-0.095,
6158,0.085,-0.14,
6159,0.075,-0.16,
6160,0.08,-0.17,
6161,0.095,-0.15,
6162,0.125,-0.165,
6163,0.095,-0.185,
6164,0.09,-0.21,
6165,0.095,-0.24,
6166,0.105,-0.225,
6167,0.11,-0.235,
6168,0.115,-0.225,
6169,0.115,-0.24,
6170,0.1,-0.245,
6171,0.085,-0.24,
6172,0.07,-0.21,
6173,0.075,-0.16,
6174,0.09,-0.125,
6175,0.06,-0.105,
6176,0.05,-0.085,
6177,0.045,-0.06,
6178,0.04,-0.01,
6179,0.05,0.01,
6180,0.045,0.045,
6181,0.015,0.05,
6182,0.03,0.055,
6183,0.065,0.075,
6184,0.13,0.105,
6185,0.205,0.17,
6186,0.29,0.175,
6187,0.345,0.2,
6188,0.365,0.225,
6189,0.41,0.24,
6190,0.51,0.27,
6191,0.66,0.26,
6192,0.9,0.215,
6193,1.18,0.12,
6194,1.51,-0.015,
6195,1.755,-0.18,
6196,1.855,-0.305,
6197,1.89,-0.38,
6198,1.925,-0.41,
6199,1.945,-0.455,
6200,1.935,-0.53,N
6201,1.875,-0.585,
6202,1.795,-0.61,
6203,1.68,-0.63,
6204,1.54,-0.625,
6205,1.34,-0.63,
6206,1.16,-0.615,
6207,0.95,-0.56,
6208,0.7,-0.47,
6209,0.48,-0.39,
6210,0.26,-0.345,
6211,0.035,-0.28,
6212,-0.135,-0.24,
6213,-0.205,-0.19,
6214,-0.215,-0.16,
6215,-0.205,-0.135,
6216,-0.23,-0.115,
6217,-0.29,-0.11,
6218,-0.36,-0.135,
6219,-0.37,-0.13,
6220,-0.38,-0.1,
6221,-0.365,-0.085,
6222,-0.37,-0.07,
6223,-0.365,-0.06,
6224,-0.385,-0.085,
6225,-0.41,-0.095,
6226,-0.45,-0.09,
6227,-0.465,-0.09,
6228,-0.46,-0.085,
6229,-0.44,-0.095,
6230,-0.46,-0.115,
6231,-0.48,-0.125,
6232,-0.495,-0.11,
6233,-0.485,-0.085,
6234,-0.475,-0.065,
6235,-0.46,-0.06,
6236,-0.44,-0.07,
6237,-0.44,-0.05,
6238,-0.455,-0.03,
6239,-0.45,0.0,
6240,-0.445,0.01,
6241,-0.43,0.005,
6242,-0.435,-0.005,
6243,-0.43,-0.005,
6244,-0.415,0.015,
6245,-0.375,0.025,
6246,-0.335,0.04,
6247,-0.315,0.02,
6248,-0.295,0.005,
6249,-0.28,0.03,
6250,-0.285,0.025,
6251,-0.285,0.035,
6252,-0.3,0.055,
6253,-0.29,0.035,
6254,-0.275,0.015,
6255,-0.28,0.025,
6256,-0.26,0.03,
6257,-0.235,0.035,
6258,-0.23,0.055,
6259,-0.24,0.05,
6260,-0.285,0.03,
6261,-0.315,0.035,
6262,-0.325,0.035,
6263,-0.31,0.04,
6264,-0.25,0.035,
6265,-0.21,0.005,
6266,-0.18,-0.005,
6267,-0.165,-0.015,
6268,-0.145,-0.01,
6269,-0.1,0.005,
6270,-0.07,-0.005,
6271,-0.055,-0.01,
6272,-0.065,-0.035,
6273,-0.065,-0.03,
6274,-0.05,-0.02,
6275,-0.015,-0.005,
6276,0.005,0.005,
6277,-0.015,-0.015,
6278,0.005,-0.025,
6279,-0.02,-0.03,
6280,-0.03,-0.03,
6281,-0.04,0.0,
6282,-0.045,-0.005,
6283,-0.055,-0.005,
6284,-0.08,-0.03,
6285,-0.095,-0.035,
6286,-0.09,-0.015,
6287,-0.085,-0.02,
6288,-0.075,-0.025,
6289,-0.105,-0.03,
6290,-0.13,-0.06,
6291,-0.135,-0.05,
6292,-0.07,-0.065,
6293,-0.02,-0.065,
6294,0.02,-0.07,
6295,-0.03,-0.09,
6296,-0.105,-0.11,
6297,-0.17,-0.09,
6298,-0.2,-0.065,
6299,-0.205,-0.045,
6300,-0.185,-0.045,
6301,-0.19,-0.05,
6302,-0.24,-0.04,
6303,-0.28,-0.055,
6304,-0.305,-0.03,
6305,-0.285,-0.005,
6306,-0.23,0.01,
6307,-0.21,0.01,
6308,-0.225,0.015,
6309,-0.23,0.01,
6310,-0.24,0.035,
6311,-0.22,0.06,
6312,-0.195,0.08,
6313,-0.2,0.07,
6314,-0.225,0.06,
6315,-0.22,0.065,
6316,-0.195,0.085,
6317,-0.19,0.105,
6318,-0.195,0.095,
6319,-0.195,0.08,
6320,-0.205,0.06,
6321,-0.22,0.06,
6322,-0.215,0.065,
6323,-0.225,0.09,
6324,-0.205,0.085,
6325,-0.22,0.09,
6326,-0.225,0.055,
6327,-0.235,0.065,
6328,-0.265,0.08,
6329,-0.25,0.105,
6330,-0.235,0.11,
6331,-0.235,0.085,
6332,-0.255,0.065,
6333,-0.26,0.06,
6334,-0.255,0.075,
6335,-0.255,0.075,
6336,-0.245,0.065,
6337,-0.24,0.045,
6338,-0.225,0.02,
6339,-0.235,-0.005,
6340,-0.24,0.015,
6341,-0.24,0.02,
6342,-0.215,0.015,
6343,-0.225,-0.005,
6344,-0.25,-0.025,
6345,-0.255,-0.035,
6346,-0.24,-0.03,
6347,-0.23,-0.03,
6348,-0.225,-0.02,
6349,-0.23,-0.045,
6350,-0.22,-0.06,
6351,-0.22,-0.06,
6352,-0.215,-0.045,
6353,-0.205,-0.03,
6354,-0.2,-0.035,
6355,-0.215,-0.05,
6356,-0.225,-0.065,
6357,-0.245,-0.07,
6358,-0.24,-0.05,
6359,-0.23,-0.035,
6360,-0.25,-0.03,
6361,-0.29,-0.055,
6362,-0.31,-0.055,
6363,-0.315,-0.06,
6364,-0.305,-0.05,
6365,-0.3,-0.03,
6366,-0.28,-0.03,
6367,-0.265,-0.06,
6368,-0.275,-0.075,
6369,-0.285,-0.07,
6370,-0.28,-0.045,
6371,-0.285,-0.03,
6372,-0.285,-0.06,
6373,-0.29,-0.065,
6374,-0.305,-0.075,
6375,-0.305,-0.07,
6376,-0.3,-0.05,
6377,-0.305,-0.04,
6378,-0.31,-0.045,
6379,-0.31,-0.055,
6380,-0.32,-0.055,
6381,-0.325,-0.055,
6382,-0.305,-0.045,
6383,-0.28,-0.02,
6384,-0.275,-0.03,
6385,-0.28,-0.035,
6386,-0.26,-0.055,
6387,-0.25,-0.06,
6388,-0.26,-0.035,
6389,-0.275,-0.01,
6390,-0.305,-0.02,
6391,-0.305,-0.04,
6392,-0.29,-0.05,
6393,-0.3,-0.05,
6394,-0.315,-0.035,
6395,-0.305,-0.015,
6396,-0.28,-0.025,
6397,-0.305,-0.03,
6398,-0.315,-0.035,
6399,-0.34,-0.04,
6400,-0.33,-0.03,
6401,-0.31,-0.01,
6402,-0.285,-0.015,
6403,-0.275,-0.01,
6404,-0.255,-0.035,
6405,-0.26,-0.04,
6406,-0.29,-0.04,
6407,-0.29,-0.045,
6408,-0.28,-0.075,
6409,-0.245,-0.085,
6410,-0.255,-0.11,
6411,-0.27,-0.13,
6412,-0.26,-0.115,
6413,-0.25,-0.09,
6414,-0.255,-0.075,
6415,-0.245,-0.065,
6416,-0.22,-0.075,
6417,-0.14,-0.055,
6418,-0.045,-0.025,
6419,0.055,0.015,
6420,0.14,0.045,
6421,0.205,0.075,
6422,0.25,0.1,
6423,0.285,0.155,
6424,0.355,0.195,
6425,0.45,0.205,
6426,0.565,0.195,
6427,0.715,0.16,
6428,0.925,0.095,
6429,1.09,0.055,
6430,1.23,-0.01,
6431,1.265,-0.11,
6432,1.275,-0.18,
6433,1.295,-0.24,
6434,1.295,-0.28,N
6435,1.26,-0.35,
6436,1.215,-0.405,
6437,1.11,-0.485,
6438,0.96,-0.55,
6439,0.75,-0.58,
6440,0.575,-0.595,
6441,0.4,-0.57,
6442,0.215,-0.5,
6443,0.055,-0.41,
6444,-0.085,-0.345,
6445,-0.205,-0.31,
6446,-0.345,-0.24,
6447,-0.435,-0.18,
6448,-0.45,-0.125,
6449,-0.455,-0.08,
6450,-0.465,-0.055,
6451,-0.505,-0.03,
6452,-0.52,-0.045,
6453,-0.565,-0.03,
6454,-0.585,-0.025,
6455,-0.59,-0.005,
6456,-0.565,0.01,
6457,-0.555,-0.01,
6458,-0.565,-0.02,
6459,-0.605,-0.025,
6460,-0.64,-0.02,
6461,-0.66,-0.015,
6462,-0.645,-0.01,
6463,-0.65,-0.03,
6464,-0.66,-0.055,
6465,-0.695,-0.075,
6466,-0.715,-0.065,
6467,-0.705,-0.065,
6468,-0.69,-0.06,
6469,-0.71,-0.09,
6470,-0.715,-0.11,
6471,-0.715,-0.125,
6472,-0.71,-0.115,
6473,-0.725,-0.09,
6474,-0.705,-0.09,
6475,-0.695,-0.1,
6476,-0.69,-0.125,
6477,-0.69,-0.11,
6478,-0.695,-0.105,
6479,-0.695,-0.08,
6480,-0.67,-0.085,
6481,-0.655,-0.095,
6482,-0.645,-0.09,
6483,-0.66,-0.075,
6484,-0.675,-0.065,
6485,-0.655,-0.035,
6486,-0.61,-0.01,
6487,-0.555,-0.03,
6488,-0.55,-0.05,
6489,-0.555,-0.035,
6490,-0.56,-0.015,
6491,-0.54,0.0,
6492,-0.52,0.005,
6493,-0.53,0.0,
6494,-0.535,-0.005,
6495,-0.535,-0.005,
6496,-0.505,0.005,
6497,-0.46,0.03,
6498,-0.46,0.03,
6499,-0.465,0.035,
6500,-0.495,0.035,
6501,-0.54,0.05,
6502,-0.525,0.075,
6503,-0.495,0.105,
6504,-0.435,0.095,
6505,-0.415,0.085,
6506,-0.435,0.065,
6507,-0.45,0.085,
6508,-0.43,0.12,
6509,-0.38,0.14,
6510,-0.37,0.125,
6511,-0.385,0.11,
6512,-0.415,0.095,
6513,-0.395,0.105,
6514,-0.36,0.125,
6515,-0.325,0.14,
6516,-0.295,0.13,
6517,-0.285,0.12,
6518,-0.32,0.105,
6519,-0.33,0.12,
6520,-0.315,0.12,
6521,-0.325,0.135,
6522,-0.315,0.135,
6523,-0.305,0.105,
6524,-0.305,0.06,
6525,-0.295,0.035,
6526,-0.295,0.025,
6527,-0.305,0.025,
6528,-0.325,0.0,
6529,-0.335,-0.03,
6530,-0.335,-0.06,
6531,-0.32,-0.075,
6532,-0.315,-0.08,
6533,-0.31,-0.09,
6534,-0.3,-0.11,
6535,-0.295,-0.14,
6536,-0.3,-0.155,
6537,-0.305,-0.155,
6538,-0.3,-0.14,
6539,-0.265,-0.14,
6540,-0.265,-0.125,
6541,-0.27,-0.145,
6542,-0.295,-0.125,
6543,-0.275,-0.125,
6544,-0.27,-0.1,
6545,-0.265,-0.06,
6546,-0.27,-0.05,
6547,-0.265,-0.055,
6548,-0.29,-0.065,
6549,-0.3,-0.05,
6550,-0.3,-0.025,
6551,-0.285,-0.01,
6552,-0.255,0.005,
6553,-0.25,-0.02,
6554,-0.275,-0.01,
6555,-0.3,0.005,
6556,-0.285,0.025,
6557,-0.265,0.035,
6558,-0.255,0.05,
6559,-0.265,0.055,
6560,-0.26,0.035,
6561,-0.27,0.05,
6562,-0.275,0.06,
6563,-0.28,0.085,
6564,-0.255,0.09,
6565,-0.24,0.085,
6566,-0.25,0.06,
6567,-0.255,0.08,
6568,-0.265,0.085,
6569,-0.25,0.115,
6570,-0.225,0.12,
6571,-0.23,0.095,
6572,-0.235,0.075,
6573,-0.235,0.075,
6574,-0.25,0.075,
6575,-0.265,0.085,
6576,-0.255,0.08,
6577,-0.255,0.065,
6578,-0.26,0.04,
6579,-0.275,0.035,
6580,-0.27,0.04,
6581,-0.265,0.03,
6582,-0.245,0.005,
6583,-0.255,-0.045,
6584,-0.26,-0.07,
6585,-0.255,-0.115,
6586,-0.245,-0.12,
6587,-0.24,-0.125,
6588,-0.245,-0.15,
6589,-0.25,-0.195,
6590,-0.285,-0.2,
6591,-0.3,-0.22,
6592,-0.29,-0.21,
6593,-0.265,-0.2,
6594,-0.255,-0.205,
6595,-0.27,-0.225,
6596,-0.29,-0.23,
6597,-0.305,-0.225,
6598,-0.3,-0.19,
6599,-0.29,-0.16,
6600,-0.275,-0.165,
6601,-0.28,-0.145,
6602,-0.28,-0.155,
6603,-0.29,-0.145,
6604,-0.305,-0.125,
6605,-0.32,-0.11,
6606,-0.31,-0.1,
6607,-0.295,-0.085,
6608,-0.295,-0.09,
6609,-0.325,-0.08,
6610,-0.31,-0.095,
6611,-0.285,-0.05,
6612,-0.265,-0.055,
6613,-0.285,-0.055,
6614,-0.3,-0.075,
6615,-0.295,-0.06,
6616,-0.285,-0.04,
6617,-0.265,-0.02,
6618,-0.25,-0.02,
6619,-0.24,-0.02,
6620,-0.25,-0.03,
6621,-0.255,-0.04,
6622,-0.265,-0.01,
6623,-0.25,0.01,
6624,-0.23,0.01,
6625,-0.25,0.02,
6626,-0.255,-0.005,
6627,-0.28,0.01,
6628,-0.28,0.03,
6629,-0.26,0.05,
6630,-0.27,0.05,
6631,-0.3,0.05,
6632,-0.325,0.05,
6633,-0.355,0.065,
6634,-0.355,0.075,
6635,-0.36,0.095,
6636,-0.355,0.1,
6637,-0.35,0.07,
6638,-0.33,0.05,
6639,-0.355,0.025,
6640,-0.35,0.025,
6641,-0.35,0.03,
6642,-0.325,0.015,
6643,-0.325,-0.015,
6644,-0.35,-0.035,
6645,-0.35,-0.04,
6646,-0.335,-0.06,
6647,-0.315,-0.06,
6648,-0.305,-0.085,
6649,-0.31,-0.12,
6650,-0.335,-0.15,
6651,-0.345,-0.18,
6652,-0.32,-0.18,
6653,-0.3,-0.19,
6654,-0.3,-0.205,
6655,-0.31,-0.225,
6656,-0.32,-0.235,
6657,-0.335,-0.245,
6658,-0.33,-0.24,
6659,-0.325,-0.235,
6660,-0.31,-0.24,
6661,-0.325,-0.255,
6662,-0.325,-0.265,
6663,-0.33,-0.26,
6664,-0.335,-0.245,
6665,-0.34,-0.23,
6666,-0.31,-0.22,
6667,-0.305,-0.235,
6668,-0.335,-0.235,
6669,-0.345,-0.245,
6670,-0.34,-0.23,
6671,-0.325,-0.195,
6672,-0.3,-0.19,
