,MLII,V1,symbol
0,-0.43,-0.54,
1,-0.43,-0.54,
2,-0.43,-0.54,
3,-0.43,-0.54,
4,-0.43,-0.54,
5,-0.43,-0.54,
6,-0.43,-0.54,
7,-0.43,-0.54,
8,-0.45,-0.55,
9,-0.46,-0.535,
10,-0.465,-0.525,
11,-0.46,-0.53,
12,-0.46,-0.505,
13,-0.445,-0.51,
14,-0.445,-0.51,
15,-0.455,-0.505,+
16,-0.47,-0.515,
17,-0.47,-0.52,
18,-0.465,-0.54,
19,-0.475,-0.53,
20,-0.48,-0.535,
21,-0.48,-0.52,
22,-0.47,-0.525,
23,-0.465,-0.52,
24,-0.47,-0.515,
25,-0.46,-0.515,
26,-0.445,-0.51,
27,-0.455,-0.51,
28,-0.465,-0.515,
29,-0.46,-0.52,
30,-0.47,-0.545,
31,-0.465,-0.54,
32,-0.475,-0.535,
33,-0.48,-0.53,
34,-0.46,-0.535,
35,-0.45,-0.515,
36,-0.445,-0.515,
37,-0.44,-0.51,
38,-0.435,-0.515,
39,-0.43,-0.525,
40,-0.44,-0.535,
41,-0.445,-0.54,
42,-0.45,-0.545,
43,-0.44,-0.55,
44,-0.445,-0.55,
45,-0.465,-0.54,
46,-0.445,-0.535,
47,-0.435,-0.54,
48,-0.43,-0.515,
49,-0.43,-0.515,
50,-0.425,-0.525,
51,-0.425,-0.525,
52,-0.425,-0.535,
53,-0.42,-0.55,
54,-0.44,-0.545,
55,-0.45,-0.56,
56,-0.44,-0.55,
57,-0.44,-0.555,
58,-0.435,-0.55,
59,-0.42,-0.545,
60,-0.415,-0.54,
61,-0.415,-0.535,
62,-0.41,-0.535,
63,-0.4,-0.55,
64,-0.405,-0.55,
65,-0.415,-0.565,
66,-0.415,-0.56,
67,-0.425,-0.565,
68,-0.425,-0.565,
69,-0.425,-0.57,
70,-0.41,-0.565,
71,-0.41,-0.55,
72,-0.4,-0.55,
73,-0.39,-0.545,
74,-0.39,-0.555,
75,-0.395,-0.56,
76,-0.395,-0.57,
77,-0.395,-0.575,
78,-0.405,-0.585,
79,-0.41,-0.585,
80,-0.405,-0.595,
81,-0.405,-0.58,
82,-0.4,-0.575,
83,-0.395,-0.58,
84,-0.385,-0.57,
85,-0.37,-0.565,
86,-0.365,-0.575,
87,-0.355,-0.575,
88,-0.365,-0.595,
89,-0.355,-0.595,
90,-0.355,-0.615,
91,-0.36,-0.605,
92,-0.36,-0.615,
93,-0.36,-0.615,
94,-0.345,-0.605,
95,-0.33,-0.595,
96,-0.325,-0.59,
97,-0.31,-0.59,
98,-0.31,-0.6,
99,-0.3,-0.59,
100,-0.315,-0.61,
101,-0.32,-0.605,
102,-0.325,-0.63,
103,-0.33,-0.61,
104,-0.34,-0.61,
105,-0.355,-0.61,
106,-0.35,-0.595,
107,-0.355,-0.585,
108,-0.355,-0.575,
109,-0.355,-0.565,
110,-0.355,-0.58,
111,-0.36,-0.56,
112,-0.37,-0.565,
113,-0.39,-0.575,
114,-0.39,-0.59,
115,-0.405,-0.565,
116,-0.415,-0.565,
117,-0.42,-0.56,
118,-0.42,-0.545,
119,-0.425,-0.545,
120,-0.415,-0.54,
121,-0.42,-0.535,
122,-0.42,-0.535,
123,-0.41,-0.535,
124,-0.415,-0.535,
125,-0.425,-0.545,
126,-0.435,-0.545,
127,-0.44,-0.555,
128,-0.44,-0.55,
129,-0.44,-0.545,
130,-0.445,-0.55,
131,-0.435,-0.53,
132,-0.445,-0.525,
133,-0.435,-0.52,
134,-0.42,-0.515,
135,-0.435,-0.52,
136,-0.445,-0.53,
137,-0.445,-0.53,
138,-0.45,-0.545,
139,-0.46,-0.55,
140,-0.455,-0.545,
141,-0.46,-0.535,
142,-0.45,-0.53,
143,-0.455,-0.525,
144,-0.445,-0.51,
145,-0.44,-0.515,
146,-0.44,-0.505,
147,-0.435,-0.51,
148,-0.445,-0.52,
149,-0.455,-0.535,
150,-0.46,-0.535,
151,-0.46,-0.535,
152,-0.47,-0.535,
153,-0.475,-0.535,
154,-0.475,-0.53,
155,-0.47,-0.525,
156,-0.46,-0.51,
157,-0.45,-0.515,
158,-0.465,-0.515,
159,-0.445,-0.525,
160,-0.45,-0.525,
161,-0.45,-0.535,
162,-0.465,-0.545,
163,-0.465,-0.545,
164,-0.47,-0.53,
165,-0.475,-0.53,
166,-0.46,-0.53,
167,-0.455,-0.52,
168,-0.435,-0.515,
169,-0.425,-0.51,
170,-0.405,-0.5,
171,-0.4,-0.505,
172,-0.4,-0.51,
173,-0.41,-0.52,
174,-0.415,-0.52,
175,-0.41,-0.52,
176,-0.415,-0.52,
177,-0.41,-0.52,
178,-0.395,-0.515,
179,-0.385,-0.51,
180,-0.365,-0.52,
181,-0.345,-0.52,
182,-0.355,-0.54,
183,-0.37,-0.56,
184,-0.385,-0.57,
185,-0.41,-0.585,
186,-0.435,-0.58,
187,-0.43,-0.575,
188,-0.435,-0.57,
189,-0.45,-0.555,
190,-0.43,-0.56,
191,-0.43,-0.56,
192,-0.435,-0.545,
193,-0.435,-0.535,
194,-0.43,-0.53,
195,-0.45,-0.53,
196,-0.455,-0.535,
197,-0.47,-0.54,
198,-0.49,-0.53,
199,-0.515,-0.535,
200,-0.52,-0.53,
201,-0.52,-0.525,
202,-0.515,-0.52,
203,-0.52,-0.515,
204,-0.51,-0.51,
205,-0.505,-0.5,
206,-0.49,-0.505,
207,-0.49,-0.505,
208,-0.5,-0.505,
209,-0.495,-0.52,
210,-0.505,-0.53,
211,-0.525,-0.535,
212,-0.505,-0.535,
213,-0.51,-0.53,
214,-0.5,-0.515,
215,-0.5,-0.515,
216,-0.51,-0.495,
217,-0.525,-0.5,
218,-0.55,-0.49,
219,-0.555,-0.49,
220,-0.545,-0.495,
221,-0.5,-0.515,
222,-0.42,-0.54,
223,-0.315,-0.59,
224,-0.165,-0.625,
225,0.0,-0.68,
226,0.22,-0.735,
227,0.43,-0.765,
228,0.62,-0.78,
229,0.735,-0.755,N
230,0.72,-0.74,
231,0.57,-0.69,
232,0.32,-0.635,
233,0.015,-0.56,
234,-0.25,-0.505,
235,-0.43,-0.47,
236,-0.515,-0.455,
237,-0.51,-0.475,
238,-0.45,-0.51,
239,-0.395,-0.535,
240,-0.36,-0.545,
241,-0.33,-0.56,
242,-0.345,-0.55,
243,-0.37,-0.535,
244,-0.42,-0.53,
245,-0.44,-0.52,
246,-0.47,-0.53,
247,-0.48,-0.535,
248,-0.485,-0.52,
249,-0.48,-0.515,
250,-0.465,-0.515,
251,-0.475,-0.51,
252,-0.465,-0.5,
253,-0.47,-0.49,
254,-0.47,-0.495,
255,-0.47,-0.5,
256,-0.465,-0.505,
257,-0.475,-0.51,
258,-0.48,-0.525,
259,-0.485,-0.52,
260,-0.49,-0.525,
261,-0.48,-0.505,
262,-0.485,-0.505,
263,-0.475,-0.5,
264,-0.465,-0.5,
265,-0.46,-0.485,
266,-0.455,-0.49,
267,-0.455,-0.495,
268,-0.46,-0.51,
269,-0.46,-0.515,
270,-0.47,-0.52,
271,-0.475,-0.52,
272,-0.47,-0.52,
273,-0.47,-0.51,
274,-0.47,-0.51,
275,-0.465,-0.5,
276,-0.47,-0.505,
277,-0.46,-0.5,
278,-0.455,-0.5,
279,-0.455,-0.505,
280,-0.465,-0.5,
281,-0.465,-0.515,
282,-0.48,-0.525,
283,-0.48,-0.53,
284,-0.49,-0.52,
285,-0.475,-0.52,
286,-0.465,-0.515,
287,-0.455,-0.515,
288,-0.455,-0.515,
289,-0.445,-0.515,
290,-0.45,-0.515,
291,-0.44,-0.52,
292,-0.44,-0.525,
293,-0.44,-0.535,
294,-0.445,-0.545,
295,-0.455,-0.54,
296,-0.455,-0.54,
297,-0.455,-0.535,
298,-0.455,-0.545,
299,-0.44,-0.545,
300,-0.44,-0.535,
301,-0.425,-0.53,
302,-0.42,-0.53,
303,-0.415,-0.54,
304,-0.42,-0.555,
305,-0.425,-0.555,
306,-0.44,-0.56,
307,-0.445,-0.565,
308,-0.445,-0.56,
309,-0.46,-0.56,
310,-0.45,-0.57,
311,-0.44,-0.555,
312,-0.425,-0.55,
313,-0.405,-0.54,
314,-0.41,-0.545,
315,-0.415,-0.54,
316,-0.415,-0.565,
317,-0.405,-0.56,
318,-0.425,-0.57,
319,-0.42,-0.58,
320,-0.415,-0.575,
321,-0.4,-0.585,
322,-0.38,-0.57,
323,-0.37,-0.585,
324,-0.36,-0.58,
325,-0.355,-0.575,
326,-0.345,-0.575,
327,-0.34,-0.575,
328,-0.34,-0.585,
329,-0.34,-0.6,
330,-0.345,-0.595,
331,-0.34,-0.6,
332,-0.35,-0.6,
333,-0.35,-0.595,
334,-0.35,-0.59,
335,-0.345,-0.59,
336,-0.345,-0.57,
337,-0.325,-0.565,
338,-0.33,-0.57,
339,-0.335,-0.56,
340,-0.34,-0.57,
341,-0.36,-0.57,
342,-0.38,-0.585,
343,-0.385,-0.585,
344,-0.405,-0.575,
345,-0.41,-0.565,
346,-0.4,-0.56,
347,-0.415,-0.55,
348,-0.405,-0.54,
349,-0.41,-0.54,
350,-0.405,-0.535,
351,-0.41,-0.525,
352,-0.415,-0.535,
353,-0.41,-0.54,
354,-0.42,-0.545,
355,-0.435,-0.55,
356,-0.44,-0.545,
357,-0.45,-0.54,
358,-0.455,-0.53,
359,-0.45,-0.52,
360,-0.445,-0.51,
361,-0.44,-0.5,
362,-0.44,-0.505,
363,-0.435,-0.505,
364,-0.44,-0.52,
365,-0.445,-0.52,
366,-0.445,-0.53,
367,-0.455,-0.53,
368,-0.465,-0.535,
369,-0.46,-0.535,
370,-0.46,-0.515,
371,-0.45,-0.515,
372,-0.445,-0.505,
373,-0.44,-0.495,
374,-0.45,-0.495,
375,-0.44,-0.5,
376,-0.44,-0.505,
377,-0.445,-0.515,
378,-0.45,-0.52,
379,-0.455,-0.53,
380,-0.465,-0.535,
381,-0.46,-0.525,
382,-0.46,-0.515,
383,-0.465,-0.515,
384,-0.455,-0.495,
385,-0.46,-0.495,
386,-0.46,-0.505,
387,-0.45,-0.5,
388,-0.46,-0.51,
389,-0.47,-0.51,
390,-0.48,-0.515,
391,-0.485,-0.525,
392,-0.48,-0.53,
393,-0.485,-0.515,
394,-0.49,-0.51,
395,-0.48,-0.5,
396,-0.47,-0.49,
397,-0.465,-0.495,
398,-0.47,-0.495,
399,-0.465,-0.485,
400,-0.465,-0.495,
401,-0.47,-0.5,
402,-0.465,-0.505,
403,-0.47,-0.51,
404,-0.47,-0.515,
405,-0.465,-0.51,
406,-0.45,-0.5,
407,-0.44,-0.49,
408,-0.43,-0.48,
409,-0.415,-0.47,
410,-0.41,-0.47,
411,-0.405,-0.47,
412,-0.41,-0.475,
413,-0.405,-0.475,
414,-0.405,-0.49,
415,-0.4,-0.495,
416,-0.4,-0.495,
417,-0.39,-0.5,
418,-0.385,-0.515,
419,-0.385,-0.525,
420,-0.395,-0.515,
421,-0.41,-0.53,
422,-0.415,-0.525,
423,-0.43,-0.515,
424,-0.43,-0.535,
425,-0.435,-0.53,
426,-0.445,-0.535,
427,-0.455,-0.535,
428,-0.45,-0.53,
429,-0.455,-0.53,
430,-0.445,-0.52,
431,-0.44,-0.51,
432,-0.45,-0.505,
433,-0.445,-0.495,
434,-0.47,-0.49,
435,-0.49,-0.5,
436,-0.5,-0.485,
437,-0.52,-0.485,
438,-0.53,-0.5,
439,-0.53,-0.5,
440,-0.53,-0.505,
441,-0.53,-0.5,
442,-0.525,-0.49,
443,-0.515,-0.49,
444,-0.51,-0.475,
445,-0.5,-0.475,
446,-0.5,-0.485,
447,-0.5,-0.485,
448,-0.505,-0.485,
449,-0.51,-0.5,
450,-0.51,-0.5,
451,-0.515,-0.505,
452,-0.525,-0.51,
453,-0.53,-0.5,
454,-0.55,-0.49,
455,-0.57,-0.49,
456,-0.575,-0.475,
457,-0.56,-0.465,
458,-0.505,-0.485,
459,-0.41,-0.51,
460,-0.275,-0.55,
461,-0.11,-0.605,
462,0.095,-0.66,
463,0.305,-0.735,
464,0.535,-0.775,
465,0.72,-0.78,
466,0.805,-0.765,N
467,0.75,-0.715,
468,0.565,-0.65,
469,0.285,-0.56,
470,-0.01,-0.48,
471,-0.26,-0.425,
472,-0.425,-0.4,
473,-0.5,-0.395,
474,-0.49,-0.435,
475,-0.45,-0.48,
476,-0.415,-0.515,
477,-0.4,-0.545,
478,-0.385,-0.545,
479,-0.39,-0.54,
480,-0.4,-0.52,
481,-0.42,-0.495,
482,-0.445,-0.49,
483,-0.465,-0.485,
484,-0.47,-0.505,
485,-0.485,-0.505,
486,-0.5,-0.51,
487,-0.5,-0.52,
488,-0.51,-0.505,
489,-0.495,-0.5,
490,-0.48,-0.495,
491,-0.48,-0.49,
492,-0.475,-0.48,
493,-0.485,-0.475,
494,-0.48,-0.47,
495,-0.47,-0.475,
496,-0.475,-0.475,
497,-0.495,-0.495,
498,-0.505,-0.495,
499,-0.505,-0.495,
500,-0.515,-0.49,
501,-0.51,-0.485,
502,-0.5,-0.495,
503,-0.485,-0.475,
504,-0.485,-0.47,
505,-0.47,-0.465,
506,-0.475,-0.465,
507,-0.475,-0.475,
508,-0.48,-0.49,
509,-0.485,-0.5,
510,-0.485,-0.505,
511,-0.485,-0.505,
512,-0.49,-0.505,
513,-0.495,-0.51,
514,-0.49,-0.49,
515,-0.485,-0.495,
516,-0.47,-0.485,
517,-0.465,-0.485,
518,-0.47,-0.49,
519,-0.455,-0.495,
520,-0.455,-0.495,
521,-0.46,-0.505,
522,-0.47,-0.515,
523,-0.465,-0.525,
524,-0.475,-0.515,
525,-0.475,-0.515,
526,-0.485,-0.515,
527,-0.48,-0.505,
528,-0.475,-0.505,
529,-0.455,-0.5,
530,-0.44,-0.5,
531,-0.435,-0.51,
532,-0.425,-0.51,
533,-0.435,-0.52,
534,-0.435,-0.525,
535,-0.45,-0.52,
536,-0.455,-0.53,
537,-0.46,-0.535,
538,-0.455,-0.525,
539,-0.46,-0.52,
540,-0.455,-0.52,
541,-0.455,-0.51,
542,-0.45,-0.505,
543,-0.435,-0.52,
544,-0.43,-0.525,
545,-0.435,-0.54,
546,-0.435,-0.545,
547,-0.445,-0.56,
548,-0.445,-0.55,
549,-0.45,-0.55,
550,-0.445,-0.55,
551,-0.44,-0.54,
552,-0.435,-0.54,
553,-0.44,-0.53,
554,-0.435,-0.535,
555,-0.42,-0.53,
556,-0.425,-0.555,
557,-0.435,-0.565,
558,-0.43,-0.57,
559,-0.435,-0.58,
560,-0.425,-0.58,
561,-0.41,-0.58,
562,-0.385,-0.575,
563,-0.375,-0.565,
564,-0.36,-0.57,
565,-0.345,-0.565,
566,-0.34,-0.565,
567,-0.34,-0.565,
568,-0.35,-0.58,
569,-0.345,-0.575,
570,-0.36,-0.59,
571,-0.365,-0.59,
572,-0.37,-0.585,
573,-0.385,-0.59,
574,-0.38,-0.575,
575,-0.365,-0.575,
576,-0.37,-0.56,
577,-0.365,-0.555,
578,-0.37,-0.545,
579,-0.375,-0.555,
580,-0.39,-0.555,
581,-0.4,-0.55,
582,-0.415,-0.56,
583,-0.42,-0.56,
584,-0.425,-0.55,
585,-0.43,-0.55,
586,-0.43,-0.535,
587,-0.435,-0.525,
588,-0.425,-0.52,
589,-0.42,-0.52,
590,-0.43,-0.525,
591,-0.445,-0.515,
592,-0.445,-0.51,
593,-0.45,-0.515,
594,-0.45,-0.515,
595,-0.455,-0.515,
596,-0.465,-0.51,
597,-0.465,-0.51,
598,-0.455,-0.505,
599,-0.46,-0.51,
600,-0.455,-0.485,
601,-0.44,-0.485,
602,-0.45,-0.49,
603,-0.44,-0.485,
604,-0.445,-0.495,
605,-0.46,-0.505,
606,-0.46,-0.51,
607,-0.475,-0.515,
608,-0.47,-0.51,
609,-0.48,-0.505,
610,-0.475,-0.5,
611,-0.47,-0.49,
612,-0.465,-0.475,
613,-0.46,-0.48,
614,-0.46,-0.47,
615,-0.46,-0.465,
616,-0.47,-0.49,
617,-0.47,-0.49,
618,-0.48,-0.5,
619,-0.5,-0.505,
620,-0.51,-0.51,
621,-0.52,-0.5,
622,-0.51,-0.49,
623,-0.49,-0.48,
624,-0.48,-0.48,
625,-0.465,-0.47,
626,-0.465,-0.475,
627,-0.465,-0.475,
628,-0.465,-0.485,
629,-0.49,-0.48,
630,-0.49,-0.49,
631,-0.5,-0.505,
632,-0.495,-0.495,
633,-0.49,-0.5,
634,-0.485,-0.475,
635,-0.48,-0.47,
636,-0.475,-0.475,
637,-0.47,-0.47,
638,-0.48,-0.46,
639,-0.475,-0.475,
640,-0.48,-0.465,
641,-0.495,-0.48,
642,-0.49,-0.475,
643,-0.505,-0.48,
644,-0.49,-0.485,
645,-0.49,-0.475,
646,-0.47,-0.46,
647,-0.465,-0.455,
648,-0.455,-0.45,
649,-0.45,-0.43,
650,-0.445,-0.44,
651,-0.44,-0.445,
652,-0.43,-0.445,
653,-0.435,-0.445,
654,-0.43,-0.47,
655,-0.415,-0.48,
656,-0.415,-0.485,
657,-0.42,-0.48,
658,-0.41,-0.485,
659,-0.42,-0.485,
660,-0.43,-0.485,
661,-0.43,-0.485,
662,-0.44,-0.5,
663,-0.435,-0.49,
664,-0.455,-0.5,
665,-0.445,-0.49,
666,-0.445,-0.51,
667,-0.465,-0.515,
668,-0.475,-0.5,
669,-0.49,-0.505,
670,-0.49,-0.5,
671,-0.495,-0.475,
672,-0.49,-0.475,
673,-0.485,-0.47,
674,-0.49,-0.46,
675,-0.5,-0.455,
676,-0.5,-0.46,
677,-0.515,-0.46,
678,-0.52,-0.465,
679,-0.535,-0.48,
680,-0.54,-0.475,
681,-0.545,-0.465,
682,-0.54,-0.465,
683,-0.53,-0.455,
684,-0.535,-0.45,
685,-0.53,-0.43,
686,-0.52,-0.45,
687,-0.515,-0.455,
688,-0.505,-0.46,
689,-0.52,-0.465,
690,-0.525,-0.485,
691,-0.53,-0.48,
692,-0.54,-0.49,
693,-0.54,-0.465,
694,-0.55,-0.47,
695,-0.56,-0.47,
696,-0.575,-0.45,
697,-0.58,-0.46,
698,-0.555,-0.46,
699,-0.48,-0.465,
700,-0.36,-0.5,
701,-0.215,-0.53,
702,-0.03,-0.575,
703,0.195,-0.635,
704,0.44,-0.68,
705,0.65,-0.69,
706,0.8,-0.69,N
707,0.82,-0.655,
708,0.69,-0.605,
709,0.43,-0.53,
710,0.105,-0.47,
711,-0.215,-0.42,
712,-0.445,-0.38,
713,-0.555,-0.355,
714,-0.58,-0.38,
715,-0.53,-0.4,
716,-0.485,-0.435,
717,-0.445,-0.465,
718,-0.43,-0.485,
719,-0.42,-0.485,
720,-0.425,-0.49,
721,-0.43,-0.47,
722,-0.445,-0.465,
723,-0.46,-0.465,
724,-0.475,-0.46,
725,-0.485,-0.47,
726,-0.5,-0.475,
727,-0.505,-0.48,
728,-0.51,-0.485,
729,-0.515,-0.475,
730,-0.52,-0.48,
731,-0.51,-0.47,
732,-0.505,-0.465,
733,-0.5,-0.445,
734,-0.495,-0.45,
735,-0.495,-0.46,
736,-0.495,-0.465,
737,-0.5,-0.475,
738,-0.505,-0.47,
739,-0.51,-0.49,
740,-0.505,-0.49,
741,-0.515,-0.49,
742,-0.525,-0.475,
743,-0.515,-0.465,
744,-0.51,-0.46,
745,-0.51,-0.45,
746,-0.5,-0.46,
747,-0.49,-0.465,
748,-0.5,-0.465,
749,-0.5,-0.47,
750,-0.495,-0.49,
751,-0.51,-0.49,
752,-0.5,-0.495,
753,-0.505,-0.5,
754,-0.495,-0.48,
755,-0.495,-0.475,
756,-0.495,-0.47,
757,-0.485,-0.455,
758,-0.475,-0.455,
759,-0.475,-0.47,
760,-0.475,-0.475,
761,-0.48,-0.485,
762,-0.47,-0.5,
763,-0.48,-0.495,
764,-0.485,-0.505,
765,-0.48,-0.505,
766,-0.495,-0.49,
767,-0.495,-0.49,
768,-0.475,-0.485,
769,-0.47,-0.475,
770,-0.47,-0.485,
771,-0.455,-0.485,
772,-0.46,-0.5,
773,-0.455,-0.505,
774,-0.455,-0.515,
775,-0.47,-0.52,
776,-0.475,-0.525,
777,-0.475,-0.52,
778,-0.47,-0.52,
779,-0.47,-0.51,
780,-0.465,-0.505,
781,-0.455,-0.505,
782,-0.455,-0.515,
783,-0.465,-0.515,
784,-0.45,-0.515,
785,-0.46,-0.53,
786,-0.47,-0.545,
787,-0.47,-0.55,
788,-0.475,-0.54,
789,-0.475,-0.54,
790,-0.47,-0.53,
791,-0.47,-0.525,
792,-0.455,-0.52,
793,-0.455,-0.515,
794,-0.44,-0.525,
795,-0.435,-0.525,
796,-0.43,-0.535,
797,-0.435,-0.555,
798,-0.43,-0.56,
799,-0.425,-0.565,
800,-0.425,-0.57,
801,-0.425,-0.565,
802,-0.415,-0.56,
803,-0.4,-0.55,
804,-0.38,-0.54,
805,-0.38,-0.54,
806,-0.37,-0.545,
807,-0.365,-0.54,
808,-0.37,-0.545,
809,-0.375,-0.545,
810,-0.375,-0.565,
811,-0.385,-0.57,
812,-0.385,-0.56,
813,-0.395,-0.56,
814,-0.405,-0.545,
815,-0.395,-0.535,
816,-0.4,-0.525,
817,-0.395,-0.52,
818,-0.4,-0.51,
819,-0.405,-0.52,
820,-0.41,-0.52,
821,-0.415,-0.525,
822,-0.425,-0.525,
823,-0.45,-0.525,
824,-0.45,-0.52,
825,-0.46,-0.51,
826,-0.465,-0.51,
827,-0.45,-0.5,
828,-0.45,-0.505,
829,-0.45,-0.485,
830,-0.455,-0.495,
831,-0.45,-0.495,
832,-0.445,-0.49,
833,-0.46,-0.49,
834,-0.47,-0.5,
835,-0.47,-0.505,
836,-0.475,-0.51,
837,-0.47,-0.495,
838,-0.475,-0.495,
839,-0.465,-0.495,
840,-0.465,-0.48,
841,-0.455,-0.475,
842,-0.455,-0.465,
843,-0.465,-0.47,
844,-0.455,-0.475,
845,-0.465,-0.485,
846,-0.46,-0.5,
847,-0.48,-0.49,
848,-0.495,-0.51,
849,-0.48,-0.49,
850,-0.485,-0.49,
851,-0.475,-0.475,
852,-0.475,-0.465,
853,-0.465,-0.465,
854,-0.47,-0.47,
855,-0.47,-0.465,
856,-0.465,-0.485,
857,-0.48,-0.49,
858,-0.485,-0.49,
859,-0.49,-0.49,
860,-0.505,-0.495,
861,-0.5,-0.485,
862,-0.5,-0.475,
863,-0.49,-0.48,
864,-0.48,-0.46,
865,-0.48,-0.46,
866,-0.485,-0.455,
867,-0.475,-0.465,
868,-0.475,-0.475,
869,-0.495,-0.475,
870,-0.485,-0.48,
871,-0.505,-0.485,
872,-0.495,-0.49,
873,-0.505,-0.485,
874,-0.495,-0.49,
875,-0.5,-0.475,
876,-0.49,-0.47,
877,-0.48,-0.45,
878,-0.475,-0.455,
879,-0.465,-0.47,
880,-0.46,-0.465,
881,-0.46,-0.48,
882,-0.46,-0.485,
883,-0.455,-0.485,
884,-0.455,-0.47,
885,-0.455,-0.48,
886,-0.445,-0.47,
887,-0.44,-0.46,
888,-0.43,-0.445,
889,-0.42,-0.445,
890,-0.415,-0.445,
891,-0.4,-0.455,
892,-0.39,-0.46,
893,-0.375,-0.48,
894,-0.375,-0.495,
895,-0.385,-0.515,
896,-0.41,-0.52,
897,-0.425,-0.51,
898,-0.44,-0.52,
899,-0.445,-0.505,
900,-0.435,-0.505,
901,-0.44,-0.5,
902,-0.435,-0.495,
903,-0.435,-0.5,
904,-0.44,-0.505,
905,-0.445,-0.51,
906,-0.45,-0.52,
907,-0.46,-0.515,
908,-0.48,-0.515,
909,-0.485,-0.51,
910,-0.495,-0.5,
911,-0.505,-0.485,
912,-0.505,-0.475,
913,-0.515,-0.47,
914,-0.52,-0.46,
915,-0.52,-0.465,
916,-0.51,-0.475,
917,-0.515,-0.475,
918,-0.525,-0.49,
919,-0.52,-0.49,
920,-0.525,-0.5,
921,-0.53,-0.49,
922,-0.525,-0.485,
923,-0.515,-0.475,
924,-0.515,-0.47,
925,-0.5,-0.46,
926,-0.51,-0.465,
927,-0.51,-0.465,
928,-0.505,-0.47,
929,-0.505,-0.485,
930,-0.515,-0.495,
931,-0.53,-0.5,
932,-0.555,-0.5,
933,-0.575,-0.49,
934,-0.595,-0.48,
935,-0.585,-0.465,
936,-0.525,-0.48,
937,-0.44,-0.475,
938,-0.32,-0.51,
939,-0.17,-0.55,
940,0.005,-0.59,
941,0.215,-0.635,
942,0.405,-0.67,
943,0.59,-0.695,
944,0.715,-0.69,N
945,0.725,-0.67,
946,0.625,-0.635,
947,0.42,-0.595,
948,0.15,-0.535,
949,-0.115,-0.49,
950,-0.34,-0.45,
951,-0.47,-0.435,
952,-0.515,-0.425,
953,-0.495,-0.465,
954,-0.45,-0.485,
955,-0.41,-0.515,
956,-0.39,-0.535,
957,-0.385,-0.545,
958,-0.385,-0.535,
959,-0.39,-0.525,
960,-0.41,-0.505,
961,-0.425,-0.495,
962,-0.43,-0.485,
963,-0.445,-0.49,
964,-0.455,-0.49,
965,-0.46,-0.495,
966,-0.47,-0.51,
967,-0.485,-0.5,
968,-0.475,-0.51,
969,-0.485,-0.51,
970,-0.49,-0.51,
971,-0.485,-0.49,
972,-0.48,-0.485,
973,-0.47,-0.485,
974,-0.475,-0.475,
975,-0.47,-0.485,
976,-0.465,-0.475,
977,-0.475,-0.49,
978,-0.47,-0.505,
979,-0.49,-0.5,
980,-0.48,-0.505,
981,-0.49,-0.51,
982,-0.48,-0.49,
983,-0.475,-0.485,
984,-0.465,-0.485,
985,-0.46,-0.48,
986,-0.465,-0.48,
987,-0.45,-0.48,
988,-0.455,-0.49,
989,-0.46,-0.495,
990,-0.465,-0.5,
991,-0.47,-0.5,
992,-0.475,-0.51,
993,-0.47,-0.515,
994,-0.465,-0.505,
995,-0.455,-0.495,
996,-0.45,-0.495,
997,-0.445,-0.485,
998,-0.44,-0.48,
999,-0.435,-0.49,
1000,-0.44,-0.51,
1001,-0.45,-0.515,
1002,-0.455,-0.52,
1003,-0.465,-0.53,
1004,-0.47,-0.52,
1005,-0.46,-0.52,
1006,-0.45,-0.52,
1007,-0.435,-0.51,
1008,-0.425,-0.5,
1009,-0.42,-0.5,
1010,-0.425,-0.51,
1011,-0.425,-0.505,
1012,-0.425,-0.515,
1013,-0.43,-0.52,
1014,-0.44,-0.535,
1015,-0.435,-0.535,
1016,-0.44,-0.53,
1017,-0.44,-0.53,
1018,-0.43,-0.525,
1019,-0.42,-0.53,
1020,-0.42,-0.52,
1021,-0.405,-0.505,
1022,-0.4,-0.53,
1023,-0.405,-0.525,
1024,-0.41,-0.54,
1025,-0.415,-0.54,
1026,-0.42,-0.555,
1027,-0.425,-0.55,
1028,-0.425,-0.545,
1029,-0.42,-0.545,
1030,-0.425,-0.54,
1031,-0.415,-0.53,
1032,-0.405,-0.53,
1033,-0.395,-0.535,
1034,-0.4,-0.535,
1035,-0.4,-0.535,
1036,-0.405,-0.545,
1037,-0.405,-0.565,
1038,-0.405,-0.57,
1039,-0.41,-0.565,
1040,-0.41,-0.565,
1041,-0.4,-0.57,
1042,-0.385,-0.565,
1043,-0.365,-0.555,
1044,-0.355,-0.555,
1045,-0.35,-0.55,
1046,-0.34,-0.565,
1047,-0.325,-0.555,
1048,-0.33,-0.565,
1049,-0.33,-0.58,
1050,-0.34,-0.59,
1051,-0.34,-0.59,
1052,-0.34,-0.585,
1053,-0.335,-0.585,
1054,-0.335,-0.575,
1055,-0.34,-0.575,
1056,-0.335,-0.555,
1057,-0.33,-0.555,
1058,-0.335,-0.55,
1059,-0.34,-0.555,
1060,-0.35,-0.56,
1061,-0.36,-0.565,
1062,-0.37,-0.555,
1063,-0.385,-0.57,
1064,-0.4,-0.555,
1065,-0.395,-0.55,
1066,-0.395,-0.55,
1067,-0.395,-0.525,
1068,-0.395,-0.53,
1069,-0.4,-0.52,
1070,-0.405,-0.515,
1071,-0.405,-0.525,
1072,-0.415,-0.515,
1073,-0.415,-0.525,
1074,-0.435,-0.535,
1075,-0.435,-0.535,
1076,-0.44,-0.53,
1077,-0.44,-0.52,
1078,-0.435,-0.505,
1079,-0.43,-0.5,
1080,-0.43,-0.495,
1081,-0.43,-0.485,
1082,-0.43,-0.49,
1083,-0.425,-0.5,
1084,-0.435,-0.5,
1085,-0.435,-0.5,
1086,-0.45,-0.515,
1087,-0.445,-0.51,
1088,-0.46,-0.505,
1089,-0.455,-0.5,
1090,-0.46,-0.5,
1091,-0.44,-0.49,
1092,-0.445,-0.475,
1093,-0.425,-0.48,
1094,-0.435,-0.485,
1095,-0.43,-0.48,
1096,-0.44,-0.49,
1097,-0.45,-0.485,
1098,-0.45,-0.5,
1099,-0.46,-0.505,
1100,-0.46,-0.5,
1101,-0.465,-0.49,
1102,-0.46,-0.485,
1103,-0.45,-0.485,
1104,-0.45,-0.48,
1105,-0.45,-0.465,
1106,-0.45,-0.48,
1107,-0.45,-0.485,
1108,-0.45,-0.49,
1109,-0.455,-0.5,
1110,-0.46,-0.495,
1111,-0.475,-0.49,
1112,-0.485,-0.495,
1113,-0.49,-0.49,
1114,-0.475,-0.47,
1115,-0.465,-0.475,
1116,-0.455,-0.465,
1117,-0.455,-0.46,
1118,-0.445,-0.465,
1119,-0.44,-0.47,
1120,-0.445,-0.48,
1121,-0.44,-0.48,
1122,-0.44,-0.505,
1123,-0.445,-0.5,
1124,-0.435,-0.485,
1125,-0.425,-0.49,
1126,-0.42,-0.465,
1127,-0.4,-0.465,
1128,-0.39,-0.455,
1129,-0.395,-0.45,
1130,-0.385,-0.45,
1131,-0.385,-0.455,
1132,-0.385,-0.47,
1133,-0.39,-0.465,
1134,-0.39,-0.475,
1135,-0.385,-0.49,
1136,-0.375,-0.5,
1137,-0.365,-0.5,
1138,-0.375,-0.495,
1139,-0.385,-0.5,
1140,-0.39,-0.505,
1141,-0.405,-0.505,
1142,-0.405,-0.51,
1143,-0.405,-0.515,
1144,-0.415,-0.515,
1145,-0.42,-0.525,
1146,-0.425,-0.525,
1147,-0.425,-0.53,
1148,-0.44,-0.52,
1149,-0.445,-0.505,
1150,-0.44,-0.515,
1151,-0.45,-0.49,
1152,-0.435,-0.475,
1153,-0.45,-0.475,
1154,-0.455,-0.47,
1155,-0.47,-0.47,
1156,-0.485,-0.485,
1157,-0.5,-0.47,
1158,-0.515,-0.48,
1159,-0.525,-0.49,
1160,-0.525,-0.475,
1161,-0.515,-0.475,
1162,-0.505,-0.47,
1163,-0.505,-0.46,
1164,-0.5,-0.46,
1165,-0.48,-0.455,
1166,-0.485,-0.46,
1167,-0.49,-0.46,
1168,-0.49,-0.465,
1169,-0.495,-0.47,
1170,-0.5,-0.49,
1171,-0.5,-0.49,
1172,-0.5,-0.475,
1173,-0.495,-0.48,
1174,-0.505,-0.485,
1175,-0.51,-0.465,
1176,-0.53,-0.455,
1177,-0.535,-0.45,
1178,-0.54,-0.455,
1179,-0.515,-0.45,
1180,-0.46,-0.47,
1181,-0.38,-0.495,
1182,-0.255,-0.545,
1183,-0.095,-0.585,
1184,0.09,-0.62,
1185,0.295,-0.66,
1186,0.51,-0.695,
1187,0.685,-0.7,
1188,0.765,-0.675,N
1189,0.715,-0.655,
1190,0.53,-0.62,
1191,0.27,-0.55,
1192,-0.01,-0.51,
1193,-0.265,-0.47,
1194,-0.43,-0.435,
1195,-0.505,-0.43,
1196,-0.49,-0.435,
1197,-0.45,-0.455,
1198,-0.395,-0.48,
1199,-0.365,-0.5,
1200,-0.34,-0.51,
1201,-0.34,-0.5,
1202,-0.36,-0.5,
1203,-0.37,-0.495,
1204,-0.4,-0.485,
1205,-0.425,-0.495,
1206,-0.445,-0.495,
1207,-0.455,-0.485,
1208,-0.46,-0.485,
1209,-0.46,-0.48,
1210,-0.46,-0.475,
1211,-0.46,-0.475,
1212,-0.45,-0.46,
1213,-0.455,-0.45,
1214,-0.45,-0.45,
1215,-0.45,-0.46,
1216,-0.465,-0.47,
1217,-0.465,-0.485,
1218,-0.47,-0.485,
1219,-0.475,-0.485,
1220,-0.485,-0.47,
1221,-0.475,-0.475,
1222,-0.47,-0.47,
1223,-0.46,-0.465,
1224,-0.455,-0.465,
1225,-0.445,-0.46,
1226,-0.445,-0.47,
1227,-0.45,-0.465,
1228,-0.445,-0.48,
1229,-0.455,-0.485,
1230,-0.455,-0.485,
1231,-0.455,-0.49,
1232,-0.465,-0.49,
1233,-0.455,-0.49,
1234,-0.455,-0.48,
1235,-0.445,-0.48,
1236,-0.435,-0.475,
1237,-0.435,-0.465,
1238,-0.43,-0.465,
1239,-0.43,-0.475,
1240,-0.425,-0.485,
1241,-0.445,-0.49,
1242,-0.44,-0.5,
1243,-0.44,-0.505,
1244,-0.45,-0.495,
1245,-0.44,-0.485,
1246,-0.445,-0.495,
1247,-0.435,-0.48,
1248,-0.435,-0.475,
1249,-0.425,-0.48,
1250,-0.42,-0.475,
1251,-0.42,-0.485,
1252,-0.425,-0.505,
1253,-0.43,-0.505,
1254,-0.425,-0.515,
1255,-0.435,-0.51,
1256,-0.435,-0.505,
1257,-0.42,-0.525,
1258,-0.425,-0.495,
1259,-0.41,-0.495,
1260,-0.41,-0.495,
1261,-0.4,-0.5,
1262,-0.4,-0.495,
1263,-0.39,-0.505,
1264,-0.395,-0.515,
1265,-0.405,-0.52,
1266,-0.41,-0.53,
1267,-0.41,-0.54,
1268,-0.42,-0.525,
1269,-0.415,-0.54,
1270,-0.405,-0.525,
1271,-0.39,-0.52,
1272,-0.385,-0.51,
1273,-0.39,-0.51,
1274,-0.385,-0.51,
1275,-0.38,-0.525,
1276,-0.385,-0.525,
1277,-0.39,-0.535,
1278,-0.395,-0.54,
1279,-0.405,-0.545,
1280,-0.4,-0.54,
1281,-0.39,-0.545,
1282,-0.39,-0.54,
1283,-0.38,-0.53,
1284,-0.36,-0.535,
1285,-0.35,-0.525,
1286,-0.335,-0.53,
1287,-0.33,-0.55,
1288,-0.335,-0.555,
1289,-0.33,-0.565,
1290,-0.34,-0.58,
1291,-0.33,-0.575,
1292,-0.325,-0.57,
1293,-0.32,-0.575,
1294,-0.31,-0.56,
1295,-0.3,-0.565,
1296,-0.295,-0.56,
1297,-0.285,-0.555,
1298,-0.285,-0.565,
1299,-0.29,-0.555,
1300,-0.3,-0.555,
1301,-0.31,-0.565,
1302,-0.325,-0.56,
1303,-0.345,-0.565,
1304,-0.345,-0.55,
1305,-0.345,-0.55,
1306,-0.355,-0.55,
1307,-0.34,-0.52,
1308,-0.355,-0.525,
1309,-0.355,-0.515,
1310,-0.365,-0.51,
1311,-0.36,-0.515,
1312,-0.375,-0.52,
1313,-0.375,-0.525,
1314,-0.385,-0.53,
1315,-0.405,-0.525,
1316,-0.41,-0.52,
1317,-0.415,-0.52,
1318,-0.405,-0.5,
1319,-0.405,-0.495,
1320,-0.4,-0.485,
1321,-0.39,-0.485,
1322,-0.39,-0.48,
1323,-0.395,-0.485,
1324,-0.4,-0.495,
1325,-0.405,-0.5,
1326,-0.425,-0.51,
1327,-0.42,-0.495,
1328,-0.425,-0.5,
1329,-0.43,-0.495,
1330,-0.425,-0.495,
1331,-0.42,-0.49,
1332,-0.41,-0.475,
1333,-0.415,-0.47,
1334,-0.42,-0.485,
1335,-0.41,-0.475,
1336,-0.41,-0.49,
1337,-0.415,-0.495,
1338,-0.425,-0.495,
1339,-0.435,-0.5,
1340,-0.435,-0.5,
1341,-0.44,-0.495,
1342,-0.445,-0.485,
1343,-0.43,-0.475,
1344,-0.425,-0.47,
1345,-0.42,-0.47,
1346,-0.42,-0.47,
1347,-0.425,-0.475,
1348,-0.42,-0.485,
1349,-0.435,-0.485,
1350,-0.44,-0.495,
1351,-0.445,-0.495,
1352,-0.455,-0.495,
1353,-0.455,-0.495,
1354,-0.45,-0.475,
1355,-0.435,-0.475,
1356,-0.45,-0.46,
1357,-0.445,-0.47,
1358,-0.44,-0.465,
1359,-0.44,-0.465,
1360,-0.445,-0.475,
1361,-0.445,-0.495,
1362,-0.455,-0.48,
1363,-0.45,-0.5,
1364,-0.455,-0.495,
1365,-0.465,-0.48,
1366,-0.45,-0.47,
1367,-0.445,-0.46,
1368,-0.42,-0.465,
1369,-0.405,-0.47,
1370,-0.4,-0.455,
1371,-0.4,-0.46,
1372,-0.39,-0.47,
1373,-0.39,-0.48,
1374,-0.395,-0.47,
1375,-0.39,-0.47,
1376,-0.39,-0.475,
1377,-0.395,-0.47,
1378,-0.39,-0.455,
1379,-0.37,-0.455,
1380,-0.365,-0.455,
1381,-0.345,-0.46,
1382,-0.335,-0.47,
1383,-0.33,-0.475,
1384,-0.345,-0.495,
1385,-0.355,-0.505,
1386,-0.375,-0.52,
1387,-0.4,-0.52,
1388,-0.41,-0.535,
1389,-0.41,-0.51,
1390,-0.4,-0.515,
1391,-0.405,-0.5,
1392,-0.4,-0.495,
1393,-0.4,-0.49,
1394,-0.405,-0.495,
1395,-0.405,-0.495,
1396,-0.41,-0.5,
1397,-0.425,-0.5,
1398,-0.44,-0.495,
1399,-0.46,-0.495,
1400,-0.475,-0.48,
1401,-0.485,-0.465,
1402,-0.49,-0.465,
1403,-0.485,-0.46,
1404,-0.49,-0.445,
1405,-0.47,-0.45,
1406,-0.48,-0.465,
1407,-0.48,-0.46,
1408,-0.48,-0.475,
1409,-0.49,-0.47,
1410,-0.495,-0.475,
1411,-0.495,-0.485,
1412,-0.5,-0.48,
1413,-0.5,-0.475,
1414,-0.49,-0.475,
1415,-0.495,-0.47,
1416,-0.485,-0.455,
1417,-0.475,-0.46,
1418,-0.485,-0.46,
1419,-0.49,-0.46,
1420,-0.515,-0.465,
1421,-0.53,-0.465,
1422,-0.555,-0.475,
1423,-0.515,-0.495,
1424,-0.435,-0.505,
1425,-0.315,-0.53,
1426,-0.14,-0.565,
1427,0.075,-0.62,
1428,0.31,-0.67,
1429,0.55,-0.695,
1430,0.71,-0.715,N
1431,0.745,-0.69,
1432,0.635,-0.655,
1433,0.385,-0.61,
1434,0.09,-0.545,
1435,-0.19,-0.49,
1436,-0.395,-0.425,
1437,-0.495,-0.415,
1438,-0.495,-0.42,
1439,-0.44,-0.445,
1440,-0.37,-0.46,
1441,-0.325,-0.5,
1442,-0.305,-0.5,
1443,-0.31,-0.51,
1444,-0.33,-0.505,
1445,-0.365,-0.495,
1446,-0.405,-0.495,
1447,-0.425,-0.5,
1448,-0.45,-0.49,
1449,-0.45,-0.485,
1450,-0.445,-0.48,
1451,-0.445,-0.465,
1452,-0.43,-0.46,
1453,-0.435,-0.455,
1454,-0.43,-0.46,
1455,-0.435,-0.465,
1456,-0.445,-0.475,
1457,-0.465,-0.48,
1458,-0.455,-0.475,
1459,-0.46,-0.49,
1460,-0.465,-0.475,
1461,-0.465,-0.485,
1462,-0.465,-0.47,
1463,-0.455,-0.465,
1464,-0.44,-0.46,
1465,-0.44,-0.46,
1466,-0.44,-0.465,
1467,-0.44,-0.46,
1468,-0.445,-0.465,
1469,-0.45,-0.475,
1470,-0.455,-0.485,
1471,-0.445,-0.475,
1472,-0.445,-0.48,
1473,-0.455,-0.475,
1474,-0.44,-0.465,
1475,-0.43,-0.47,
1476,-0.425,-0.455,
1477,-0.41,-0.46,
1478,-0.405,-0.465,
1479,-0.4,-0.475,
1480,-0.415,-0.47,
1481,-0.415,-0.48,
1482,-0.42,-0.485,
1483,-0.425,-0.49,
1484,-0.425,-0.495,
1485,-0.425,-0.49,
1486,-0.42,-0.485,
1487,-0.415,-0.475,
1488,-0.4,-0.475,
1489,-0.4,-0.475,
1490,-0.41,-0.475,
1491,-0.4,-0.475,
1492,-0.405,-0.485,
1493,-0.405,-0.495,
1494,-0.41,-0.5,
1495,-0.41,-0.51,
1496,-0.4,-0.505,
1497,-0.415,-0.51,
1498,-0.4,-0.49,
1499,-0.385,-0.495,
1500,-0.38,-0.495,
1501,-0.365,-0.48,
1502,-0.37,-0.485,
1503,-0.355,-0.495,
1504,-0.36,-0.505,
1505,-0.37,-0.52,
1506,-0.38,-0.52,
1507,-0.385,-0.525,
1508,-0.38,-0.53,
1509,-0.385,-0.515,
1510,-0.39,-0.505,
1511,-0.375,-0.5,
1512,-0.36,-0.5,
1513,-0.355,-0.5,
1514,-0.355,-0.51,
1515,-0.335,-0.505,
1516,-0.345,-0.525,
1517,-0.355,-0.53,
1518,-0.365,-0.54,
1519,-0.36,-0.55,
1520,-0.36,-0.54,
1521,-0.36,-0.545,
1522,-0.355,-0.53,
1523,-0.335,-0.53,
1524,-0.325,-0.535,
1525,-0.31,-0.53,
1526,-0.295,-0.53,
1527,-0.3,-0.535,
1528,-0.29,-0.54,
1529,-0.285,-0.56,
1530,-0.275,-0.555,
1531,-0.275,-0.565,
1532,-0.275,-0.56,
1533,-0.28,-0.56,
1534,-0.275,-0.555,
1535,-0.275,-0.545,
1536,-0.27,-0.53,
1537,-0.26,-0.53,
1538,-0.27,-0.545,
1539,-0.27,-0.535,
1540,-0.285,-0.545,
1541,-0.3,-0.545,
1542,-0.32,-0.555,
1543,-0.34,-0.545,
1544,-0.35,-0.545,
1545,-0.355,-0.535,
1546,-0.35,-0.52,
1547,-0.345,-0.51,
1548,-0.335,-0.505,
1549,-0.34,-0.49,
1550,-0.34,-0.5,
1551,-0.34,-0.495,
1552,-0.355,-0.5,
1553,-0.37,-0.51,
1554,-0.385,-0.505,
1555,-0.39,-0.505,
1556,-0.395,-0.505,
1557,-0.41,-0.49,
1558,-0.4,-0.49,
1559,-0.395,-0.475,
1560,-0.39,-0.47,
1561,-0.39,-0.47,
1562,-0.41,-0.465,
1563,-0.395,-0.465,
1564,-0.4,-0.475,
1565,-0.405,-0.475,
1566,-0.415,-0.48,
1567,-0.425,-0.495,
1568,-0.425,-0.485,
1569,-0.44,-0.48,
1570,-0.445,-0.47,
1571,-0.43,-0.46,
1572,-0.43,-0.465,
1573,-0.425,-0.46,
1574,-0.42,-0.46,
1575,-0.415,-0.47,
1576,-0.42,-0.475,
1577,-0.42,-0.475,
1578,-0.43,-0.485,
1579,-0.435,-0.485,
1580,-0.435,-0.48,
1581,-0.44,-0.48,
1582,-0.445,-0.475,
1583,-0.435,-0.47,
1584,-0.425,-0.46,
1585,-0.43,-0.455,
1586,-0.43,-0.46,
1587,-0.43,-0.455,
1588,-0.43,-0.46,
1589,-0.435,-0.475,
1590,-0.445,-0.475,
1591,-0.445,-0.485,
1592,-0.455,-0.475,
1593,-0.45,-0.475,
1594,-0.445,-0.47,
1595,-0.445,-0.465,
1596,-0.43,-0.46,
1597,-0.43,-0.445,
1598,-0.43,-0.46,
1599,-0.44,-0.47,
1600,-0.44,-0.47,
1601,-0.445,-0.47,
1602,-0.45,-0.47,
1603,-0.45,-0.47,
1604,-0.445,-0.465,
1605,-0.445,-0.465,
1606,-0.425,-0.455,
1607,-0.42,-0.455,
1608,-0.41,-0.45,
1609,-0.4,-0.44,
1610,-0.39,-0.43,
1611,-0.39,-0.435,
1612,-0.39,-0.445,
1613,-0.385,-0.455,
1614,-0.395,-0.46,
1615,-0.4,-0.465,
1616,-0.4,-0.465,
1617,-0.385,-0.45,
1618,-0.37,-0.45,
1619,-0.345,-0.45,
1620,-0.345,-0.45,
1621,-0.34,-0.46,
1622,-0.345,-0.465,
1623,-0.355,-0.48,
1624,-0.365,-0.5,
1625,-0.39,-0.495,
1626,-0.4,-0.505,
1627,-0.41,-0.51,
1628,-0.41,-0.51,
1629,-0.41,-0.5,
1630,-0.4,-0.495,
1631,-0.4,-0.475,
1632,-0.395,-0.47,
1633,-0.395,-0.465,
1634,-0.405,-0.475,
1635,-0.405,-0.47,
1636,-0.42,-0.47,
1637,-0.44,-0.485,
1638,-0.455,-0.475,
1639,-0.465,-0.475,
1640,-0.485,-0.47,
1641,-0.5,-0.475,
1642,-0.485,-0.455,
1643,-0.485,-0.46,
1644,-0.47,-0.445,
1645,-0.47,-0.445,
1646,-0.465,-0.46,
1647,-0.465,-0.44,
1648,-0.47,-0.45,
1649,-0.48,-0.46,
1650,-0.48,-0.465,
1651,-0.48,-0.47,
1652,-0.485,-0.46,
1653,-0.495,-0.46,
1654,-0.49,-0.455,
1655,-0.48,-0.46,
1656,-0.47,-0.45,
1657,-0.465,-0.43,
1658,-0.47,-0.445,
1659,-0.485,-0.44,
1660,-0.505,-0.45,
1661,-0.53,-0.45,
1662,-0.52,-0.465,
1663,-0.475,-0.475,
1664,-0.38,-0.485,
1665,-0.25,-0.51,
1666,-0.075,-0.54,
1667,0.14,-0.58,
1668,0.365,-0.62,
1669,0.59,-0.655,
1670,0.77,-0.675,
1671,0.855,-0.67,N
1672,0.795,-0.645,
1673,0.615,-0.6,
1674,0.335,-0.545,
1675,0.045,-0.485,
1676,-0.205,-0.415,
1677,-0.38,-0.38,
1678,-0.45,-0.36,
1679,-0.455,-0.365,
1680,-0.425,-0.375,
1681,-0.37,-0.41,
1682,-0.345,-0.44,
1683,-0.345,-0.46,
1684,-0.36,-0.485,
1685,-0.36,-0.505,
1686,-0.385,-0.485,
1687,-0.4,-0.49,
1688,-0.43,-0.49,
1689,-0.44,-0.465,
1690,-0.445,-0.45,
1691,-0.445,-0.455,
1692,-0.44,-0.45,
1693,-0.435,-0.435,
1694,-0.435,-0.435,
1695,-0.445,-0.435,
1696,-0.435,-0.45,
1697,-0.46,-0.455,
1698,-0.455,-0.465,
1699,-0.46,-0.47,
1700,-0.465,-0.465,
1701,-0.46,-0.46,
1702,-0.45,-0.445,
1703,-0.435,-0.44,
1704,-0.43,-0.43,
1705,-0.425,-0.425,
1706,-0.43,-0.435,
1707,-0.435,-0.445,
1708,-0.435,-0.45,
1709,-0.44,-0.46,
1710,-0.45,-0.465,
1711,-0.45,-0.475,
1712,-0.455,-0.46,
1713,-0.46,-0.455,
1714,-0.455,-0.445,
1715,-0.455,-0.445,
1716,-0.445,-0.43,
1717,-0.435,-0.435,
1718,-0.43,-0.44,
1719,-0.425,-0.435,
1720,-0.425,-0.46,
1721,-0.42,-0.46,
1722,-0.435,-0.475,
1723,-0.43,-0.475,
1724,-0.43,-0.465,
1725,-0.435,-0.465,
1726,-0.43,-0.465,
1727,-0.425,-0.46,
1728,-0.42,-0.445,
1729,-0.4,-0.45,
1730,-0.405,-0.46,
1731,-0.39,-0.465,
1732,-0.4,-0.465,
1733,-0.4,-0.48,
1734,-0.405,-0.485,
1735,-0.415,-0.48,
1736,-0.42,-0.485,
1737,-0.43,-0.485,
1738,-0.42,-0.48,
1739,-0.425,-0.48,
1740,-0.415,-0.48,
1741,-0.41,-0.47,
1742,-0.41,-0.475,
1743,-0.4,-0.48,
1744,-0.4,-0.48,
1745,-0.41,-0.49,
1746,-0.42,-0.495,
1747,-0.425,-0.5,
1748,-0.43,-0.505,
1749,-0.445,-0.5,
1750,-0.435,-0.5,
1751,-0.425,-0.495,
1752,-0.42,-0.49,
1753,-0.405,-0.49,
1754,-0.395,-0.49,
1755,-0.38,-0.5,
1756,-0.385,-0.51,
1757,-0.395,-0.525,
1758,-0.405,-0.53,
1759,-0.405,-0.535,
1760,-0.41,-0.53,
1761,-0.4,-0.52,
1762,-0.39,-0.53,
1763,-0.375,-0.52,
1764,-0.36,-0.52,
1765,-0.335,-0.51,
1766,-0.335,-0.525,
1767,-0.315,-0.52,
1768,-0.31,-0.53,
1769,-0.33,-0.535,
1770,-0.325,-0.545,
1771,-0.34,-0.54,
1772,-0.335,-0.545,
1773,-0.34,-0.54,
1774,-0.33,-0.53,
1775,-0.335,-0.525,
1776,-0.32,-0.51,
1777,-0.325,-0.515,
1778,-0.33,-0.51,
1779,-0.33,-0.505,
1780,-0.335,-0.515,
1781,-0.34,-0.51,
1782,-0.34,-0.52,
1783,-0.36,-0.51,
1784,-0.375,-0.51,
1785,-0.385,-0.505,
1786,-0.375,-0.495,
1787,-0.38,-0.48,
1788,-0.385,-0.475,
1789,-0.385,-0.455,
1790,-0.385,-0.465,
1791,-0.38,-0.46,
1792,-0.38,-0.475,
1793,-0.395,-0.47,
1794,-0.4,-0.47,
1795,-0.42,-0.475,
1796,-0.435,-0.485,
1797,-0.44,-0.47,
1798,-0.435,-0.455,
1799,-0.415,-0.45,
1800,-0.405,-0.435,
1801,-0.395,-0.44,
1802,-0.395,-0.44,
1803,-0.39,-0.44,
1804,-0.4,-0.45,
1805,-0.415,-0.445,
1806,-0.42,-0.46,
1807,-0.43,-0.465,
1808,-0.425,-0.46,
1809,-0.43,-0.45,
1810,-0.425,-0.455,
1811,-0.435,-0.435,
1812,-0.425,-0.44,
1813,-0.42,-0.425,
1814,-0.43,-0.43,
1815,-0.425,-0.43,
1816,-0.435,-0.44,
1817,-0.44,-0.455,
1818,-0.46,-0.46,
1819,-0.46,-0.455,
1820,-0.465,-0.45,
1821,-0.46,-0.455,
1822,-0.45,-0.435,
1823,-0.445,-0.43,
1824,-0.44,-0.425,
1825,-0.435,-0.415,
1826,-0.425,-0.42,
1827,-0.425,-0.43,
1828,-0.43,-0.43,
1829,-0.435,-0.445,
1830,-0.43,-0.45,
1831,-0.435,-0.45,
1832,-0.44,-0.445,
1833,-0.45,-0.435,
1834,-0.46,-0.44,
1835,-0.46,-0.43,
1836,-0.45,-0.43,
1837,-0.445,-0.43,
1838,-0.445,-0.425,
1839,-0.44,-0.43,
1840,-0.44,-0.435,
1841,-0.44,-0.44,
1842,-0.43,-0.44,
1843,-0.425,-0.45,
1844,-0.41,-0.44,
1845,-0.415,-0.43,
1846,-0.405,-0.405,
1847,-0.395,-0.4,
1848,-0.385,-0.405,
1849,-0.385,-0.395,
1850,-0.375,-0.405,
1851,-0.365,-0.41,
1852,-0.35,-0.42,
1853,-0.35,-0.43,
1854,-0.35,-0.445,
1855,-0.365,-0.46,
1856,-0.375,-0.47,
1857,-0.39,-0.465,
1858,-0.405,-0.465,
1859,-0.405,-0.46,
1860,-0.405,-0.45,
1861,-0.395,-0.445,
1862,-0.395,-0.45,
1863,-0.395,-0.44,
1864,-0.4,-0.45,
1865,-0.415,-0.455,
1866,-0.435,-0.46,
1867,-0.44,-0.465,
1868,-0.445,-0.455,
1869,-0.46,-0.44,
1870,-0.465,-0.44,
1871,-0.46,-0.43,
1872,-0.47,-0.425,
1873,-0.475,-0.415,
1874,-0.48,-0.41,
1875,-0.485,-0.42,
1876,-0.485,-0.43,
1877,-0.49,-0.43,
1878,-0.49,-0.44,
1879,-0.49,-0.45,
1880,-0.495,-0.425,
1881,-0.495,-0.435,
1882,-0.49,-0.44,
1883,-0.48,-0.42,
1884,-0.47,-0.425,
1885,-0.475,-0.42,
1886,-0.465,-0.42,
1887,-0.465,-0.415,
1888,-0.465,-0.435,
1889,-0.475,-0.435,
1890,-0.495,-0.44,
1891,-0.51,-0.45,
1892,-0.53,-0.44,
1893,-0.535,-0.445,
1894,-0.51,-0.44,
1895,-0.45,-0.435,
1896,-0.34,-0.455,
1897,-0.205,-0.475,
1898,-0.02,-0.515,
1899,0.195,-0.565,
1900,0.42,-0.59,
1901,0.62,-0.62,
1902,0.755,-0.62,N
1903,0.79,-0.63,
1904,0.67,-0.57,
1905,0.435,-0.52,
1906,0.15,-0.455,
1907,-0.135,-0.41,
1908,-0.355,-0.37,
1909,-0.485,-0.345,
1910,-0.515,-0.34,
1911,-0.485,-0.36,
1912,-0.45,-0.39,
1913,-0.405,-0.43,
1914,-0.385,-0.45,
1915,-0.395,-0.485,
1916,-0.405,-0.48,
1917,-0.41,-0.48,
1918,-0.415,-0.46,
1919,-0.415,-0.45,
1920,-0.425,-0.445,
1921,-0.43,-0.43,
1922,-0.435,-0.43,
1923,-0.435,-0.445,
1924,-0.45,-0.45,
1925,-0.465,-0.46,
1926,-0.47,-0.47,
1927,-0.485,-0.475,
1928,-0.47,-0.46,
1929,-0.475,-0.455,
1930,-0.47,-0.45,
1931,-0.465,-0.45,
1932,-0.46,-0.445,
1933,-0.455,-0.435,
1934,-0.435,-0.435,
1935,-0.445,-0.445,
1936,-0.44,-0.445,
1937,-0.44,-0.45,
1938,-0.455,-0.455,
1939,-0.455,-0.455,
1940,-0.45,-0.465,
1941,-0.45,-0.465,
1942,-0.445,-0.455,
1943,-0.445,-0.445,
1944,-0.44,-0.435,
1945,-0.435,-0.435,
1946,-0.435,-0.435,
1947,-0.425,-0.44,
1948,-0.425,-0.455,
1949,-0.435,-0.465,
1950,-0.44,-0.47,
1951,-0.44,-0.465,
1952,-0.445,-0.47,
1953,-0.45,-0.465,
1954,-0.445,-0.45,
1955,-0.435,-0.46,
1956,-0.43,-0.45,
1957,-0.42,-0.44,
1958,-0.415,-0.45,
1959,-0.41,-0.455,
1960,-0.405,-0.465,
1961,-0.41,-0.475,
1962,-0.415,-0.485,
1963,-0.42,-0.49,
1964,-0.425,-0.49,
1965,-0.42,-0.48,
1966,-0.41,-0.47,
1967,-0.41,-0.465,
1968,-0.4,-0.46,
1969,-0.395,-0.455,
1970,-0.39,-0.46,
1971,-0.39,-0.475,
1972,-0.39,-0.48,
1973,-0.395,-0.485,
1974,-0.405,-0.495,
1975,-0.415,-0.505,
1976,-0.42,-0.5,
1977,-0.42,-0.495,
1978,-0.42,-0.49,
1979,-0.4,-0.49,
1980,-0.4,-0.495,
1981,-0.395,-0.48,
1982,-0.39,-0.485,
1983,-0.39,-0.495,
1984,-0.395,-0.5,
1985,-0.395,-0.505,
1986,-0.4,-0.52,
1987,-0.41,-0.525,
1988,-0.405,-0.525,
1989,-0.405,-0.525,
1990,-0.395,-0.515,
1991,-0.39,-0.515,
1992,-0.38,-0.505,
1993,-0.37,-0.5,
1994,-0.365,-0.505,
1995,-0.365,-0.51,
1996,-0.36,-0.52,
1997,-0.345,-0.525,
1998,-0.35,-0.535,
1999,-0.35,-0.545,
2000,-0.355,-0.535,
2001,-0.345,-0.54,
2002,-0.33,-0.53,
2003,-0.32,-0.535,
2004,-0.315,-0.535,
2005,-0.295,-0.525,
2006,-0.295,-0.53,
2007,-0.29,-0.525,
2008,-0.285,-0.53,
2009,-0.29,-0.545,
2010,-0.3,-0.545,
2011,-0.31,-0.545,
2012,-0.31,-0.54,
2013,-0.325,-0.53,
2014,-0.315,-0.525,
2015,-0.325,-0.52,
2016,-0.32,-0.5,
2017,-0.335,-0.495,
2018,-0.33,-0.495,
2019,-0.325,-0.49,
2020,-0.33,-0.5,
2021,-0.34,-0.505,
2022,-0.355,-0.515,
2023,-0.36,-0.505,
2024,-0.37,-0.5,
2025,-0.375,-0.495,
2026,-0.375,-0.495,
2027,-0.37,-0.475,
2028,-0.365,-0.475,
2029,-0.365,-0.465,
2030,-0.355,-0.46,
2031,-0.36,-0.46,
2032,-0.365,-0.465,
2033,-0.38,-0.48,
2034,-0.365,-0.48,
2035,-0.385,-0.48,
2036,-0.39,-0.47,
2037,-0.395,-0.465,
2038,-0.39,-0.465,
2039,-0.39,-0.455,
2040,-0.38,-0.455,
2041,-0.365,-0.45,
2042,-0.36,-0.45,
2043,-0.365,-0.445,
2044,-0.365,-0.455,
2045,-0.37,-0.46,
2046,-0.37,-0.465,
2047,-0.385,-0.47,
2048,-0.39,-0.475,
2049,-0.39,-0.47,
2050,-0.385,-0.46,
2051,-0.385,-0.46,
2052,-0.38,-0.445,
2053,-0.375,-0.45,
2054,-0.37,-0.44,
2055,-0.365,-0.45,
2056,-0.37,-0.45,
2057,-0.375,-0.465,
2058,-0.38,-0.46,
2059,-0.39,-0.455,
2060,-0.39,-0.465,
2061,-0.4,-0.465,
2062,-0.395,-0.455,
2063,-0.395,-0.445,
2064,-0.38,-0.44,
2065,-0.38,-0.435,
2066,-0.37,-0.43,
2067,-0.375,-0.445,
2068,-0.38,-0.45,
2069,-0.385,-0.45,
2070,-0.395,-0.475,
2071,-0.405,-0.47,
2072,-0.41,-0.465,
2073,-0.405,-0.47,
2074,-0.405,-0.46,
2075,-0.4,-0.445,
2076,-0.39,-0.44,
2077,-0.38,-0.44,
2078,-0.375,-0.44,
2079,-0.38,-0.44,
2080,-0.365,-0.455,
2081,-0.36,-0.46,
2082,-0.365,-0.455,
2083,-0.36,-0.445,
2084,-0.345,-0.445,
2085,-0.355,-0.455,
2086,-0.345,-0.44,
2087,-0.335,-0.44,
2088,-0.325,-0.415,
2089,-0.32,-0.415,
2090,-0.315,-0.415,
2091,-0.31,-0.415,
2092,-0.295,-0.435,
2093,-0.3,-0.45,
2094,-0.29,-0.455,
2095,-0.29,-0.48,
2096,-0.31,-0.485,
2097,-0.32,-0.49,
2098,-0.33,-0.48,
2099,-0.325,-0.475,
2100,-0.345,-0.47,
2101,-0.335,-0.47,
2102,-0.325,-0.475,
2103,-0.33,-0.48,
2104,-0.34,-0.47,
2105,-0.355,-0.485,
2106,-0.365,-0.485,
2107,-0.375,-0.485,
2108,-0.375,-0.485,
2109,-0.385,-0.48,
2110,-0.39,-0.465,
2111,-0.4,-0.46,
2112,-0.4,-0.445,
2113,-0.405,-0.435,
2114,-0.415,-0.435,
2115,-0.405,-0.44,
2116,-0.415,-0.44,
2117,-0.42,-0.445,
2118,-0.43,-0.45,
2119,-0.43,-0.47,
2120,-0.425,-0.455,
2121,-0.43,-0.45,
2122,-0.425,-0.445,
2123,-0.415,-0.44,
2124,-0.41,-0.43,
2125,-0.405,-0.43,
2126,-0.4,-0.43,
2127,-0.405,-0.43,
2128,-0.41,-0.44,
2129,-0.395,-0.445,
2130,-0.405,-0.455,
2131,-0.41,-0.46,
2132,-0.42,-0.445,
2133,-0.44,-0.45,
2134,-0.45,-0.445,
2135,-0.465,-0.44,
2136,-0.44,-0.42,
2137,-0.41,-0.42,
2138,-0.335,-0.43,
2139,-0.215,-0.465,
2140,-0.09,-0.5,
2141,0.08,-0.54,
2142,0.27,-0.585,
2143,0.45,-0.625,
2144,0.62,-0.65,
2145,0.73,-0.655,N
2146,0.75,-0.62,
2147,0.65,-0.59,
2148,0.445,-0.545,
2149,0.2,-0.495,
2150,-0.05,-0.44,
2151,-0.25,-0.4,
2152,-0.365,-0.4,
2153,-0.39,-0.415,
2154,-0.37,-0.445,
2155,-0.33,-0.47,
2156,-0.295,-0.48,
2157,-0.285,-0.5,
2158,-0.275,-0.495,
2159,-0.28,-0.48,
2160,-0.295,-0.47,
2161,-0.315,-0.45,
2162,-0.335,-0.445,
2163,-0.34,-0.45,
2164,-0.355,-0.45,
2165,-0.365,-0.445,
2166,-0.375,-0.46,
2167,-0.38,-0.47,
2168,-0.38,-0.465,
2169,-0.395,-0.455,
2170,-0.395,-0.45,
2171,-0.39,-0.44,
2172,-0.385,-0.435,
2173,-0.365,-0.43,
2174,-0.36,-0.425,
2175,-0.37,-0.435,
2176,-0.365,-0.43,
2177,-0.37,-0.445,
2178,-0.37,-0.45,
2179,-0.385,-0.455,
2180,-0.385,-0.455,
2181,-0.38,-0.45,
2182,-0.37,-0.435,
2183,-0.37,-0.44,
2184,-0.375,-0.435,
2185,-0.365,-0.43,
2186,-0.355,-0.43,
2187,-0.36,-0.435,
2188,-0.355,-0.435,
2189,-0.365,-0.45,
2190,-0.37,-0.46,
2191,-0.375,-0.46,
2192,-0.375,-0.45,
2193,-0.385,-0.45,
2194,-0.375,-0.445,
2195,-0.365,-0.445,
2196,-0.36,-0.445,
2197,-0.35,-0.435,
2198,-0.35,-0.445,
2199,-0.35,-0.455,
2200,-0.345,-0.46,
2201,-0.355,-0.47,
2202,-0.35,-0.465,
2203,-0.37,-0.475,
2204,-0.36,-0.47,
2205,-0.355,-0.47,
2206,-0.36,-0.47,
2207,-0.345,-0.465,
2208,-0.345,-0.46,
2209,-0.335,-0.455,
2210,-0.33,-0.455,
2211,-0.33,-0.465,
2212,-0.335,-0.46,
2213,-0.335,-0.48,
2214,-0.34,-0.49,
2215,-0.345,-0.48,
2216,-0.345,-0.495,
2217,-0.355,-0.49,
2218,-0.34,-0.485,
2219,-0.335,-0.485,
2220,-0.33,-0.48,
2221,-0.32,-0.475,
2222,-0.32,-0.46,
2223,-0.32,-0.485,
2224,-0.32,-0.48,
2225,-0.315,-0.485,
2226,-0.325,-0.495,
2227,-0.33,-0.5,
2228,-0.335,-0.505,
2229,-0.335,-0.5,
2230,-0.32,-0.5,
2231,-0.31,-0.495,
2232,-0.31,-0.485,
2233,-0.305,-0.48,
2234,-0.3,-0.48,
2235,-0.295,-0.495,
2236,-0.295,-0.49,
2237,-0.3,-0.505,
2238,-0.305,-0.51,
2239,-0.305,-0.515,
2240,-0.3,-0.525,
2241,-0.305,-0.525,
2242,-0.3,-0.51,
2243,-0.285,-0.515,
2244,-0.265,-0.5,
2245,-0.26,-0.51,
2246,-0.25,-0.505,
2247,-0.245,-0.51,
2248,-0.24,-0.515,
2249,-0.24,-0.525,
2250,-0.245,-0.535,
2251,-0.24,-0.54,
2252,-0.24,-0.545,
2253,-0.245,-0.545,
2254,-0.25,-0.535,
2255,-0.235,-0.53,
2256,-0.24,-0.525,
2257,-0.22,-0.505,
2258,-0.235,-0.51,
2259,-0.215,-0.51,
2260,-0.23,-0.515,
2261,-0.24,-0.535,
2262,-0.26,-0.53,
2263,-0.27,-0.53,
2264,-0.275,-0.53,
2265,-0.285,-0.52,
2266,-0.285,-0.515,
2267,-0.275,-0.505,
2268,-0.285,-0.49,
2269,-0.28,-0.48,
2270,-0.28,-0.485,
2271,-0.285,-0.49,
2272,-0.29,-0.485,
2273,-0.32,-0.485,
2274,-0.33,-0.49,
2275,-0.33,-0.505,
2276,-0.33,-0.495,
2277,-0.34,-0.485,
2278,-0.335,-0.475,
2279,-0.335,-0.48,
2280,-0.335,-0.465,
2281,-0.335,-0.46,
2282,-0.33,-0.455,
2283,-0.34,-0.455,
2284,-0.325,-0.46,
2285,-0.335,-0.475,
2286,-0.35,-0.48,
2287,-0.355,-0.475,
2288,-0.355,-0.485,
2289,-0.35,-0.475,
2290,-0.35,-0.47,
2291,-0.35,-0.46,
2292,-0.34,-0.455,
2293,-0.345,-0.45,
2294,-0.335,-0.455,
2295,-0.35,-0.455,
2296,-0.345,-0.46,
2297,-0.35,-0.465,
2298,-0.36,-0.48,
2299,-0.375,-0.495,
2300,-0.365,-0.475,
2301,-0.37,-0.485,
2302,-0.37,-0.47,
2303,-0.36,-0.455,
2304,-0.355,-0.46,
2305,-0.355,-0.445,
2306,-0.355,-0.45,
2307,-0.35,-0.45,
2308,-0.35,-0.46,
2309,-0.36,-0.465,
2310,-0.375,-0.47,
2311,-0.375,-0.48,
2312,-0.375,-0.485,
2313,-0.38,-0.475,
2314,-0.38,-0.47,
2315,-0.37,-0.455,
2316,-0.365,-0.455,
2317,-0.36,-0.455,
2318,-0.355,-0.46,
2319,-0.36,-0.45,
2320,-0.37,-0.455,
2321,-0.37,-0.465,
2322,-0.385,-0.47,
2323,-0.39,-0.48,
2324,-0.405,-0.475,
2325,-0.4,-0.465,
2326,-0.39,-0.465,
2327,-0.38,-0.46,
2328,-0.37,-0.46,
2329,-0.365,-0.445,
2330,-0.35,-0.455,
2331,-0.335,-0.45,
2332,-0.335,-0.455,
2333,-0.335,-0.46,
2334,-0.325,-0.46,
2335,-0.335,-0.47,
2336,-0.335,-0.46,
2337,-0.335,-0.46,
2338,-0.335,-0.445,
2339,-0.325,-0.445,
2340,-0.31,-0.445,
2341,-0.305,-0.43,
2342,-0.28,-0.435,
2343,-0.275,-0.455,
2344,-0.27,-0.465,
2345,-0.28,-0.485,
2346,-0.29,-0.5,
2347,-0.31,-0.505,
2348,-0.325,-0.505,
2349,-0.345,-0.515,
2350,-0.345,-0.51,
2351,-0.35,-0.495,
2352,-0.34,-0.48,
2353,-0.345,-0.47,
2354,-0.34,-0.47,
2355,-0.34,-0.475,
2356,-0.345,-0.49,
2357,-0.355,-0.485,
2358,-0.38,-0.49,
2359,-0.39,-0.485,
2360,-0.415,-0.485,
2361,-0.425,-0.465,
2362,-0.44,-0.465,
2363,-0.44,-0.455,
2364,-0.435,-0.45,
2365,-0.425,-0.445,
2366,-0.41,-0.445,
2367,-0.405,-0.445,
2368,-0.41,-0.45,
2369,-0.405,-0.46,
2370,-0.41,-0.46,
2371,-0.425,-0.46,
2372,-0.425,-0.455,
2373,-0.43,-0.465,
2374,-0.42,-0.455,
2375,-0.415,-0.46,
2376,-0.41,-0.45,
2377,-0.4,-0.445,
2378,-0.395,-0.44,
2379,-0.4,-0.445,
2380,-0.405,-0.455,
2381,-0.425,-0.455,
2382,-0.45,-0.46,
2383,-0.47,-0.47,
2384,-0.46,-0.465,
2385,-0.435,-0.465,
2386,-0.355,-0.47,
2387,-0.245,-0.49,
2388,-0.1,-0.515,
2389,0.075,-0.56,
2390,0.28,-0.605,
2391,0.47,-0.64,
2392,0.65,-0.665,
2393,0.76,-0.675,N
2394,0.755,-0.665,
2395,0.615,-0.62,
2396,0.38,-0.58,
2397,0.085,-0.51,
2398,-0.175,-0.45,
2399,-0.345,-0.41,
2400,-0.425,-0.39,
2401,-0.415,-0.4,
2402,-0.355,-0.425,
2403,-0.295,-0.46,
2404,-0.27,-0.48,
2405,-0.26,-0.495,
2406,-0.285,-0.49,
2407,-0.305,-0.485,
2408,-0.335,-0.49,
2409,-0.36,-0.475,
2410,-0.375,-0.47,
2411,-0.38,-0.455,
2412,-0.385,-0.44,
2413,-0.37,-0.44,
2414,-0.37,-0.44,
2415,-0.37,-0.445,
2416,-0.37,-0.44,
2417,-0.38,-0.435,
2418,-0.39,-0.45,
2419,-0.395,-0.465,
2420,-0.4,-0.445,
2421,-0.395,-0.45,
2422,-0.385,-0.445,
2423,-0.385,-0.44,
2424,-0.38,-0.43,
2425,-0.375,-0.43,
2426,-0.37,-0.425,
2427,-0.37,-0.43,
2428,-0.375,-0.44,
2429,-0.38,-0.45,
2430,-0.375,-0.45,
2431,-0.38,-0.45,
2432,-0.385,-0.455,
2433,-0.375,-0.45,
2434,-0.385,-0.45,
2435,-0.375,-0.445,
2436,-0.375,-0.445,
2437,-0.365,-0.43,
2438,-0.36,-0.43,
2439,-0.355,-0.43,
2440,-0.36,-0.445,
2441,-0.365,-0.44,
2442,-0.38,-0.45,
2443,-0.385,-0.46,
2444,-0.385,-0.46,
2445,-0.385,-0.455,
2446,-0.38,-0.46,
2447,-0.365,-0.445,
2448,-0.36,-0.445,
2449,-0.35,-0.455,
2450,-0.34,-0.44,
2451,-0.33,-0.445,
2452,-0.34,-0.45,
2453,-0.345,-0.46,
2454,-0.35,-0.475,
2455,-0.355,-0.485,
2456,-0.355,-0.48,
2457,-0.345,-0.48,
2458,-0.35,-0.47,
2459,-0.345,-0.48,
2460,-0.35,-0.465,
2461,-0.345,-0.46,
2462,-0.325,-0.465,
2463,-0.325,-0.46,
2464,-0.325,-0.475,
2465,-0.33,-0.475,
2466,-0.33,-0.495,
2467,-0.34,-0.5,
2468,-0.35,-0.5,
2469,-0.345,-0.5,
2470,-0.34,-0.495,
2471,-0.325,-0.495,
2472,-0.325,-0.475,
2473,-0.315,-0.475,
2474,-0.305,-0.485,
2475,-0.31,-0.48,
2476,-0.315,-0.495,
2477,-0.32,-0.505,
2478,-0.32,-0.52,
2479,-0.325,-0.525,
2480,-0.325,-0.52,
2481,-0.335,-0.52,
2482,-0.33,-0.515,
2483,-0.305,-0.51,
2484,-0.315,-0.5,
2485,-0.3,-0.495,
2486,-0.285,-0.515,
2487,-0.28,-0.525,
2488,-0.275,-0.515,
2489,-0.27,-0.53,
2490,-0.275,-0.54,
2491,-0.265,-0.555,
2492,-0.27,-0.55,
2493,-0.275,-0.545,
2494,-0.255,-0.545,
2495,-0.255,-0.535,
2496,-0.25,-0.53,
2497,-0.235,-0.515,
2498,-0.23,-0.52,
2499,-0.235,-0.535,
2500,-0.24,-0.535,
2501,-0.25,-0.53,
2502,-0.255,-0.545,
2503,-0.265,-0.535,
2504,-0.28,-0.54,
2505,-0.29,-0.52,
2506,-0.29,-0.52,
2507,-0.29,-0.52,
2508,-0.3,-0.505,
2509,-0.29,-0.49,
2510,-0.295,-0.485,
2511,-0.305,-0.485,
2512,-0.305,-0.49,
2513,-0.31,-0.49,
2514,-0.325,-0.49,
2515,-0.335,-0.485,
2516,-0.345,-0.5,
2517,-0.35,-0.485,
2518,-0.355,-0.475,
2519,-0.36,-0.475,
2520,-0.35,-0.46,
2521,-0.345,-0.45,
2522,-0.34,-0.45,
2523,-0.34,-0.45,
2524,-0.34,-0.45,
2525,-0.35,-0.465,
2526,-0.365,-0.47,
2527,-0.37,-0.475,
2528,-0.375,-0.475,
2529,-0.39,-0.465,
2530,-0.375,-0.455,
2531,-0.375,-0.465,
2532,-0.355,-0.445,
2533,-0.36,-0.45,
2534,-0.37,-0.445,
2535,-0.365,-0.445,
2536,-0.375,-0.45,
2537,-0.38,-0.46,
2538,-0.385,-0.475,
2539,-0.385,-0.47,
2540,-0.39,-0.475,
2541,-0.39,-0.465,
2542,-0.39,-0.46,
2543,-0.385,-0.445,
2544,-0.375,-0.455,
2545,-0.37,-0.44,
2546,-0.37,-0.44,
2547,-0.37,-0.445,
2548,-0.375,-0.445,
2549,-0.375,-0.45,
2550,-0.39,-0.455,
2551,-0.4,-0.465,
2552,-0.4,-0.465,
2553,-0.4,-0.465,
2554,-0.405,-0.45,
2555,-0.405,-0.44,
2556,-0.4,-0.445,
2557,-0.39,-0.435,
2558,-0.39,-0.44,
2559,-0.39,-0.435,
2560,-0.39,-0.445,
2561,-0.395,-0.455,
2562,-0.4,-0.46,
2563,-0.41,-0.46,
2564,-0.41,-0.455,
2565,-0.415,-0.46,
2566,-0.41,-0.45,
2567,-0.4,-0.445,
2568,-0.395,-0.445,
2569,-0.38,-0.44,
2570,-0.38,-0.43,
2571,-0.37,-0.44,
2572,-0.365,-0.44,
2573,-0.36,-0.45,
2574,-0.355,-0.455,
2575,-0.37,-0.465,
2576,-0.36,-0.46,
2577,-0.355,-0.45,
2578,-0.36,-0.45,
2579,-0.34,-0.445,
2580,-0.34,-0.43,
2581,-0.335,-0.425,
2582,-0.33,-0.42,
2583,-0.315,-0.43,
2584,-0.3,-0.425,
2585,-0.295,-0.45,
2586,-0.29,-0.475,
2587,-0.305,-0.475,
2588,-0.32,-0.485,
2589,-0.33,-0.49,
2590,-0.35,-0.49,
2591,-0.355,-0.485,
2592,-0.365,-0.475,
2593,-0.36,-0.465,
2594,-0.36,-0.46,
2595,-0.355,-0.47,
2596,-0.355,-0.47,
2597,-0.37,-0.47,
2598,-0.37,-0.48,
2599,-0.38,-0.48,
2600,-0.39,-0.485,
2601,-0.395,-0.48,
2602,-0.41,-0.465,
2603,-0.405,-0.45,
2604,-0.425,-0.445,
2605,-0.42,-0.43,
2606,-0.425,-0.43,
2607,-0.42,-0.425,
2608,-0.42,-0.43,
2609,-0.42,-0.44,
2610,-0.44,-0.455,
2611,-0.45,-0.46,
2612,-0.45,-0.465,
2613,-0.44,-0.44,
2614,-0.43,-0.445,
2615,-0.435,-0.435,
2616,-0.425,-0.435,
2617,-0.415,-0.43,
2618,-0.415,-0.435,
2619,-0.405,-0.45,
2620,-0.41,-0.435,
2621,-0.415,-0.445,
2622,-0.42,-0.46,
2623,-0.44,-0.46,
2624,-0.465,-0.46,
2625,-0.48,-0.45,
2626,-0.49,-0.44,
2627,-0.47,-0.445,
2628,-0.41,-0.44,
2629,-0.33,-0.455,
2630,-0.21,-0.485,
2631,-0.055,-0.535,
2632,0.125,-0.59,
2633,0.325,-0.645,
2634,0.51,-0.67,
2635,0.68,-0.71,
2636,0.755,-0.705,N
2637,0.74,-0.675,
2638,0.6,-0.63,
2639,0.375,-0.575,
2640,0.125,-0.5,
2641,-0.12,-0.44,
2642,-0.3,-0.385,
2643,-0.4,-0.38,
2644,-0.425,-0.385,
2645,-0.39,-0.42,
2646,-0.34,-0.45,
2647,-0.32,-0.485,
2648,-0.305,-0.495,
2649,-0.31,-0.505,
2650,-0.325,-0.495,
2651,-0.34,-0.485,
2652,-0.365,-0.455,
2653,-0.37,-0.455,
2654,-0.38,-0.44,
2655,-0.385,-0.45,
2656,-0.405,-0.46,
2657,-0.395,-0.44,
2658,-0.395,-0.46,
2659,-0.4,-0.455,
2660,-0.42,-0.46,
2661,-0.42,-0.45,
2662,-0.42,-0.455,
2663,-0.41,-0.445,
2664,-0.405,-0.43,
2665,-0.405,-0.43,
2666,-0.395,-0.435,
2667,-0.39,-0.44,
2668,-0.395,-0.45,
2669,-0.405,-0.44,
2670,-0.4,-0.45,
2671,-0.405,-0.45,
2672,-0.405,-0.465,
2673,-0.41,-0.45,
2674,-0.405,-0.455,
2675,-0.4,-0.455,
2676,-0.4,-0.44,
2677,-0.4,-0.435,
2678,-0.4,-0.44,
2679,-0.385,-0.435,
2680,-0.385,-0.435,
2681,-0.39,-0.45,
2682,-0.39,-0.46,
2683,-0.4,-0.46,
2684,-0.395,-0.465,
2685,-0.41,-0.465,
2686,-0.4,-0.455,
2687,-0.395,-0.44,
2688,-0.385,-0.445,
2689,-0.38,-0.43,
2690,-0.385,-0.44,
2691,-0.365,-0.45,
2692,-0.36,-0.46,
2693,-0.365,-0.465,
2694,-0.38,-0.46,
2695,-0.38,-0.465,
2696,-0.39,-0.48,
2697,-0.38,-0.475,
2698,-0.38,-0.48,
2699,-0.375,-0.465,
2700,-0.37,-0.46,
2701,-0.355,-0.45,
2702,-0.36,-0.46,
2703,-0.355,-0.465,
2704,-0.355,-0.46,
2705,-0.36,-0.47,
2706,-0.365,-0.475,
2707,-0.37,-0.485,
2708,-0.37,-0.495,
2709,-0.38,-0.485,
2710,-0.38,-0.485,
2711,-0.375,-0.475,
2712,-0.38,-0.475,
2713,-0.36,-0.47,
2714,-0.365,-0.47,
2715,-0.38,-0.475,
2716,-0.37,-0.47,
2717,-0.38,-0.48,
2718,-0.39,-0.495,
2719,-0.395,-0.51,
2720,-0.395,-0.5,
2721,-0.4,-0.505,
2722,-0.385,-0.505,
2723,-0.375,-0.5,
2724,-0.365,-0.49,
2725,-0.355,-0.48,
2726,-0.345,-0.485,
2727,-0.34,-0.5,
2728,-0.335,-0.49,
2729,-0.335,-0.495,
2730,-0.335,-0.5,
2731,-0.345,-0.52,
2732,-0.345,-0.525,
2733,-0.345,-0.525,
2734,-0.34,-0.52,
2735,-0.325,-0.52,
2736,-0.295,-0.515,
2737,-0.29,-0.525,
2738,-0.28,-0.52,
2739,-0.27,-0.52,
2740,-0.26,-0.525,
2741,-0.26,-0.535,
2742,-0.265,-0.535,
2743,-0.265,-0.56,
2744,-0.27,-0.55,
2745,-0.275,-0.535,
2746,-0.275,-0.53,
2747,-0.275,-0.525,
2748,-0.285,-0.52,
2749,-0.28,-0.51,
2750,-0.28,-0.5,
2751,-0.28,-0.51,
2752,-0.29,-0.5,
2753,-0.3,-0.505,
2754,-0.31,-0.515,
2755,-0.33,-0.51,
2756,-0.345,-0.505,
2757,-0.345,-0.5,
2758,-0.355,-0.495,
2759,-0.35,-0.49,
2760,-0.345,-0.48,
2761,-0.35,-0.465,
2762,-0.35,-0.46,
2763,-0.345,-0.46,
2764,-0.355,-0.465,
2765,-0.37,-0.475,
2766,-0.38,-0.48,
2767,-0.395,-0.47,
2768,-0.385,-0.485,
2769,-0.39,-0.485,
2770,-0.405,-0.47,
2771,-0.39,-0.475,
2772,-0.39,-0.455,
2773,-0.385,-0.46,
2774,-0.37,-0.445,
2775,-0.38,-0.465,
2776,-0.375,-0.45,
2777,-0.38,-0.46,
2778,-0.39,-0.47,
2779,-0.405,-0.475,
2780,-0.39,-0.475,
2781,-0.405,-0.47,
2782,-0.395,-0.46,
2783,-0.395,-0.455,
2784,-0.4,-0.45,
2785,-0.39,-0.455,
2786,-0.39,-0.44,
2787,-0.4,-0.45,
2788,-0.39,-0.45,
2789,-0.405,-0.465,
2790,-0.405,-0.475,
2791,-0.415,-0.46,
2792,-0.42,-0.465,
2793,-0.425,-0.455,
2794,-0.415,-0.465,
2795,-0.415,-0.45,
2796,-0.415,-0.455,
2797,-0.405,-0.44,
2798,-0.4,-0.435,
2799,-0.4,-0.435,
2800,-0.405,-0.45,
2801,-0.405,-0.45,
2802,-0.415,-0.46,
2803,-0.42,-0.465,
2804,-0.425,-0.47,
2805,-0.42,-0.465,
2806,-0.42,-0.465,
2807,-0.42,-0.46,
2808,-0.405,-0.445,
2809,-0.4,-0.435,
2810,-0.395,-0.435,
2811,-0.39,-0.445,
2812,-0.39,-0.45,
2813,-0.385,-0.455,
2814,-0.4,-0.455,
2815,-0.39,-0.46,
2816,-0.395,-0.46,
2817,-0.385,-0.445,
2818,-0.37,-0.445,
2819,-0.375,-0.44,
2820,-0.36,-0.43,
2821,-0.355,-0.415,
2822,-0.34,-0.42,
2823,-0.32,-0.425,
2824,-0.305,-0.43,
2825,-0.3,-0.46,
2826,-0.305,-0.455,
2827,-0.315,-0.485,
2828,-0.335,-0.495,
2829,-0.36,-0.495,
2830,-0.375,-0.495,
2831,-0.385,-0.485,
2832,-0.39,-0.475,
2833,-0.39,-0.47,
2834,-0.395,-0.465,
2835,-0.39,-0.47,
2836,-0.39,-0.475,
2837,-0.385,-0.48,
2838,-0.39,-0.49,
2839,-0.405,-0.48,
2840,-0.405,-0.485,
2841,-0.425,-0.47,
2842,-0.45,-0.455,
2843,-0.445,-0.455,
2844,-0.455,-0.44,
2845,-0.445,-0.435,
2846,-0.45,-0.43,
2847,-0.445,-0.44,
2848,-0.445,-0.43,
2849,-0.44,-0.445,
2850,-0.45,-0.45,
2851,-0.45,-0.46,
2852,-0.465,-0.45,
2853,-0.455,-0.455,
2854,-0.455,-0.445,
2855,-0.445,-0.445,
2856,-0.44,-0.435,
2857,-0.435,-0.425,
2858,-0.435,-0.425,
2859,-0.43,-0.435,
2860,-0.43,-0.44,
2861,-0.455,-0.46,
2862,-0.475,-0.455,
2863,-0.5,-0.455,
2864,-0.51,-0.46,
2865,-0.5,-0.45,
2866,-0.445,-0.47,
2867,-0.35,-0.47,
2868,-0.205,-0.51,
2869,-0.025,-0.55,
2870,0.2,-0.595,
2871,0.45,-0.675,
2872,0.695,-0.7,
2873,0.85,-0.72,N
2874,0.885,-0.705,
2875,0.745,-0.66,
2876,0.485,-0.59,
2877,0.165,-0.5,
2878,-0.13,-0.43,
2879,-0.335,-0.37,
2880,-0.435,-0.345,
2881,-0.44,-0.345,
2882,-0.405,-0.375,
2883,-0.34,-0.425,
2884,-0.305,-0.46,
2885,-0.31,-0.49,
2886,-0.32,-0.495,
2887,-0.34,-0.495,
2888,-0.365,-0.485,
2889,-0.4,-0.47,
2890,-0.425,-0.465,
2891,-0.435,-0.445,
2892,-0.43,-0.445,
2893,-0.415,-0.445,
2894,-0.405,-0.435,
2895,-0.405,-0.445,
2896,-0.4,-0.435,
2897,-0.405,-0.435,
2898,-0.41,-0.445,
2899,-0.42,-0.455,
2900,-0.435,-0.45,
2901,-0.435,-0.46,
2902,-0.445,-0.45,
2903,-0.43,-0.435,
2904,-0.425,-0.425,
2905,-0.415,-0.42,
2906,-0.405,-0.425,
2907,-0.41,-0.43,
2908,-0.415,-0.43,
2909,-0.4,-0.43,
2910,-0.42,-0.45,
2911,-0.42,-0.46,
2912,-0.43,-0.46,
2913,-0.43,-0.445,
2914,-0.435,-0.445,
2915,-0.435,-0.44,
2916,-0.425,-0.44,
2917,-0.415,-0.43,
2918,-0.405,-0.43,
2919,-0.4,-0.43,
2920,-0.39,-0.44,
2921,-0.385,-0.44,
2922,-0.38,-0.445,
2923,-0.395,-0.455,
2924,-0.4,-0.46,
2925,-0.41,-0.45,
2926,-0.405,-0.45,
2927,-0.405,-0.45,
2928,-0.385,-0.44,
2929,-0.375,-0.435,
2930,-0.37,-0.425,
2931,-0.38,-0.44,
2932,-0.39,-0.44,
2933,-0.39,-0.455,
2934,-0.405,-0.47,
2935,-0.405,-0.475,
2936,-0.415,-0.47,
2937,-0.42,-0.48,
2938,-0.41,-0.47,
2939,-0.4,-0.465,
2940,-0.38,-0.47,
2941,-0.38,-0.45,
2942,-0.37,-0.45,
2943,-0.375,-0.455,
2944,-0.385,-0.475,
2945,-0.38,-0.46,
2946,-0.39,-0.485,
2947,-0.405,-0.49,
2948,-0.41,-0.5,
2949,-0.405,-0.485,
2950,-0.405,-0.485,
2951,-0.405,-0.48,
2952,-0.39,-0.475,
2953,-0.375,-0.475,
2954,-0.365,-0.46,
2955,-0.36,-0.485,
2956,-0.365,-0.475,
2957,-0.36,-0.485,
2958,-0.375,-0.495,
2959,-0.375,-0.505,
2960,-0.38,-0.495,
2961,-0.39,-0.505,
2962,-0.395,-0.51,
2963,-0.39,-0.495,
2964,-0.38,-0.485,
2965,-0.36,-0.49,
2966,-0.34,-0.49,
2967,-0.335,-0.49,
2968,-0.325,-0.5,
2969,-0.325,-0.505,
2970,-0.315,-0.515,
2971,-0.315,-0.525,
2972,-0.31,-0.54,
2973,-0.31,-0.54,
2974,-0.305,-0.53,
2975,-0.295,-0.53,
2976,-0.29,-0.515,
2977,-0.285,-0.51,
2978,-0.285,-0.505,
2979,-0.28,-0.5,
2980,-0.27,-0.515,
2981,-0.285,-0.515,
2982,-0.29,-0.515,
2983,-0.305,-0.53,
2984,-0.305,-0.52,
2985,-0.31,-0.52,
2986,-0.32,-0.505,
2987,-0.32,-0.5,
2988,-0.325,-0.49,
2989,-0.33,-0.485,
2990,-0.32,-0.47,
2991,-0.335,-0.485,
2992,-0.335,-0.47,
2993,-0.35,-0.49,
2994,-0.35,-0.49,
2995,-0.365,-0.49,
2996,-0.36,-0.485,
2997,-0.375,-0.48,
2998,-0.38,-0.475,
2999,-0.375,-0.475,
3000,-0.375,-0.45,
3001,-0.375,-0.44,
3002,-0.365,-0.435,
3003,-0.37,-0.445,
3004,-0.375,-0.44,
3005,-0.375,-0.455,
3006,-0.385,-0.455,
3007,-0.39,-0.46,
3008,-0.41,-0.47,
3009,-0.42,-0.46,
3010,-0.41,-0.45,
3011,-0.4,-0.44,
3012,-0.4,-0.45,
3013,-0.39,-0.425,
3014,-0.37,-0.425,
3015,-0.37,-0.425,
3016,-0.375,-0.43,
3017,-0.39,-0.43,
3018,-0.4,-0.43,
3019,-0.41,-0.455,
3020,-0.415,-0.445,
3021,-0.415,-0.435,
3022,-0.415,-0.44,
3023,-0.415,-0.425,
3024,-0.405,-0.425,
3025,-0.405,-0.415,
3026,-0.395,-0.415,
3027,-0.395,-0.42,
3028,-0.385,-0.415,
3029,-0.4,-0.425,
3030,-0.395,-0.435,
3031,-0.405,-0.44,
3032,-0.415,-0.45,
3033,-0.425,-0.445,
3034,-0.42,-0.43,
3035,-0.425,-0.43,
3036,-0.425,-0.425,
3037,-0.43,-0.415,
3038,-0.42,-0.415,
3039,-0.42,-0.415,
3040,-0.42,-0.415,
3041,-0.42,-0.425,
3042,-0.425,-0.435,
3043,-0.425,-0.44,
3044,-0.43,-0.445,
3045,-0.44,-0.435,
3046,-0.45,-0.435,
3047,-0.445,-0.43,
3048,-0.445,-0.415,
3049,-0.44,-0.405,
3050,-0.43,-0.41,
3051,-0.405,-0.415,
3052,-0.39,-0.41,
3053,-0.37,-0.415,
3054,-0.365,-0.42,
3055,-0.365,-0.425,
3056,-0.365,-0.42,
3057,-0.38,-0.415,
3058,-0.39,-0.41,
3059,-0.385,-0.41,
3060,-0.39,-0.395,
3061,-0.365,-0.395,
3062,-0.355,-0.385,
3063,-0.345,-0.39,
3064,-0.335,-0.41,
3065,-0.34,-0.42,
3066,-0.345,-0.435,
3067,-0.36,-0.455,
3068,-0.36,-0.46,
3069,-0.38,-0.455,
3070,-0.375,-0.46,
3071,-0.375,-0.45,
3072,-0.385,-0.44,
3073,-0.385,-0.43,
3074,-0.39,-0.425,
3075,-0.395,-0.43,
3076,-0.4,-0.435,
3077,-0.4,-0.44,
3078,-0.41,-0.435,
3079,-0.415,-0.445,
3080,-0.445,-0.44,
3081,-0.455,-0.44,
3082,-0.465,-0.42,
3083,-0.47,-0.415,
3084,-0.47,-0.41,
3085,-0.455,-0.4,
3086,-0.445,-0.395,
3087,-0.45,-0.415,
3088,-0.44,-0.4,
3089,-0.45,-0.4,
3090,-0.45,-0.405,
3091,-0.47,-0.42,
3092,-0.465,-0.425,
3093,-0.47,-0.41,
3094,-0.465,-0.425,
3095,-0.46,-0.415,
3096,-0.46,-0.42,
3097,-0.455,-0.405,
3098,-0.45,-0.4,
3099,-0.46,-0.4,
3100,-0.46,-0.4,
3101,-0.49,-0.415,
3102,-0.52,-0.42,
3103,-0.535,-0.43,
3104,-0.52,-0.42,
3105,-0.48,-0.43,
3106,-0.38,-0.45,
3107,-0.25,-0.47,
3108,-0.065,-0.495,
3109,0.15,-0.54,
3110,0.39,-0.575,
3111,0.63,-0.625,
3112,0.825,-0.63,
3113,0.93,-0.625,N
3114,0.885,-0.6,
3115,0.7,-0.555,
3116,0.41,-0.485,
3117,0.065,-0.42,
3118,-0.225,-0.375,
3119,-0.425,-0.33,
3120,-0.5,-0.3,
3121,-0.5,-0.3,
3122,-0.435,-0.325,
3123,-0.39,-0.36,
3124,-0.35,-0.4,
3125,-0.335,-0.43,
3126,-0.36,-0.445,
3127,-0.37,-0.45,
3128,-0.395,-0.46,
3129,-0.41,-0.45,
3130,-0.43,-0.425,
3131,-0.435,-0.43,
3132,-0.44,-0.425,
3133,-0.425,-0.405,
3134,-0.4,-0.405,
3135,-0.41,-0.415,
3136,-0.41,-0.41,
3137,-0.41,-0.42,
3138,-0.42,-0.425,
3139,-0.435,-0.43,
3140,-0.445,-0.43,
3141,-0.45,-0.43,
3142,-0.455,-0.425,
3143,-0.455,-0.425,
3144,-0.455,-0.41,
3145,-0.455,-0.415,
3146,-0.43,-0.4,
3147,-0.435,-0.41,
3148,-0.435,-0.405,
3149,-0.425,-0.41,
3150,-0.42,-0.415,
3151,-0.43,-0.43,
3152,-0.44,-0.45,
3153,-0.44,-0.43,
3154,-0.435,-0.435,
3155,-0.425,-0.425,
3156,-0.425,-0.42,
3157,-0.42,-0.42,
3158,-0.405,-0.41,
3159,-0.41,-0.425,
3160,-0.405,-0.415,
3161,-0.395,-0.42,
3162,-0.4,-0.43,
3163,-0.4,-0.43,
3164,-0.41,-0.445,
3165,-0.42,-0.44,
3166,-0.42,-0.44,
3167,-0.405,-0.42,
3168,-0.41,-0.435,
3169,-0.395,-0.42,
3170,-0.385,-0.415,
3171,-0.395,-0.43,
3172,-0.385,-0.425,
3173,-0.39,-0.425,
3174,-0.395,-0.43,
3175,-0.39,-0.445,
3176,-0.4,-0.45,
3177,-0.405,-0.455,
3178,-0.405,-0.455,
3179,-0.4,-0.445,
3180,-0.395,-0.445,
3181,-0.375,-0.435,
3182,-0.375,-0.425,
3183,-0.37,-0.44,
3184,-0.37,-0.44,
3185,-0.38,-0.445,
3186,-0.39,-0.455,
3187,-0.4,-0.47,
3188,-0.405,-0.47,
3189,-0.4,-0.475,
3190,-0.4,-0.48,
3191,-0.39,-0.465,
3192,-0.4,-0.46,
3193,-0.385,-0.455,
3194,-0.385,-0.455,
3195,-0.38,-0.455,
3196,-0.375,-0.46,
3197,-0.39,-0.47,
3198,-0.385,-0.49,
3199,-0.4,-0.485,
3200,-0.4,-0.495,
3201,-0.4,-0.495,
3202,-0.41,-0.49,
3203,-0.395,-0.495,
3204,-0.39,-0.48,
3205,-0.38,-0.485,
3206,-0.365,-0.47,
3207,-0.36,-0.49,
3208,-0.345,-0.485,
3209,-0.345,-0.5,
3210,-0.335,-0.505,
3211,-0.335,-0.515,
3212,-0.325,-0.51,
3213,-0.32,-0.515,
3214,-0.325,-0.515,
3215,-0.325,-0.5,
3216,-0.305,-0.495,
3217,-0.305,-0.5,
3218,-0.3,-0.48,
3219,-0.285,-0.485,
3220,-0.285,-0.49,
3221,-0.29,-0.49,
3222,-0.305,-0.5,
3223,-0.32,-0.5,
3224,-0.33,-0.505,
3225,-0.33,-0.495,
3226,-0.35,-0.485,
3227,-0.35,-0.475,
3228,-0.335,-0.465,
3229,-0.33,-0.455,
3230,-0.33,-0.46,
3231,-0.34,-0.46,
3232,-0.34,-0.445,
3233,-0.355,-0.46,
3234,-0.37,-0.465,
3235,-0.38,-0.465,
3236,-0.385,-0.47,
3237,-0.39,-0.465,
3238,-0.395,-0.455,
3239,-0.385,-0.45,
3240,-0.385,-0.435,
3241,-0.39,-0.435,
3242,-0.38,-0.42,
3243,-0.385,-0.425,
3244,-0.385,-0.42,
3245,-0.38,-0.42,
3246,-0.385,-0.43,
3247,-0.4,-0.43,
3248,-0.4,-0.44,
3249,-0.405,-0.445,
3250,-0.405,-0.435,
3251,-0.395,-0.425,
3252,-0.39,-0.415,
3253,-0.395,-0.415,
3254,-0.38,-0.4,
3255,-0.385,-0.425,
3256,-0.39,-0.43,
3257,-0.385,-0.43,
3258,-0.405,-0.425,
3259,-0.405,-0.43,
3260,-0.415,-0.435,
3261,-0.41,-0.43,
3262,-0.42,-0.425,
3263,-0.415,-0.415,
3264,-0.415,-0.41,
3265,-0.42,-0.405,
3266,-0.4,-0.41,
3267,-0.405,-0.405,
3268,-0.395,-0.405,
3269,-0.4,-0.41,
3270,-0.415,-0.415,
3271,-0.415,-0.43,
3272,-0.425,-0.425,
3273,-0.425,-0.415,
3274,-0.425,-0.425,
3275,-0.425,-0.415,
3276,-0.415,-0.41,
3277,-0.415,-0.405,
3278,-0.41,-0.385,
3279,-0.41,-0.395,
3280,-0.41,-0.405,
3281,-0.41,-0.405,
3282,-0.415,-0.42,
3283,-0.42,-0.415,
3284,-0.425,-0.42,
3285,-0.43,-0.42,
3286,-0.435,-0.42,
3287,-0.425,-0.4,
3288,-0.425,-0.4,
3289,-0.405,-0.395,
3290,-0.4,-0.39,
3291,-0.395,-0.395,
3292,-0.375,-0.39,
3293,-0.375,-0.39,
3294,-0.365,-0.405,
3295,-0.365,-0.4,
3296,-0.36,-0.4,
3297,-0.37,-0.41,
3298,-0.375,-0.4,
3299,-0.36,-0.395,
3300,-0.36,-0.38,
3301,-0.355,-0.375,
3302,-0.33,-0.38,
3303,-0.315,-0.385,
3304,-0.305,-0.4,
3305,-0.305,-0.415,
3306,-0.31,-0.425,
3307,-0.32,-0.445,
3308,-0.345,-0.45,
3309,-0.355,-0.455,
3310,-0.365,-0.45,
3311,-0.36,-0.435,
3312,-0.365,-0.435,
3313,-0.36,-0.415,
3314,-0.355,-0.42,
3315,-0.35,-0.435,
3316,-0.36,-0.42,
3317,-0.36,-0.425,
3318,-0.375,-0.43,
3319,-0.39,-0.44,
3320,-0.4,-0.435,
3321,-0.415,-0.43,
3322,-0.43,-0.425,
3323,-0.435,-0.41,
3324,-0.445,-0.395,
3325,-0.43,-0.4,
3326,-0.435,-0.395,
3327,-0.43,-0.39,
3328,-0.435,-0.385,
3329,-0.415,-0.395,
3330,-0.425,-0.395,
3331,-0.43,-0.415,
3332,-0.435,-0.42,
3333,-0.435,-0.415,
3334,-0.445,-0.415,
3335,-0.435,-0.41,
3336,-0.425,-0.395,
3337,-0.42,-0.39,
3338,-0.41,-0.385,
3339,-0.405,-0.395,
3340,-0.415,-0.395,
3341,-0.425,-0.4,
3342,-0.445,-0.405,
3343,-0.48,-0.41,
3344,-0.5,-0.415,
3345,-0.5,-0.405,
3346,-0.45,-0.415,
3347,-0.355,-0.425,
3348,-0.23,-0.45,
3349,-0.04,-0.48,
3350,0.185,-0.53,
3351,0.42,-0.585,
3352,0.655,-0.6,
3353,0.835,-0.615,
3354,0.9,-0.61,N
3355,0.815,-0.58,
3356,0.59,-0.53,
3357,0.275,-0.475,
3358,-0.045,-0.42,
3359,-0.295,-0.375,
3360,-0.44,-0.335,
3361,-0.47,-0.34,
3362,-0.415,-0.355,
3363,-0.355,-0.4,
3364,-0.295,-0.425,
3365,-0.27,-0.45,
3366,-0.27,-0.46,
3367,-0.29,-0.475,
3368,-0.31,-0.48,
3369,-0.335,-0.445,
3370,-0.36,-0.43,
3371,-0.375,-0.44,
3372,-0.375,-0.42,
3373,-0.37,-0.42,
3374,-0.365,-0.405,
3375,-0.355,-0.41,
3376,-0.365,-0.425,
3377,-0.37,-0.415,
3378,-0.37,-0.41,
3379,-0.385,-0.43,
3380,-0.39,-0.435,
3381,-0.395,-0.425,
3382,-0.405,-0.435,
3383,-0.4,-0.415,
3384,-0.395,-0.41,
3385,-0.39,-0.405,
3386,-0.365,-0.395,
3387,-0.365,-0.4,
3388,-0.37,-0.42,
3389,-0.37,-0.415,
3390,-0.37,-0.425,
3391,-0.385,-0.43,
3392,-0.385,-0.44,
3393,-0.39,-0.435,
3394,-0.39,-0.43,
3395,-0.385,-0.425,
3396,-0.37,-0.415,
3397,-0.36,-0.41,
3398,-0.35,-0.41,
3399,-0.35,-0.405,
3400,-0.35,-0.415,
3401,-0.35,-0.415,
3402,-0.355,-0.435,
3403,-0.355,-0.435,
3404,-0.375,-0.45,
3405,-0.36,-0.44,
3406,-0.365,-0.44,
3407,-0.37,-0.44,
3408,-0.36,-0.42,
3409,-0.345,-0.425,
3410,-0.34,-0.415,
3411,-0.345,-0.435,
3412,-0.34,-0.435,
3413,-0.345,-0.445,
3414,-0.34,-0.45,
3415,-0.35,-0.46,
3416,-0.37,-0.47,
3417,-0.355,-0.465,
3418,-0.36,-0.46,
3419,-0.36,-0.46,
3420,-0.355,-0.455,
3421,-0.355,-0.445,
3422,-0.345,-0.445,
3423,-0.345,-0.45,
3424,-0.335,-0.445,
3425,-0.34,-0.455,
3426,-0.345,-0.47,
3427,-0.36,-0.47,
3428,-0.355,-0.485,
3429,-0.365,-0.485,
3430,-0.365,-0.475,
3431,-0.36,-0.475,
3432,-0.355,-0.465,
3433,-0.345,-0.465,
3434,-0.335,-0.465,
3435,-0.335,-0.455,
3436,-0.34,-0.47,
3437,-0.345,-0.48,
3438,-0.35,-0.49,
3439,-0.36,-0.49,
3440,-0.345,-0.5,
3441,-0.35,-0.5,
3442,-0.355,-0.505,
3443,-0.35,-0.495,
3444,-0.33,-0.49,
3445,-0.32,-0.485,
3446,-0.305,-0.475,
3447,-0.29,-0.485,
3448,-0.275,-0.495,
3449,-0.27,-0.495,
3450,-0.265,-0.51,
3451,-0.26,-0.52,
3452,-0.27,-0.525,
3453,-0.27,-0.525,
3454,-0.265,-0.515,
3455,-0.25,-0.525,
3456,-0.245,-0.515,
3457,-0.245,-0.5,
3458,-0.245,-0.5,
3459,-0.235,-0.49,
3460,-0.235,-0.49,
3461,-0.245,-0.5,
3462,-0.26,-0.5,
3463,-0.27,-0.51,
3464,-0.285,-0.51,
3465,-0.295,-0.5,
3466,-0.3,-0.495,
3467,-0.3,-0.48,
3468,-0.3,-0.485,
3469,-0.3,-0.48,
3470,-0.3,-0.465,
3471,-0.3,-0.465,
3472,-0.31,-0.465,
3473,-0.305,-0.465,
3474,-0.325,-0.48,
3475,-0.33,-0.485,
3476,-0.345,-0.475,
3477,-0.35,-0.475,
3478,-0.35,-0.47,
3479,-0.355,-0.465,
3480,-0.345,-0.45,
3481,-0.345,-0.455,
3482,-0.34,-0.445,
3483,-0.335,-0.45,
3484,-0.345,-0.445,
3485,-0.35,-0.44,
3486,-0.36,-0.45,
3487,-0.355,-0.465,
3488,-0.365,-0.465,
3489,-0.37,-0.465,
3490,-0.375,-0.47,
3491,-0.365,-0.455,
3492,-0.365,-0.445,
3493,-0.365,-0.435,
3494,-0.36,-0.43,
3495,-0.35,-0.44,
3496,-0.355,-0.44,
3497,-0.36,-0.435,
3498,-0.365,-0.445,
3499,-0.37,-0.445,
3500,-0.385,-0.465,
3501,-0.385,-0.455,
3502,-0.395,-0.455,
3503,-0.385,-0.44,
3504,-0.385,-0.435,
3505,-0.365,-0.43,
3506,-0.375,-0.42,
3507,-0.365,-0.43,
3508,-0.375,-0.435,
3509,-0.38,-0.44,
3510,-0.38,-0.45,
3511,-0.385,-0.455,
3512,-0.395,-0.455,
3513,-0.395,-0.455,
3514,-0.395,-0.45,
3515,-0.4,-0.445,
3516,-0.395,-0.445,
3517,-0.395,-0.435,
3518,-0.385,-0.425,
3519,-0.38,-0.425,
3520,-0.385,-0.435,
3521,-0.375,-0.44,
3522,-0.4,-0.445,
3523,-0.41,-0.46,
3524,-0.41,-0.455,
3525,-0.405,-0.45,
3526,-0.415,-0.44,
3527,-0.39,-0.44,
3528,-0.385,-0.44,
3529,-0.37,-0.42,
3530,-0.355,-0.42,
3531,-0.345,-0.42,
3532,-0.34,-0.41,
3533,-0.335,-0.415,
3534,-0.325,-0.425,
3535,-0.335,-0.425,
3536,-0.34,-0.43,
3537,-0.345,-0.43,
3538,-0.34,-0.435,
3539,-0.335,-0.43,
3540,-0.3,-0.43,
3541,-0.295,-0.425,
3542,-0.27,-0.43,
3543,-0.275,-0.435,
3544,-0.27,-0.455,
3545,-0.285,-0.465,
3546,-0.31,-0.48,
3547,-0.33,-0.495,
3548,-0.345,-0.495,
3549,-0.36,-0.5,
3550,-0.36,-0.475,
3551,-0.36,-0.48,
3552,-0.35,-0.465,
3553,-0.34,-0.46,
3554,-0.345,-0.45,
3555,-0.35,-0.45,
3556,-0.345,-0.46,
3557,-0.355,-0.46,
3558,-0.37,-0.475,
3559,-0.39,-0.47,
3560,-0.415,-0.475,
3561,-0.43,-0.465,
3562,-0.44,-0.45,
3563,-0.45,-0.45,
3564,-0.445,-0.445,
3565,-0.435,-0.43,
3566,-0.415,-0.435,
3567,-0.42,-0.435,
3568,-0.415,-0.435,
3569,-0.42,-0.43,
3570,-0.425,-0.445,
3571,-0.42,-0.45,
3572,-0.42,-0.46,
3573,-0.425,-0.45,
3574,-0.43,-0.455,
3575,-0.42,-0.445,
3576,-0.42,-0.44,
3577,-0.41,-0.425,
3578,-0.405,-0.425,
3579,-0.405,-0.44,
3580,-0.41,-0.43,
3581,-0.42,-0.44,
3582,-0.445,-0.43,
3583,-0.475,-0.44,
3584,-0.485,-0.44,
3585,-0.485,-0.445,
3586,-0.44,-0.45,
3587,-0.35,-0.45,
3588,-0.215,-0.49,
3589,-0.08,-0.52,
3590,0.105,-0.55,
3591,0.295,-0.605,
3592,0.515,-0.65,
3593,0.695,-0.67,
3594,0.83,-0.685,N
3595,0.85,-0.67,
3596,0.745,-0.635,
3597,0.53,-0.6,
3598,0.245,-0.54,
3599,-0.04,-0.475,
3600,-0.26,-0.425,
3601,-0.38,-0.39,
3602,-0.415,-0.375,
3603,-0.38,-0.405,
3604,-0.32,-0.44,
3605,-0.28,-0.48,
3606,-0.27,-0.485,
3607,-0.265,-0.51,
3608,-0.29,-0.505,
3609,-0.305,-0.51,
3610,-0.345,-0.5,
3611,-0.36,-0.47,
3612,-0.37,-0.465,
3613,-0.37,-0.455,
3614,-0.37,-0.445,
3615,-0.375,-0.45,
3616,-0.365,-0.455,
3617,-0.37,-0.45,
3618,-0.38,-0.465,
3619,-0.38,-0.45,
3620,-0.4,-0.46,
3621,-0.4,-0.465,
3622,-0.405,-0.465,
3623,-0.4,-0.455,
3624,-0.405,-0.445,
3625,-0.395,-0.43,
3626,-0.4,-0.43,
3627,-0.39,-0.435,
3628,-0.395,-0.44,
3629,-0.385,-0.45,
3630,-0.385,-0.46,
3631,-0.39,-0.465,
3632,-0.385,-0.46,
3633,-0.39,-0.465,
3634,-0.39,-0.46,
3635,-0.395,-0.455,
3636,-0.385,-0.455,
3637,-0.375,-0.44,
3638,-0.37,-0.445,
3639,-0.37,-0.445,
3640,-0.36,-0.445,
3641,-0.36,-0.445,
3642,-0.365,-0.46,
3643,-0.37,-0.465,
3644,-0.38,-0.47,
3645,-0.375,-0.475,
3646,-0.375,-0.47,
3647,-0.365,-0.46,
3648,-0.375,-0.45,
3649,-0.37,-0.45,
3650,-0.36,-0.455,
3651,-0.34,-0.455,
3652,-0.335,-0.465,
3653,-0.335,-0.47,
3654,-0.34,-0.47,
3655,-0.345,-0.485,
3656,-0.35,-0.48,
3657,-0.355,-0.485,
3658,-0.36,-0.49,
3659,-0.35,-0.485,
3660,-0.345,-0.475,
3661,-0.345,-0.475,
3662,-0.34,-0.46,
3663,-0.325,-0.46,
3664,-0.325,-0.475,
3665,-0.33,-0.485,
3666,-0.335,-0.495,
3667,-0.345,-0.495,
3668,-0.345,-0.5,
3669,-0.35,-0.505,
3670,-0.35,-0.495,
3671,-0.34,-0.5,
3672,-0.335,-0.49,
3673,-0.33,-0.49,
3674,-0.315,-0.48,
3675,-0.325,-0.49,
3676,-0.32,-0.49,
3677,-0.315,-0.5,
3678,-0.33,-0.505,
3679,-0.335,-0.51,
3680,-0.33,-0.525,
3681,-0.325,-0.525,
3682,-0.335,-0.52,
3683,-0.33,-0.51,
3684,-0.32,-0.515,
3685,-0.33,-0.5,
3686,-0.315,-0.5,
3687,-0.3,-0.5,
3688,-0.3,-0.515,
3689,-0.3,-0.52,
3690,-0.29,-0.53,
3691,-0.29,-0.535,
3692,-0.27,-0.54,
3693,-0.265,-0.56,
3694,-0.27,-0.545,
3695,-0.26,-0.545,
3696,-0.245,-0.545,
3697,-0.24,-0.535,
3698,-0.235,-0.53,
3699,-0.215,-0.53,
3700,-0.21,-0.53,
3701,-0.22,-0.54,
3702,-0.22,-0.545,
3703,-0.235,-0.55,
3704,-0.235,-0.545,
3705,-0.255,-0.545,
3706,-0.26,-0.545,
3707,-0.26,-0.535,
3708,-0.26,-0.535,
3709,-0.26,-0.515,
3710,-0.265,-0.495,
3711,-0.26,-0.495,
3712,-0.265,-0.495,
3713,-0.27,-0.5,
3714,-0.285,-0.505,
3715,-0.29,-0.51,
3716,-0.3,-0.51,
3717,-0.31,-0.5,
3718,-0.325,-0.495,
3719,-0.325,-0.495,
3720,-0.32,-0.485,
3721,-0.32,-0.47,
3722,-0.31,-0.465,
3723,-0.31,-0.46,
3724,-0.31,-0.465,
3725,-0.315,-0.475,
3726,-0.32,-0.47,
3727,-0.33,-0.485,
3728,-0.33,-0.49,
3729,-0.34,-0.48,
3730,-0.335,-0.48,
3731,-0.345,-0.475,
3732,-0.335,-0.475,
3733,-0.335,-0.46,
3734,-0.325,-0.455,
3735,-0.32,-0.46,
3736,-0.32,-0.445,
3737,-0.33,-0.46,
3738,-0.33,-0.46,
3739,-0.34,-0.475,
3740,-0.35,-0.48,
3741,-0.35,-0.48,
3742,-0.355,-0.465,
3743,-0.345,-0.465,
3744,-0.345,-0.45,
3745,-0.35,-0.45,
3746,-0.335,-0.445,
3747,-0.34,-0.44,
3748,-0.34,-0.445,
3749,-0.34,-0.46,
3750,-0.355,-0.46,
3751,-0.36,-0.48,
3752,-0.37,-0.475,
3753,-0.375,-0.47,
3754,-0.38,-0.465,
3755,-0.375,-0.47,
3756,-0.365,-0.455,
3757,-0.37,-0.45,
3758,-0.36,-0.44,
3759,-0.36,-0.44,
3760,-0.36,-0.44,
3761,-0.36,-0.46,
3762,-0.365,-0.46,
3763,-0.375,-0.455,
3764,-0.385,-0.47,
3765,-0.39,-0.47,
3766,-0.39,-0.465,
3767,-0.385,-0.46,
3768,-0.375,-0.455,
3769,-0.38,-0.445,
3770,-0.36,-0.44,
3771,-0.365,-0.435,
3772,-0.365,-0.43,
3773,-0.35,-0.445,
3774,-0.355,-0.445,
3775,-0.355,-0.46,
3776,-0.36,-0.465,
3777,-0.355,-0.47,
3778,-0.355,-0.455,
3779,-0.345,-0.45,
3780,-0.33,-0.445,
3781,-0.315,-0.44,
3782,-0.305,-0.44,
3783,-0.295,-0.43,
3784,-0.3,-0.42,
3785,-0.295,-0.43,
3786,-0.3,-0.44,
3787,-0.29,-0.455,
3788,-0.285,-0.47,
3789,-0.275,-0.475,
3790,-0.28,-0.485,
3791,-0.285,-0.49,
3792,-0.29,-0.48,
3793,-0.305,-0.495,
3794,-0.305,-0.49,
3795,-0.31,-0.485,
3796,-0.33,-0.49,
3797,-0.33,-0.49,
3798,-0.345,-0.5,
3799,-0.335,-0.505,
3800,-0.35,-0.515,
3801,-0.36,-0.52,
3802,-0.36,-0.505,
3803,-0.36,-0.505,
3804,-0.365,-0.49,
3805,-0.365,-0.475,
3806,-0.37,-0.465,
3807,-0.385,-0.45,
3808,-0.385,-0.455,
3809,-0.4,-0.455,
3810,-0.41,-0.455,
3811,-0.415,-0.46,
3812,-0.42,-0.465,
3813,-0.425,-0.475,
3814,-0.42,-0.47,
3815,-0.425,-0.465,
3816,-0.41,-0.45,
3817,-0.415,-0.445,
3818,-0.4,-0.44,
3819,-0.4,-0.44,
3820,-0.4,-0.445,
3821,-0.4,-0.45,
3822,-0.405,-0.45,
3823,-0.405,-0.46,
3824,-0.415,-0.46,
3825,-0.42,-0.47,
3826,-0.43,-0.465,
3827,-0.44,-0.47,
3828,-0.46,-0.455,
3829,-0.47,-0.44,
3830,-0.465,-0.435,
3831,-0.44,-0.43,
3832,-0.375,-0.455,
3833,-0.285,-0.48,
3834,-0.16,-0.525,
3835,0.0,-0.585,
3836,0.195,-0.635,
3837,0.42,-0.68,
3838,0.615,-0.715,
3839,0.785,-0.725,
3840,0.845,-0.69,N
3841,0.75,-0.665,
3842,0.54,-0.595,
3843,0.265,-0.545,
3844,-0.025,-0.48,
3845,-0.245,-0.42,
3846,-0.395,-0.38,
3847,-0.44,-0.395,
3848,-0.405,-0.42,
3849,-0.35,-0.46,
3850,-0.305,-0.49,
3851,-0.285,-0.51,
3852,-0.275,-0.51,
3853,-0.275,-0.51,
3854,-0.29,-0.49,
3855,-0.31,-0.48,
3856,-0.34,-0.47,
3857,-0.355,-0.46,
3858,-0.37,-0.475,
3859,-0.38,-0.47,
3860,-0.385,-0.49,
3861,-0.39,-0.485,
3862,-0.395,-0.485,
3863,-0.385,-0.465,
3864,-0.385,-0.465,
3865,-0.385,-0.455,
3866,-0.385,-0.435,
3867,-0.39,-0.44,
3868,-0.38,-0.45,
3869,-0.39,-0.455,
3870,-0.39,-0.46,
3871,-0.4,-0.465,
3872,-0.4,-0.465,
3873,-0.405,-0.475,
3874,-0.405,-0.47,
3875,-0.39,-0.465,
3876,-0.395,-0.45,
3877,-0.38,-0.46,
3878,-0.375,-0.44,
3879,-0.37,-0.445,
3880,-0.365,-0.455,
3881,-0.355,-0.445,
3882,-0.365,-0.46,
3883,-0.365,-0.46,
3884,-0.37,-0.48,
3885,-0.375,-0.49,
3886,-0.38,-0.475,
3887,-0.375,-0.47,
3888,-0.375,-0.46,
3889,-0.37,-0.45,
3890,-0.36,-0.45,
3891,-0.36,-0.445,
3892,-0.345,-0.46,
3893,-0.345,-0.455,
3894,-0.345,-0.475,
3895,-0.36,-0.47,
3896,-0.365,-0.48,
3897,-0.365,-0.49,
3898,-0.37,-0.485,
3899,-0.37,-0.47,
3900,-0.365,-0.47,
3901,-0.355,-0.465,
3902,-0.35,-0.455,
3903,-0.35,-0.455,
3904,-0.35,-0.47,
3905,-0.345,-0.475,
3906,-0.35,-0.47,
3907,-0.355,-0.495,
3908,-0.355,-0.495,
3909,-0.36,-0.49,
3910,-0.365,-0.49,
3911,-0.365,-0.495,
3912,-0.355,-0.485,
3913,-0.345,-0.485,
3914,-0.335,-0.475,
3915,-0.33,-0.48,
3916,-0.335,-0.47,
3917,-0.335,-0.485,
3918,-0.35,-0.5,
3919,-0.355,-0.51,
3920,-0.37,-0.51,
3921,-0.365,-0.51,
3922,-0.36,-0.505,
3923,-0.36,-0.505,
3924,-0.355,-0.5,
3925,-0.35,-0.505,
3926,-0.34,-0.485,
3927,-0.335,-0.49,
3928,-0.335,-0.5,
3929,-0.335,-0.5,
3930,-0.33,-0.51,
3931,-0.34,-0.525,
3932,-0.34,-0.53,
3933,-0.34,-0.53,
3934,-0.355,-0.52,
3935,-0.34,-0.525,
3936,-0.34,-0.515,
3937,-0.325,-0.505,
3938,-0.305,-0.505,
3939,-0.305,-0.505,
3940,-0.29,-0.51,
3941,-0.28,-0.525,
3942,-0.28,-0.535,
3943,-0.275,-0.545,
3944,-0.27,-0.555,
3945,-0.28,-0.555,
3946,-0.275,-0.545,
3947,-0.265,-0.55,
3948,-0.255,-0.545,
3949,-0.25,-0.545,
3950,-0.235,-0.535,
3951,-0.245,-0.53,
3952,-0.24,-0.54,
3953,-0.245,-0.54,
3954,-0.255,-0.55,
3955,-0.27,-0.545,
3956,-0.285,-0.55,
3957,-0.29,-0.555,
3958,-0.315,-0.555,
3959,-0.31,-0.545,
3960,-0.31,-0.54,
3961,-0.295,-0.515,
3962,-0.305,-0.515,
3963,-0.315,-0.51,
3964,-0.31,-0.51,
3965,-0.33,-0.505,
3966,-0.33,-0.51,
3967,-0.34,-0.52,
3968,-0.35,-0.515,
3969,-0.36,-0.52,
3970,-0.36,-0.51,
3971,-0.355,-0.495,
3972,-0.365,-0.495,
3973,-0.355,-0.49,
3974,-0.345,-0.475,
3975,-0.345,-0.475,
3976,-0.345,-0.485,
3977,-0.355,-0.485,
3978,-0.36,-0.48,
3979,-0.375,-0.49,
3980,-0.37,-0.495,
3981,-0.37,-0.5,
3982,-0.38,-0.485,
3983,-0.375,-0.49,
3984,-0.375,-0.475,
3985,-0.38,-0.47,
3986,-0.37,-0.46,
3987,-0.375,-0.465,
3988,-0.365,-0.475,
3989,-0.365,-0.475,
3990,-0.38,-0.47,
3991,-0.375,-0.475,
3992,-0.395,-0.495,
3993,-0.4,-0.485,
3994,-0.395,-0.485,
3995,-0.395,-0.485,
3996,-0.395,-0.48,
3997,-0.385,-0.465,
3998,-0.39,-0.45,
3999,-0.38,-0.46,
4000,-0.38,-0.465,
4001,-0.39,-0.465,
4002,-0.38,-0.46,
4003,-0.38,-0.465,
4004,-0.385,-0.48,
4005,-0.39,-0.48,
4006,-0.395,-0.48,
4007,-0.4,-0.48,
4008,-0.395,-0.465,
4009,-0.4,-0.455,
4010,-0.395,-0.445,
4011,-0.395,-0.45,
4012,-0.395,-0.455,
4013,-0.395,-0.465,
4014,-0.395,-0.46,
4015,-0.4,-0.48,
4016,-0.42,-0.47,
4017,-0.415,-0.48,
4018,-0.425,-0.47,
4019,-0.415,-0.465,
4020,-0.41,-0.47,
4021,-0.4,-0.46,
4022,-0.385,-0.455,
4023,-0.37,-0.445,
4024,-0.355,-0.455,
4025,-0.35,-0.45,
4026,-0.345,-0.455,
4027,-0.345,-0.46,
4028,-0.34,-0.47,
4029,-0.35,-0.45,
4030,-0.35,-0.445,
4031,-0.35,-0.45,
4032,-0.34,-0.44,
4033,-0.32,-0.435,
4034,-0.305,-0.435,
4035,-0.28,-0.445,
4036,-0.265,-0.465,
4037,-0.275,-0.47,
4038,-0.3,-0.49,
4039,-0.33,-0.5,
4040,-0.35,-0.52,
4041,-0.37,-0.525,
4042,-0.38,-0.515,
4043,-0.385,-0.5,
4044,-0.37,-0.5,
4045,-0.37,-0.485,
4046,-0.355,-0.475,
4047,-0.355,-0.48,
4048,-0.36,-0.48,
4049,-0.37,-0.485,
4050,-0.385,-0.48,
4051,-0.4,-0.49,
4052,-0.41,-0.48,
4053,-0.425,-0.485,
4054,-0.435,-0.48,
4055,-0.445,-0.465,
4056,-0.44,-0.445,
4057,-0.44,-0.45,
4058,-0.425,-0.435,
4059,-0.42,-0.43,
4060,-0.42,-0.44,
4061,-0.43,-0.44,
4062,-0.435,-0.44,
4063,-0.44,-0.46,
4064,-0.455,-0.465,
4065,-0.445,-0.455,
4066,-0.455,-0.46,
4067,-0.445,-0.45,
4068,-0.435,-0.45,
4069,-0.43,-0.44,
4070,-0.42,-0.435,
4071,-0.42,-0.43,
4072,-0.445,-0.435,
4073,-0.47,-0.43,
4074,-0.485,-0.44,
4075,-0.485,-0.445,
4076,-0.455,-0.46,
4077,-0.37,-0.485,
4078,-0.245,-0.515,
4079,-0.075,-0.555,
4080,0.145,-0.61,
4081,0.385,-0.66,
4082,0.615,-0.715,
4083,0.815,-0.735,
4084,0.895,-0.745,N
4085,0.82,-0.7,
4086,0.595,-0.64,
4087,0.295,-0.555,
4088,-0.005,-0.475,
4089,-0.26,-0.41,
4090,-0.405,-0.37,
4091,-0.455,-0.355,
4092,-0.43,-0.375,
4093,-0.365,-0.41,
4094,-0.32,-0.45,
4095,-0.295,-0.465,
4096,-0.285,-0.495,
4097,-0.295,-0.505,
4098,-0.315,-0.5,
4099,-0.36,-0.48,
4100,-0.385,-0.475,
4101,-0.41,-0.485,
4102,-0.41,-0.47,
4103,-0.43,-0.455,
4104,-0.43,-0.445,
4105,-0.435,-0.445,
4106,-0.425,-0.44,
4107,-0.415,-0.45,
4108,-0.4,-0.445,
4109,-0.415,-0.44,
4110,-0.415,-0.45,
4111,-0.425,-0.46,
4112,-0.435,-0.47,
4113,-0.435,-0.465,
4114,-0.445,-0.47,
4115,-0.44,-0.465,
4116,-0.435,-0.46,
4117,-0.435,-0.445,
4118,-0.435,-0.435,
4119,-0.415,-0.44,
4120,-0.41,-0.45,
4121,-0.415,-0.445,
4122,-0.405,-0.46,
4123,-0.415,-0.46,
4124,-0.42,-0.465,
4125,-0.415,-0.47,
4126,-0.41,-0.455,
4127,-0.415,-0.455,
4128,-0.4,-0.465,
4129,-0.4,-0.455,
4130,-0.39,-0.44,
4131,-0.385,-0.445,
4132,-0.375,-0.45,
4133,-0.385,-0.455,
4134,-0.385,-0.47,
4135,-0.385,-0.47,
4136,-0.395,-0.475,
4137,-0.385,-0.48,
4138,-0.395,-0.475,
4139,-0.39,-0.48,
4140,-0.4,-0.475,
4141,-0.38,-0.47,
4142,-0.38,-0.46,
4143,-0.365,-0.46,
4144,-0.37,-0.465,
4145,-0.375,-0.47,
4146,-0.37,-0.47,
4147,-0.385,-0.475,
4148,-0.39,-0.48,
4149,-0.385,-0.49,
4150,-0.39,-0.485,
4151,-0.39,-0.495,
4152,-0.385,-0.475,
4153,-0.38,-0.475,
4154,-0.37,-0.475,
4155,-0.36,-0.47,
4156,-0.38,-0.47,
4157,-0.365,-0.485,
4158,-0.36,-0.485,
4159,-0.365,-0.495,
4160,-0.375,-0.505,
4161,-0.39,-0.5,
4162,-0.39,-0.5,
4163,-0.38,-0.505,
4164,-0.38,-0.485,
4165,-0.385,-0.495,
4166,-0.37,-0.5,
4167,-0.36,-0.485,
4168,-0.355,-0.48,
4169,-0.35,-0.495,
4170,-0.345,-0.51,
4171,-0.35,-0.515,
4172,-0.36,-0.515,
4173,-0.37,-0.52,
4174,-0.365,-0.525,
4175,-0.365,-0.52,
4176,-0.36,-0.52,
4177,-0.345,-0.52,
4178,-0.325,-0.515,
4179,-0.32,-0.51,
4180,-0.315,-0.52,
4181,-0.3,-0.525,
4182,-0.3,-0.53,
4183,-0.295,-0.54,
4184,-0.29,-0.545,
4185,-0.285,-0.545,
4186,-0.275,-0.56,
4187,-0.275,-0.545,
4188,-0.28,-0.53,
4189,-0.265,-0.52,
4190,-0.27,-0.52,
4191,-0.265,-0.525,
4192,-0.28,-0.525,
4193,-0.275,-0.515,
4194,-0.285,-0.515,
4195,-0.3,-0.53,
4196,-0.32,-0.53,
4197,-0.33,-0.525,
4198,-0.345,-0.51,
4199,-0.34,-0.505,
4200,-0.34,-0.5,
4201,-0.33,-0.48,
4202,-0.325,-0.48,
4203,-0.33,-0.465,
4204,-0.34,-0.47,
4205,-0.34,-0.48,
4206,-0.35,-0.475,
4207,-0.365,-0.485,
4208,-0.37,-0.495,
4209,-0.37,-0.49,
4210,-0.38,-0.48,
4211,-0.38,-0.46,
4212,-0.385,-0.455,
4213,-0.385,-0.455,
4214,-0.375,-0.445,
4215,-0.365,-0.44,
4216,-0.37,-0.45,
4217,-0.375,-0.45,
4218,-0.375,-0.455,
4219,-0.39,-0.465,
4220,-0.4,-0.465,
4221,-0.41,-0.48,
4222,-0.42,-0.47,
4223,-0.41,-0.46,
4224,-0.405,-0.445,
4225,-0.4,-0.445,
4226,-0.39,-0.43,
4227,-0.38,-0.43,
4228,-0.39,-0.44,
4229,-0.395,-0.44,
4230,-0.4,-0.45,
4231,-0.405,-0.45,
4232,-0.405,-0.46,
4233,-0.415,-0.46,
4234,-0.42,-0.465,
4235,-0.42,-0.455,
4236,-0.42,-0.44,
4237,-0.41,-0.445,
4238,-0.41,-0.44,
4239,-0.4,-0.425,
4240,-0.41,-0.43,
4241,-0.405,-0.43,
4242,-0.41,-0.445,
4243,-0.42,-0.46,
4244,-0.425,-0.455,
4245,-0.44,-0.45,
4246,-0.435,-0.455,
4247,-0.445,-0.445,
4248,-0.455,-0.44,
4249,-0.45,-0.435,
4250,-0.44,-0.43,
4251,-0.43,-0.42,
4252,-0.42,-0.43,
4253,-0.435,-0.43,
4254,-0.435,-0.43,
4255,-0.44,-0.435,
4256,-0.45,-0.445,
4257,-0.455,-0.44,
4258,-0.44,-0.445,
4259,-0.44,-0.43,
4260,-0.435,-0.435,
4261,-0.42,-0.43,
4262,-0.41,-0.415,
4263,-0.395,-0.41,
4264,-0.375,-0.405,
4265,-0.365,-0.415,
4266,-0.375,-0.41,
4267,-0.37,-0.41,
4268,-0.385,-0.43,
4269,-0.38,-0.43,
4270,-0.38,-0.425,
4271,-0.37,-0.41,
4272,-0.35,-0.42,
4273,-0.335,-0.415,
4274,-0.335,-0.415,
4275,-0.315,-0.425,
4276,-0.32,-0.435,
4277,-0.33,-0.445,
4278,-0.355,-0.455,
4279,-0.365,-0.47,
4280,-0.385,-0.48,
4281,-0.385,-0.485,
4282,-0.395,-0.475,
4283,-0.4,-0.47,
4284,-0.4,-0.465,
4285,-0.395,-0.46,
4286,-0.385,-0.45,
4287,-0.385,-0.44,
4288,-0.395,-0.445,
4289,-0.405,-0.445,
4290,-0.425,-0.455,
4291,-0.445,-0.45,
4292,-0.455,-0.45,
4293,-0.465,-0.445,
4294,-0.48,-0.44,
4295,-0.48,-0.435,
4296,-0.475,-0.43,
4297,-0.465,-0.42,
4298,-0.47,-0.425,
4299,-0.455,-0.41,
4300,-0.45,-0.41,
4301,-0.445,-0.42,
4302,-0.45,-0.425,
4303,-0.455,-0.435,
4304,-0.47,-0.435,
4305,-0.48,-0.445,
4306,-0.47,-0.445,
4307,-0.48,-0.44,
4308,-0.47,-0.43,
4309,-0.465,-0.43,
4310,-0.455,-0.43,
4311,-0.455,-0.42,
4312,-0.465,-0.43,
4313,-0.48,-0.42,
4314,-0.49,-0.43,
4315,-0.485,-0.44,
4316,-0.445,-0.445,
4317,-0.365,-0.455,
4318,-0.255,-0.485,
4319,-0.1,-0.53,
4320,0.1,-0.55,
4321,0.335,-0.6,
4322,0.555,-0.635,
4323,0.745,-0.66,
4324,0.835,-0.66,N
4325,0.815,-0.625,
4326,0.63,-0.58,
4327,0.375,-0.525,
4328,0.075,-0.46,
4329,-0.185,-0.405,
4330,-0.355,-0.345,
4331,-0.455,-0.33,
4332,-0.45,-0.335,
4333,-0.425,-0.355,
4334,-0.38,-0.39,
4335,-0.35,-0.425,
4336,-0.335,-0.445,
4337,-0.35,-0.46,
4338,-0.36,-0.465,
4339,-0.385,-0.465,
4340,-0.415,-0.455,
4341,-0.425,-0.455,
4342,-0.44,-0.445,
4343,-0.44,-0.445,
4344,-0.43,-0.435,
4345,-0.425,-0.425,
4346,-0.43,-0.42,
4347,-0.435,-0.41,
4348,-0.43,-0.41,
4349,-0.43,-0.415,
4350,-0.435,-0.415,
4351,-0.44,-0.425,
4352,-0.44,-0.435,
4353,-0.45,-0.435,
4354,-0.465,-0.435,
4355,-0.465,-0.435,
4356,-0.455,-0.43,
4357,-0.445,-0.42,
4358,-0.445,-0.405,
4359,-0.435,-0.42,
4360,-0.425,-0.42,
4361,-0.425,-0.42,
4362,-0.42,-0.425,
4363,-0.44,-0.435,
4364,-0.44,-0.44,
4365,-0.445,-0.435,
4366,-0.45,-0.445,
4367,-0.445,-0.435,
4368,-0.44,-0.43,
4369,-0.43,-0.425,
4370,-0.415,-0.42,
4371,-0.41,-0.41,
4372,-0.4,-0.43,
4373,-0.395,-0.425,
4374,-0.405,-0.435,
4375,-0.41,-0.44,
4376,-0.415,-0.445,
4377,-0.425,-0.46,
4378,-0.435,-0.46,
4379,-0.435,-0.46,
4380,-0.435,-0.44,
4381,-0.43,-0.445,
4382,-0.42,-0.44,
4383,-0.415,-0.435,
4384,-0.41,-0.44,
4385,-0.4,-0.435,
4386,-0.4,-0.455,
4387,-0.41,-0.465,
4388,-0.415,-0.475,
4389,-0.42,-0.475,
4390,-0.425,-0.46,
4391,-0.435,-0.485,
4392,-0.43,-0.465,
4393,-0.42,-0.455,
4394,-0.405,-0.45,
4395,-0.405,-0.445,
4396,-0.4,-0.455,
4397,-0.41,-0.46,
4398,-0.425,-0.465,
4399,-0.43,-0.48,
4400,-0.435,-0.485,
4401,-0.425,-0.49,
4402,-0.42,-0.49,
4403,-0.42,-0.485,
4404,-0.415,-0.48,
4405,-0.415,-0.48,
4406,-0.405,-0.475,
4407,-0.41,-0.46,
4408,-0.4,-0.47,
4409,-0.395,-0.48,
4410,-0.395,-0.48,
4411,-0.405,-0.495,
4412,-0.4,-0.505,
4413,-0.405,-0.505,
4414,-0.395,-0.505,
4415,-0.395,-0.495,
4416,-0.38,-0.505,
4417,-0.365,-0.5,
4418,-0.355,-0.49,
4419,-0.34,-0.485,
4420,-0.335,-0.495,
4421,-0.315,-0.5,
4422,-0.31,-0.51,
4423,-0.315,-0.51,
4424,-0.32,-0.52,
4425,-0.32,-0.52,
4426,-0.325,-0.51,
4427,-0.33,-0.51,
4428,-0.305,-0.5,
4429,-0.305,-0.495,
4430,-0.305,-0.495,
4431,-0.305,-0.49,
4432,-0.315,-0.495,
4433,-0.3,-0.485,
4434,-0.335,-0.485,
4435,-0.34,-0.49,
4436,-0.355,-0.49,
4437,-0.35,-0.49,
4438,-0.355,-0.475,
4439,-0.36,-0.485,
4440,-0.36,-0.47,
4441,-0.365,-0.46,
4442,-0.355,-0.44,
4443,-0.36,-0.445,
4444,-0.365,-0.44,
4445,-0.365,-0.445,
4446,-0.385,-0.44,
4447,-0.395,-0.45,
4448,-0.395,-0.455,
4449,-0.405,-0.46,
4450,-0.41,-0.45,
4451,-0.415,-0.46,
4452,-0.415,-0.44,
4453,-0.405,-0.44,
4454,-0.405,-0.425,
4455,-0.395,-0.42,
4456,-0.395,-0.425,
4457,-0.39,-0.42,
4458,-0.395,-0.415,
4459,-0.405,-0.43,
4460,-0.41,-0.44,
4461,-0.42,-0.445,
4462,-0.415,-0.44,
4463,-0.42,-0.44,
4464,-0.425,-0.425,
4465,-0.415,-0.42,
4466,-0.415,-0.415,
4467,-0.4,-0.415,
4468,-0.405,-0.41,
4469,-0.41,-0.415,
4470,-0.415,-0.42,
4471,-0.42,-0.425,
4472,-0.43,-0.43,
4473,-0.425,-0.435,
4474,-0.435,-0.445,
4475,-0.445,-0.42,
4476,-0.435,-0.415,
4477,-0.425,-0.415,
4478,-0.42,-0.405,
4479,-0.415,-0.4,
4480,-0.415,-0.41,
4481,-0.42,-0.42,
4482,-0.42,-0.42,
4483,-0.425,-0.425,
4484,-0.435,-0.425,
4485,-0.445,-0.45,
4486,-0.445,-0.435,
4487,-0.445,-0.43,
4488,-0.445,-0.42,
4489,-0.435,-0.43,
4490,-0.435,-0.41,
4491,-0.425,-0.395,
4492,-0.425,-0.405,
4493,-0.425,-0.405,
4494,-0.425,-0.41,
4495,-0.435,-0.42,
4496,-0.435,-0.425,
4497,-0.435,-0.445,
4498,-0.42,-0.435,
4499,-0.425,-0.435,
4500,-0.405,-0.41,
4501,-0.39,-0.4,
4502,-0.37,-0.395,
4503,-0.37,-0.39,
4504,-0.365,-0.395,
4505,-0.36,-0.385,
4506,-0.37,-0.39,
4507,-0.36,-0.395,
4508,-0.365,-0.415,
4509,-0.36,-0.42,
4510,-0.35,-0.42,
4511,-0.34,-0.425,
4512,-0.33,-0.435,
4513,-0.34,-0.435,
4514,-0.34,-0.44,
4515,-0.36,-0.435,
4516,-0.36,-0.44,
4517,-0.365,-0.44,
4518,-0.375,-0.445,
4519,-0.38,-0.455,
4520,-0.39,-0.45,
4521,-0.4,-0.46,
4522,-0.405,-0.46,
4523,-0.41,-0.445,
4524,-0.41,-0.44,
4525,-0.41,-0.435,
4526,-0.41,-0.42,
4527,-0.42,-0.415,
4528,-0.43,-0.42,
4529,-0.44,-0.405,
4530,-0.46,-0.415,
4531,-0.465,-0.415,
4532,-0.465,-0.42,
4533,-0.475,-0.43,
4534,-0.47,-0.425,
4535,-0.48,-0.42,
4536,-0.465,-0.415,
4537,-0.455,-0.41,
4538,-0.45,-0.4,
4539,-0.44,-0.405,
4540,-0.43,-0.41,
4541,-0.435,-0.395,
4542,-0.445,-0.41,
4543,-0.445,-0.415,
4544,-0.45,-0.425,
4545,-0.445,-0.425,
4546,-0.46,-0.43,
4547,-0.465,-0.435,
4548,-0.465,-0.42,
4549,-0.48,-0.42,
4550,-0.5,-0.405,
4551,-0.505,-0.385,
4552,-0.505,-0.4,
4553,-0.455,-0.395,
4554,-0.37,-0.42,
4555,-0.26,-0.46,
4556,-0.105,-0.5,
4557,0.08,-0.55,
4558,0.295,-0.595,
4559,0.515,-0.635,
4560,0.72,-0.66,
4561,0.83,-0.64,N
4562,0.835,-0.61,
4563,0.695,-0.555,
4564,0.435,-0.515,
4565,0.14,-0.445,
4566,-0.145,-0.4,
4567,-0.355,-0.365,
4568,-0.46,-0.335,
4569,-0.475,-0.355,
4570,-0.44,-0.385,
4571,-0.39,-0.425,
4572,-0.35,-0.45,
4573,-0.325,-0.46,
4574,-0.32,-0.46,
4575,-0.33,-0.465,
4576,-0.345,-0.45,
4577,-0.36,-0.445,
4578,-0.385,-0.435,
4579,-0.395,-0.44,
4580,-0.415,-0.445,
4581,-0.415,-0.45,
4582,-0.43,-0.445,
4583,-0.435,-0.45,
4584,-0.425,-0.445,
4585,-0.415,-0.43,
4586,-0.415,-0.425,
4587,-0.4,-0.42,
4588,-0.415,-0.42,
4589,-0.405,-0.415,
4590,-0.41,-0.425,
4591,-0.42,-0.435,
4592,-0.425,-0.445,
4593,-0.425,-0.45,
4594,-0.425,-0.44,
4595,-0.43,-0.445,
4596,-0.425,-0.435,
4597,-0.42,-0.435,
4598,-0.42,-0.425,
4599,-0.41,-0.42,
4600,-0.41,-0.42,
4601,-0.405,-0.435,
4602,-0.405,-0.43,
4603,-0.405,-0.44,
4604,-0.415,-0.46,
4605,-0.425,-0.46,
4606,-0.42,-0.46,
4607,-0.42,-0.45,
4608,-0.4,-0.445,
4609,-0.4,-0.445,
4610,-0.385,-0.43,
4611,-0.375,-0.425,
4612,-0.375,-0.435,
4613,-0.375,-0.445,
4614,-0.375,-0.445,
4615,-0.38,-0.45,
4616,-0.38,-0.46,
4617,-0.39,-0.465,
4618,-0.4,-0.455,
4619,-0.405,-0.455,
4620,-0.39,-0.455,
4621,-0.39,-0.46,
4622,-0.385,-0.44,
4623,-0.39,-0.45,
4624,-0.385,-0.455,
4625,-0.375,-0.445,
4626,-0.38,-0.45,
4627,-0.385,-0.47,
4628,-0.395,-0.475,
4629,-0.4,-0.475,
4630,-0.405,-0.48,
4631,-0.4,-0.47,
4632,-0.395,-0.475,
4633,-0.385,-0.465,
4634,-0.38,-0.46,
4635,-0.38,-0.455,
4636,-0.375,-0.465,
4637,-0.37,-0.465,
4638,-0.385,-0.465,
4639,-0.39,-0.49,
4640,-0.385,-0.495,
4641,-0.39,-0.5,
4642,-0.395,-0.485,
4643,-0.4,-0.5,
4644,-0.39,-0.49,
4645,-0.385,-0.47,
4646,-0.38,-0.485,
4647,-0.385,-0.48,
4648,-0.38,-0.475,
4649,-0.375,-0.475,
4650,-0.385,-0.485,
4651,-0.38,-0.5,
4652,-0.385,-0.51,
4653,-0.39,-0.505,
4654,-0.39,-0.52,
4655,-0.39,-0.505,
4656,-0.375,-0.495,
4657,-0.36,-0.485,
4658,-0.355,-0.485,
4659,-0.335,-0.485,
4660,-0.325,-0.495,
4661,-0.32,-0.49,
4662,-0.315,-0.5,
4663,-0.305,-0.515,
4664,-0.31,-0.515,
4665,-0.305,-0.53,
4666,-0.305,-0.52,
4667,-0.305,-0.51,
4668,-0.29,-0.52,
4669,-0.285,-0.5,
4670,-0.3,-0.505,
4671,-0.27,-0.49,
4672,-0.275,-0.5,
4673,-0.27,-0.495,
4674,-0.285,-0.5,
4675,-0.305,-0.51,
4676,-0.31,-0.505,
4677,-0.32,-0.5,
4678,-0.325,-0.505,
4679,-0.335,-0.485,
4680,-0.335,-0.485,
4681,-0.335,-0.465,
4682,-0.33,-0.465,
4683,-0.325,-0.46,
4684,-0.34,-0.46,
4685,-0.34,-0.455,
4686,-0.335,-0.46,
4687,-0.35,-0.47,
4688,-0.355,-0.475,
4689,-0.365,-0.485,
4690,-0.365,-0.465,
4691,-0.365,-0.465,
4692,-0.365,-0.46,
4693,-0.37,-0.46,
4694,-0.36,-0.445,
4695,-0.355,-0.44,
4696,-0.355,-0.445,
4697,-0.36,-0.445,
4698,-0.365,-0.445,
4699,-0.365,-0.46,
4700,-0.375,-0.465,
4701,-0.375,-0.465,
4702,-0.385,-0.46,
4703,-0.39,-0.465,
4704,-0.385,-0.45,
4705,-0.385,-0.45,
4706,-0.375,-0.45,
4707,-0.36,-0.435,
4708,-0.37,-0.44,
4709,-0.365,-0.445,
4710,-0.375,-0.445,
4711,-0.38,-0.46,
4712,-0.385,-0.465,
4713,-0.4,-0.47,
4714,-0.395,-0.465,
4715,-0.41,-0.465,
4716,-0.405,-0.45,
4717,-0.395,-0.445,
4718,-0.4,-0.435,
4719,-0.39,-0.44,
4720,-0.39,-0.435,
4721,-0.38,-0.435,
4722,-0.39,-0.445,
4723,-0.39,-0.44,
4724,-0.395,-0.45,
4725,-0.4,-0.465,
4726,-0.4,-0.465,
4727,-0.405,-0.455,
4728,-0.415,-0.445,
4729,-0.415,-0.435,
4730,-0.405,-0.43,
4731,-0.4,-0.425,
4732,-0.395,-0.425,
4733,-0.38,-0.425,
4734,-0.385,-0.425,
4735,-0.395,-0.45,
4736,-0.405,-0.445,
4737,-0.41,-0.455,
4738,-0.41,-0.45,
4739,-0.41,-0.45,
4740,-0.395,-0.44,
4741,-0.385,-0.435,
4742,-0.37,-0.425,
4743,-0.355,-0.41,
4744,-0.34,-0.415,
4745,-0.33,-0.41,
4746,-0.335,-0.425,
4747,-0.33,-0.42,
4748,-0.34,-0.43,
4749,-0.35,-0.435,
4750,-0.34,-0.43,
4751,-0.34,-0.43,
4752,-0.325,-0.43,
4753,-0.315,-0.425,
4754,-0.295,-0.42,
4755,-0.275,-0.43,
4756,-0.285,-0.445,
4757,-0.29,-0.455,
4758,-0.32,-0.465,
4759,-0.345,-0.475,
4760,-0.355,-0.49,
4761,-0.365,-0.495,
4762,-0.365,-0.49,
4763,-0.375,-0.485,
4764,-0.365,-0.465,
4765,-0.365,-0.465,
4766,-0.365,-0.47,
4767,-0.375,-0.455,
4768,-0.375,-0.455,
4769,-0.37,-0.45,
4770,-0.375,-0.46,
4771,-0.405,-0.46,
4772,-0.41,-0.455,
4773,-0.43,-0.455,
4774,-0.45,-0.445,
4775,-0.445,-0.445,
4776,-0.445,-0.43,
4777,-0.44,-0.425,
4778,-0.435,-0.42,
4779,-0.42,-0.42,
4780,-0.42,-0.425,
4781,-0.415,-0.425,
4782,-0.415,-0.425,
4783,-0.43,-0.45,
4784,-0.435,-0.445,
4785,-0.44,-0.455,
4786,-0.45,-0.445,
4787,-0.445,-0.445,
4788,-0.445,-0.445,
4789,-0.435,-0.435,
4790,-0.435,-0.425,
4791,-0.43,-0.425,
4792,-0.435,-0.42,
4793,-0.445,-0.425,
4794,-0.455,-0.425,
4795,-0.48,-0.43,
4796,-0.495,-0.43,
4797,-0.475,-0.435,
4798,-0.425,-0.435,
4799,-0.33,-0.455,
4800,-0.21,-0.495,
4801,-0.055,-0.52,
4802,0.13,-0.57,
4803,0.335,-0.61,
4804,0.535,-0.655,
4805,0.705,-0.675,
4806,0.82,-0.69,N
4807,0.8,-0.67,
4808,0.675,-0.645,
4809,0.44,-0.59,
4810,0.16,-0.53,
4811,-0.11,-0.46,
4812,-0.3,-0.395,
4813,-0.405,-0.365,
4814,-0.425,-0.375,
4815,-0.38,-0.395,
4816,-0.335,-0.43,
4817,-0.28,-0.465,
4818,-0.27,-0.49,
4819,-0.285,-0.5,
4820,-0.3,-0.505,
4821,-0.33,-0.495,
4822,-0.365,-0.48,
4823,-0.39,-0.47,
4824,-0.395,-0.46,
4825,-0.395,-0.46,
4826,-0.39,-0.455,
4827,-0.385,-0.43,
4828,-0.385,-0.44,
4829,-0.38,-0.44,
4830,-0.39,-0.44,
4831,-0.395,-0.455,
4832,-0.4,-0.455,
4833,-0.42,-0.46,
4834,-0.415,-0.465,
4835,-0.41,-0.455,
4836,-0.41,-0.45,
4837,-0.4,-0.44,
4838,-0.4,-0.435,
4839,-0.385,-0.43,
4840,-0.39,-0.43,
4841,-0.39,-0.43,
4842,-0.39,-0.44,
4843,-0.395,-0.445,
4844,-0.395,-0.46,
4845,-0.395,-0.47,
4846,-0.415,-0.45,
4847,-0.405,-0.455,
4848,-0.4,-0.45,
4849,-0.395,-0.445,
4850,-0.39,-0.44,
4851,-0.385,-0.43,
4852,-0.375,-0.435,
4853,-0.375,-0.435,
4854,-0.375,-0.445,
4855,-0.38,-0.45,
4856,-0.38,-0.46,
4857,-0.39,-0.47,
4858,-0.395,-0.47,
4859,-0.39,-0.46,
4860,-0.395,-0.46,
4861,-0.39,-0.47,
4862,-0.38,-0.45,
4863,-0.375,-0.445,
4864,-0.365,-0.445,
4865,-0.37,-0.455,
4866,-0.37,-0.455,
4867,-0.37,-0.45,
4868,-0.38,-0.48,
4869,-0.385,-0.465,
4870,-0.38,-0.475,
4871,-0.39,-0.47,
4872,-0.38,-0.47,
4873,-0.375,-0.455,
4874,-0.375,-0.46,
4875,-0.36,-0.445,
4876,-0.36,-0.465,
4877,-0.36,-0.455,
4878,-0.36,-0.46,
4879,-0.36,-0.48,
4880,-0.365,-0.465,
4881,-0.37,-0.49,
4882,-0.375,-0.49,
4883,-0.385,-0.485,
4884,-0.37,-0.485,
4885,-0.36,-0.475,
4886,-0.365,-0.47,
4887,-0.35,-0.465,
4888,-0.35,-0.47,
4889,-0.35,-0.47,
4890,-0.35,-0.485,
4891,-0.36,-0.485,
4892,-0.365,-0.49,
4893,-0.385,-0.505,
4894,-0.375,-0.495,
4895,-0.38,-0.495,
4896,-0.38,-0.495,
4897,-0.375,-0.49,
4898,-0.375,-0.49,
4899,-0.365,-0.475,
4900,-0.36,-0.48,
4901,-0.345,-0.48,
4902,-0.34,-0.485,
4903,-0.36,-0.5,
4904,-0.345,-0.51,
4905,-0.345,-0.51,
4906,-0.35,-0.52,
4907,-0.35,-0.51,
4908,-0.335,-0.515,
4909,-0.325,-0.515,
4910,-0.31,-0.5,
4911,-0.295,-0.495,
4912,-0.275,-0.5,
4913,-0.275,-0.51,
4914,-0.275,-0.51,
4915,-0.28,-0.53,
4916,-0.28,-0.53,
4917,-0.285,-0.54,
4918,-0.285,-0.545,
4919,-0.285,-0.535,
4920,-0.275,-0.525,
4921,-0.265,-0.515,
4922,-0.27,-0.52,
4923,-0.27,-0.505,
4924,-0.265,-0.5,
4925,-0.27,-0.51,
4926,-0.275,-0.505,
4927,-0.285,-0.51,
4928,-0.3,-0.51,
4929,-0.315,-0.515,
4930,-0.325,-0.505,
4931,-0.335,-0.505,
4932,-0.325,-0.495,
4933,-0.335,-0.485,
4934,-0.33,-0.475,
4935,-0.325,-0.465,
4936,-0.33,-0.465,
4937,-0.335,-0.47,
4938,-0.33,-0.47,
4939,-0.345,-0.48,
4940,-0.35,-0.475,
4941,-0.36,-0.48,
4942,-0.37,-0.48,
4943,-0.36,-0.475,
4944,-0.365,-0.47,
4945,-0.37,-0.46,
4946,-0.355,-0.455,
4947,-0.35,-0.435,
4948,-0.345,-0.44,
4949,-0.35,-0.46,
4950,-0.35,-0.46,
4951,-0.365,-0.465,
4952,-0.38,-0.47,
4953,-0.385,-0.48,
4954,-0.385,-0.47,
4955,-0.385,-0.465,
4956,-0.385,-0.455,
4957,-0.385,-0.445,
4958,-0.39,-0.435,
4959,-0.385,-0.44,
4960,-0.38,-0.445,
4961,-0.375,-0.45,
4962,-0.37,-0.45,
4963,-0.385,-0.46,
4964,-0.385,-0.465,
4965,-0.39,-0.465,
4966,-0.39,-0.465,
4967,-0.39,-0.455,
4968,-0.39,-0.45,
4969,-0.38,-0.45,
4970,-0.385,-0.445,
4971,-0.38,-0.435,
4972,-0.365,-0.44,
4973,-0.365,-0.45,
4974,-0.375,-0.45,
4975,-0.375,-0.455,
4976,-0.39,-0.455,
4977,-0.39,-0.47,
4978,-0.395,-0.47,
4979,-0.4,-0.46,
4980,-0.405,-0.45,
4981,-0.39,-0.445,
4982,-0.39,-0.435,
4983,-0.38,-0.435,
4984,-0.38,-0.43,
4985,-0.38,-0.435,
4986,-0.385,-0.44,
4987,-0.385,-0.445,
4988,-0.39,-0.445,
4989,-0.4,-0.45,
4990,-0.395,-0.455,
4991,-0.405,-0.435,
4992,-0.395,-0.445,
4993,-0.385,-0.435,
4994,-0.37,-0.435,
4995,-0.36,-0.43,
4996,-0.345,-0.43,
4997,-0.345,-0.43,
4998,-0.33,-0.435,
4999,-0.335,-0.435,
5000,-0.33,-0.45,
5001,-0.34,-0.44,
5002,-0.345,-0.445,
5003,-0.335,-0.425,
5004,-0.33,-0.42,
5005,-0.325,-0.415,
5006,-0.315,-0.415,
5007,-0.305,-0.405,
5008,-0.29,-0.42,
5009,-0.275,-0.43,
5010,-0.26,-0.44,
5011,-0.275,-0.455,
5012,-0.295,-0.485,
5013,-0.315,-0.495,
5014,-0.33,-0.495,
5015,-0.34,-0.49,
5016,-0.345,-0.495,
5017,-0.35,-0.48,
5018,-0.355,-0.46,
5019,-0.35,-0.465,
5020,-0.345,-0.46,
5021,-0.34,-0.465,
5022,-0.345,-0.46,
5023,-0.36,-0.465,
5024,-0.375,-0.485,
5025,-0.38,-0.47,
5026,-0.395,-0.47,
5027,-0.42,-0.455,
5028,-0.42,-0.455,
5029,-0.425,-0.435,
5030,-0.42,-0.43,
5031,-0.42,-0.43,
5032,-0.41,-0.425,
5033,-0.41,-0.425,
5034,-0.405,-0.43,
5035,-0.42,-0.44,
5036,-0.43,-0.45,
5037,-0.435,-0.445,
5038,-0.43,-0.45,
5039,-0.44,-0.455,
5040,-0.425,-0.44,
5041,-0.43,-0.435,
5042,-0.415,-0.43,
5043,-0.415,-0.42,
5044,-0.415,-0.425,
5045,-0.415,-0.42,
5046,-0.43,-0.435,
5047,-0.445,-0.44,
5048,-0.48,-0.44,
5049,-0.49,-0.435,
5050,-0.485,-0.435,
5051,-0.44,-0.445,
5052,-0.34,-0.46,
5053,-0.205,-0.49,
5054,-0.035,-0.53,
5055,0.17,-0.585,
5056,0.4,-0.655,
5057,0.61,-0.7,
5058,0.795,-0.72,
5059,0.865,-0.725,N
5060,0.81,-0.705,
5061,0.625,-0.645,
5062,0.345,-0.57,
5063,0.055,-0.49,
5064,-0.21,-0.425,
5065,-0.38,-0.37,
5066,-0.445,-0.345,
5067,-0.43,-0.35,
5068,-0.37,-0.395,
5069,-0.32,-0.425,
5070,-0.285,-0.455,
5071,-0.285,-0.485,
5072,-0.3,-0.5,
5073,-0.32,-0.5,
5074,-0.35,-0.47,
5075,-0.37,-0.48,
5076,-0.39,-0.455,
5077,-0.39,-0.44,
5078,-0.39,-0.435,
5079,-0.38,-0.43,
5080,-0.38,-0.435,
5081,-0.38,-0.435,
5082,-0.39,-0.43,
5083,-0.39,-0.44,
5084,-0.4,-0.445,
5085,-0.405,-0.445,
5086,-0.415,-0.45,
5087,-0.415,-0.455,
5088,-0.415,-0.445,
5089,-0.4,-0.43,
5090,-0.405,-0.425,
5091,-0.39,-0.42,
5092,-0.385,-0.435,
5093,-0.38,-0.43,
5094,-0.375,-0.43,
5095,-0.39,-0.435,
5096,-0.395,-0.45,
5097,-0.39,-0.45,
5098,-0.395,-0.445,
5099,-0.4,-0.45,
5100,-0.395,-0.45,
5101,-0.39,-0.435,
5102,-0.39,-0.43,
5103,-0.37,-0.425,
5104,-0.375,-0.44,
5105,-0.38,-0.45,
5106,-0.375,-0.445,
5107,-0.375,-0.445,
5108,-0.385,-0.45,
5109,-0.39,-0.46,
5110,-0.39,-0.45,
5111,-0.39,-0.45,
5112,-0.385,-0.445,
5113,-0.375,-0.445,
5114,-0.37,-0.45,
5115,-0.365,-0.425,
5116,-0.355,-0.44,
5117,-0.36,-0.43,
5118,-0.365,-0.445,
5119,-0.37,-0.455,
5120,-0.36,-0.455,
5121,-0.37,-0.475,
5122,-0.375,-0.47,
5123,-0.38,-0.47,
5124,-0.37,-0.46,
5125,-0.365,-0.46,
5126,-0.37,-0.455,
5127,-0.365,-0.44,
5128,-0.36,-0.455,
5129,-0.355,-0.45,
5130,-0.355,-0.46,
5131,-0.36,-0.46,
5132,-0.36,-0.48,
5133,-0.37,-0.47,
5134,-0.375,-0.475,
5135,-0.38,-0.48,
5136,-0.365,-0.48,
5137,-0.36,-0.465,
5138,-0.35,-0.46,
5139,-0.35,-0.46,
5140,-0.34,-0.455,
5141,-0.33,-0.475,
5142,-0.345,-0.465,
5143,-0.345,-0.48,
5144,-0.345,-0.49,
5145,-0.365,-0.5,
5146,-0.355,-0.49,
5147,-0.365,-0.495,
5148,-0.355,-0.485,
5149,-0.345,-0.48,
5150,-0.335,-0.47,
5151,-0.32,-0.475,
5152,-0.305,-0.475,
5153,-0.295,-0.475,
5154,-0.29,-0.49,
5155,-0.285,-0.495,
5156,-0.29,-0.515,
5157,-0.285,-0.515,
5158,-0.285,-0.52,
5159,-0.27,-0.52,
5160,-0.26,-0.515,
5161,-0.25,-0.515,
5162,-0.24,-0.51,
5163,-0.23,-0.495,
5164,-0.23,-0.5,
5165,-0.23,-0.5,
5166,-0.235,-0.51,
5167,-0.235,-0.52,
5168,-0.24,-0.525,
5169,-0.255,-0.52,
5170,-0.27,-0.52,
5171,-0.27,-0.51,
5172,-0.275,-0.515,
5173,-0.275,-0.495,
5174,-0.275,-0.48,
5175,-0.275,-0.485,
5176,-0.28,-0.48,
5177,-0.285,-0.47,
5178,-0.285,-0.485,
5179,-0.31,-0.485,
5180,-0.305,-0.485,
5181,-0.33,-0.485,
5182,-0.335,-0.485,
5183,-0.34,-0.47,
5184,-0.335,-0.465,
5185,-0.33,-0.46,
5186,-0.325,-0.46,
5187,-0.325,-0.45,
5188,-0.32,-0.45,
5189,-0.335,-0.455,
5190,-0.335,-0.445,
5191,-0.34,-0.455,
5192,-0.35,-0.46,
5193,-0.355,-0.46,
5194,-0.365,-0.475,
5195,-0.365,-0.46,
5196,-0.365,-0.45,
5197,-0.365,-0.445,
5198,-0.36,-0.435,
5199,-0.355,-0.435,
5200,-0.355,-0.43,
5201,-0.36,-0.43,
5202,-0.365,-0.445,
5203,-0.375,-0.455,
5204,-0.37,-0.455,
5205,-0.37,-0.455,
5206,-0.385,-0.47,
5207,-0.385,-0.455,
5208,-0.375,-0.445,
5209,-0.375,-0.45,
5210,-0.375,-0.425,
5211,-0.365,-0.42,
5212,-0.355,-0.42,
5213,-0.37,-0.425,
5214,-0.36,-0.435,
5215,-0.36,-0.44,
5216,-0.37,-0.445,
5217,-0.38,-0.46,
5218,-0.375,-0.45,
5219,-0.385,-0.455,
5220,-0.39,-0.445,
5221,-0.385,-0.43,
5222,-0.38,-0.43,
5223,-0.37,-0.43,
5224,-0.365,-0.425,
5225,-0.365,-0.43,
5226,-0.365,-0.43,
5227,-0.375,-0.44,
5228,-0.385,-0.445,
5229,-0.39,-0.455,
5230,-0.39,-0.455,
5231,-0.395,-0.44,
5232,-0.395,-0.445,
5233,-0.38,-0.445,
5234,-0.38,-0.425,
5235,-0.365,-0.42,
5236,-0.35,-0.42,
5237,-0.35,-0.425,
5238,-0.35,-0.43,
5239,-0.345,-0.435,
5240,-0.34,-0.43,
5241,-0.345,-0.445,
5242,-0.34,-0.44,
5243,-0.34,-0.435,
5244,-0.335,-0.425,
5245,-0.325,-0.42,
5246,-0.32,-0.4,
5247,-0.315,-0.405,
5248,-0.305,-0.415,
5249,-0.29,-0.415,
5250,-0.275,-0.43,
5251,-0.27,-0.44,
5252,-0.27,-0.47,
5253,-0.28,-0.475,
5254,-0.3,-0.495,
5255,-0.325,-0.49,
5256,-0.335,-0.48,
5257,-0.34,-0.48,
5258,-0.34,-0.475,
5259,-0.335,-0.47,
5260,-0.34,-0.465,
5261,-0.325,-0.46,
5262,-0.335,-0.47,
5263,-0.345,-0.465,
5264,-0.36,-0.485,
5265,-0.36,-0.485,
5266,-0.37,-0.48,
5267,-0.375,-0.475,
5268,-0.385,-0.465,
5269,-0.39,-0.445,
5270,-0.395,-0.435,
5271,-0.395,-0.425,
5272,-0.4,-0.41,
5273,-0.39,-0.425,
5274,-0.4,-0.415,
5275,-0.395,-0.435,
5276,-0.4,-0.445,
5277,-0.41,-0.44,
5278,-0.415,-0.435,
5279,-0.42,-0.43,
5280,-0.415,-0.43,
5281,-0.41,-0.425,
5282,-0.4,-0.425,
5283,-0.39,-0.425,
5284,-0.4,-0.41,
5285,-0.385,-0.42,
5286,-0.395,-0.425,
5287,-0.4,-0.425,
5288,-0.4,-0.44,
5289,-0.415,-0.44,
5290,-0.425,-0.43,
5291,-0.455,-0.43,
5292,-0.465,-0.43,
5293,-0.455,-0.415,
5294,-0.41,-0.41,
5295,-0.34,-0.42,
5296,-0.24,-0.465,
5297,-0.085,-0.5,
5298,0.075,-0.545,
5299,0.26,-0.63,
5300,0.46,-0.685,
5301,0.635,-0.74,
5302,0.75,-0.75,N
5303,0.755,-0.735,
5304,0.655,-0.685,
5305,0.43,-0.6,
5306,0.185,-0.525,
5307,-0.06,-0.425,
5308,-0.24,-0.365,
5309,-0.36,-0.325,
5310,-0.4,-0.335,
5311,-0.375,-0.36,
5312,-0.335,-0.415,
5313,-0.31,-0.45,
5314,-0.295,-0.49,
5315,-0.295,-0.495,
5316,-0.305,-0.49,
5317,-0.315,-0.475,
5318,-0.33,-0.46,
5319,-0.345,-0.43,
5320,-0.355,-0.425,
5321,-0.36,-0.435,
5322,-0.36,-0.44,
5323,-0.365,-0.435,
5324,-0.375,-0.45,
5325,-0.385,-0.455,
5326,-0.385,-0.46,
5327,-0.38,-0.435,
5328,-0.37,-0.44,
5329,-0.375,-0.43,
5330,-0.36,-0.42,
5331,-0.36,-0.42,
5332,-0.365,-0.415,
5333,-0.36,-0.42,
5334,-0.355,-0.43,
5335,-0.36,-0.43,
5336,-0.37,-0.435,
5337,-0.375,-0.445,
5338,-0.38,-0.445,
5339,-0.385,-0.435,
5340,-0.375,-0.43,
5341,-0.375,-0.42,
5342,-0.36,-0.43,
5343,-0.35,-0.425,
5344,-0.355,-0.42,
5345,-0.35,-0.43,
5346,-0.35,-0.425,
5347,-0.35,-0.43,
5348,-0.36,-0.445,
5349,-0.37,-0.45,
5350,-0.385,-0.45,
5351,-0.38,-0.45,
5352,-0.38,-0.435,
5353,-0.36,-0.435,
5354,-0.35,-0.425,
5355,-0.34,-0.42,
5356,-0.33,-0.425,
5357,-0.335,-0.43,
5358,-0.34,-0.425,
5359,-0.345,-0.435,
5360,-0.35,-0.445,
5361,-0.355,-0.455,
5362,-0.355,-0.46,
5363,-0.365,-0.455,
5364,-0.355,-0.45,
5365,-0.345,-0.44,
5366,-0.34,-0.445,
5367,-0.34,-0.435,
5368,-0.33,-0.435,
5369,-0.32,-0.445,
5370,-0.325,-0.44,
5371,-0.33,-0.45,
5372,-0.34,-0.47,
5373,-0.345,-0.47,
5374,-0.355,-0.475,
5375,-0.35,-0.47,
5376,-0.355,-0.47,
5377,-0.345,-0.455,
5378,-0.34,-0.44,
5379,-0.335,-0.45,
5380,-0.33,-0.45,
5381,-0.325,-0.465,
5382,-0.335,-0.465,
5383,-0.335,-0.47,
5384,-0.345,-0.485,
5385,-0.345,-0.49,
5386,-0.35,-0.495,
5387,-0.345,-0.485,
5388,-0.34,-0.49,
5389,-0.34,-0.475,
5390,-0.33,-0.47,
5391,-0.315,-0.46,
5392,-0.305,-0.47,
5393,-0.3,-0.47,
5394,-0.285,-0.48,
5395,-0.295,-0.49,
5396,-0.29,-0.5,
5397,-0.29,-0.505,
5398,-0.29,-0.51,
5399,-0.285,-0.495,
5400,-0.275,-0.5,
5401,-0.265,-0.505,
5402,-0.255,-0.5,
5403,-0.23,-0.495,
5404,-0.225,-0.495,
5405,-0.21,-0.495,
5406,-0.2,-0.5,
5407,-0.21,-0.515,
5408,-0.205,-0.51,
5409,-0.22,-0.53,
5410,-0.215,-0.53,
5411,-0.235,-0.52,
5412,-0.24,-0.52,
5413,-0.24,-0.505,
5414,-0.235,-0.5,
5415,-0.235,-0.49,
5416,-0.23,-0.49,
5417,-0.245,-0.485,
5418,-0.25,-0.485,
5419,-0.25,-0.495,
5420,-0.26,-0.495,
5421,-0.28,-0.505,
5422,-0.28,-0.49,
5423,-0.29,-0.485,
5424,-0.295,-0.485,
5425,-0.31,-0.465,
5426,-0.305,-0.47,
5427,-0.305,-0.45,
5428,-0.31,-0.45,
5429,-0.305,-0.455,
5430,-0.305,-0.45,
5431,-0.315,-0.45,
5432,-0.325,-0.46,
5433,-0.325,-0.465,
5434,-0.33,-0.475,
5435,-0.34,-0.46,
5436,-0.335,-0.46,
5437,-0.33,-0.455,
5438,-0.335,-0.45,
5439,-0.325,-0.44,
5440,-0.325,-0.44,
5441,-0.325,-0.445,
5442,-0.33,-0.45,
5443,-0.335,-0.445,
5444,-0.335,-0.46,
5445,-0.345,-0.465,
5446,-0.35,-0.46,
5447,-0.36,-0.46,
5448,-0.36,-0.445,
5449,-0.35,-0.445,
5450,-0.35,-0.445,
5451,-0.34,-0.445,
5452,-0.34,-0.44,
5453,-0.34,-0.44,
5454,-0.355,-0.44,
5455,-0.355,-0.45,
5456,-0.36,-0.46,
5457,-0.36,-0.465,
5458,-0.365,-0.465,
5459,-0.365,-0.455,
5460,-0.355,-0.44,
5461,-0.36,-0.44,
5462,-0.35,-0.43,
5463,-0.36,-0.43,
5464,-0.35,-0.425,
5465,-0.35,-0.43,
5466,-0.35,-0.42,
5467,-0.355,-0.435,
5468,-0.365,-0.445,
5469,-0.375,-0.46,
5470,-0.365,-0.46,
5471,-0.37,-0.435,
5472,-0.375,-0.44,
5473,-0.365,-0.43,
5474,-0.36,-0.435,
5475,-0.35,-0.42,
5476,-0.35,-0.425,
5477,-0.34,-0.43,
5478,-0.335,-0.425,
5479,-0.34,-0.425,
5480,-0.33,-0.435,
5481,-0.335,-0.45,
5482,-0.33,-0.46,
5483,-0.32,-0.44,
5484,-0.315,-0.425,
5485,-0.31,-0.43,
5486,-0.3,-0.41,
5487,-0.285,-0.41,
5488,-0.285,-0.4,
5489,-0.28,-0.405,
5490,-0.275,-0.415,
5491,-0.255,-0.43,
5492,-0.255,-0.45,
5493,-0.26,-0.455,
5494,-0.26,-0.475,
5495,-0.275,-0.475,
5496,-0.29,-0.48,
5497,-0.305,-0.49,
5498,-0.31,-0.47,
5499,-0.305,-0.475,
5500,-0.31,-0.465,
5501,-0.295,-0.47,
5502,-0.315,-0.46,
5503,-0.315,-0.465,
5504,-0.325,-0.475,
5505,-0.34,-0.475,
5506,-0.345,-0.475,
5507,-0.35,-0.475,
5508,-0.35,-0.465,
5509,-0.37,-0.45,
5510,-0.38,-0.45,
5511,-0.38,-0.415,
5512,-0.38,-0.415,
5513,-0.385,-0.43,
5514,-0.39,-0.42,
5515,-0.395,-0.42,
5516,-0.4,-0.44,
5517,-0.405,-0.45,
5518,-0.405,-0.45,
5519,-0.405,-0.445,
5520,-0.4,-0.435,
5521,-0.4,-0.435,
5522,-0.39,-0.42,
5523,-0.4,-0.435,
5524,-0.4,-0.42,
5525,-0.395,-0.415,
5526,-0.385,-0.42,
5527,-0.385,-0.435,
5528,-0.39,-0.44,
5529,-0.395,-0.445,
5530,-0.405,-0.445,
5531,-0.43,-0.445,
5532,-0.435,-0.445,
5533,-0.445,-0.42,
5534,-0.42,-0.43,
5535,-0.36,-0.42,
5536,-0.275,-0.43,
5537,-0.135,-0.475,
5538,0.01,-0.52,
5539,0.195,-0.585,
5540,0.4,-0.67,
5541,0.585,-0.735,
5542,0.75,-0.775,
5543,0.83,-0.775,N
5544,0.79,-0.735,
5545,0.64,-0.665,
5546,0.425,-0.585,
5547,0.185,-0.485,
5548,-0.045,-0.405,
5549,-0.215,-0.345,
5550,-0.305,-0.305,
5551,-0.34,-0.31,
5552,-0.33,-0.35,
5553,-0.315,-0.4,
5554,-0.295,-0.455,
5555,-0.295,-0.475,
5556,-0.295,-0.485,
5557,-0.305,-0.485,
5558,-0.315,-0.465,
5559,-0.315,-0.445,
5560,-0.325,-0.435,
5561,-0.34,-0.435,
5562,-0.345,-0.44,
5563,-0.36,-0.44,
5564,-0.375,-0.445,
5565,-0.38,-0.45,
5566,-0.385,-0.455,
5567,-0.39,-0.445,
5568,-0.38,-0.44,
5569,-0.38,-0.44,
5570,-0.375,-0.415,
5571,-0.365,-0.42,
5572,-0.355,-0.41,
5573,-0.355,-0.42,
5574,-0.355,-0.43,
5575,-0.355,-0.43,
5576,-0.36,-0.435,
5577,-0.375,-0.445,
5578,-0.38,-0.455,
5579,-0.385,-0.44,
5580,-0.38,-0.44,
5581,-0.375,-0.43,
5582,-0.365,-0.43,
5583,-0.36,-0.42,
5584,-0.355,-0.425,
5585,-0.35,-0.425,
5586,-0.35,-0.435,
5587,-0.35,-0.445,
5588,-0.36,-0.445,
5589,-0.36,-0.45,
5590,-0.365,-0.455,
5591,-0.37,-0.445,
5592,-0.37,-0.45,
5593,-0.365,-0.44,
5594,-0.36,-0.425,
5595,-0.35,-0.43,
5596,-0.355,-0.425,
5597,-0.35,-0.435,
5598,-0.335,-0.435,
5599,-0.33,-0.445,
5600,-0.345,-0.455,
5601,-0.335,-0.46,
5602,-0.35,-0.47,
5603,-0.355,-0.46,
5604,-0.355,-0.455,
5605,-0.355,-0.455,
5606,-0.345,-0.445,
5607,-0.33,-0.445,
5608,-0.32,-0.435,
5609,-0.33,-0.445,
5610,-0.325,-0.445,
5611,-0.33,-0.46,
5612,-0.33,-0.465,
5613,-0.335,-0.47,
5614,-0.335,-0.48,
5615,-0.34,-0.475,
5616,-0.335,-0.475,
5617,-0.335,-0.46,
5618,-0.335,-0.46,
5619,-0.335,-0.455,
5620,-0.32,-0.455,
5621,-0.32,-0.46,
5622,-0.32,-0.47,
5623,-0.32,-0.475,
5624,-0.33,-0.485,
5625,-0.335,-0.495,
5626,-0.335,-0.485,
5627,-0.345,-0.495,
5628,-0.34,-0.49,
5629,-0.33,-0.485,
5630,-0.32,-0.48,
5631,-0.315,-0.475,
5632,-0.305,-0.48,
5633,-0.31,-0.48,
5634,-0.3,-0.485,
5635,-0.3,-0.495,
5636,-0.3,-0.51,
5637,-0.295,-0.5,
5638,-0.29,-0.5,
5639,-0.29,-0.5,
5640,-0.27,-0.515,
5641,-0.27,-0.505,
5642,-0.26,-0.495,
5643,-0.24,-0.495,
5644,-0.23,-0.495,
5645,-0.22,-0.505,
5646,-0.225,-0.51,
5647,-0.22,-0.51,
5648,-0.215,-0.525,
5649,-0.23,-0.535,
5650,-0.23,-0.535,
5651,-0.235,-0.52,
5652,-0.235,-0.53,
5653,-0.23,-0.515,
5654,-0.24,-0.505,
5655,-0.225,-0.5,
5656,-0.24,-0.485,
5657,-0.24,-0.5,
5658,-0.265,-0.49,
5659,-0.265,-0.49,
5660,-0.275,-0.485,
5661,-0.285,-0.49,
5662,-0.29,-0.485,
5663,-0.3,-0.485,
5664,-0.31,-0.48,
5665,-0.31,-0.46,
5666,-0.305,-0.46,
5667,-0.315,-0.455,
5668,-0.31,-0.435,
5669,-0.305,-0.44,
5670,-0.305,-0.445,
5671,-0.305,-0.445,
5672,-0.315,-0.46,
5673,-0.33,-0.47,
5674,-0.34,-0.475,
5675,-0.345,-0.455,
5676,-0.355,-0.45,
5677,-0.345,-0.445,
5678,-0.35,-0.435,
5679,-0.345,-0.43,
5680,-0.345,-0.425,
5681,-0.335,-0.425,
5682,-0.33,-0.425,
5683,-0.33,-0.43,
5684,-0.335,-0.445,
5685,-0.355,-0.45,
5686,-0.36,-0.46,
5687,-0.375,-0.445,
5688,-0.375,-0.44,
5689,-0.365,-0.435,
5690,-0.36,-0.43,
5691,-0.36,-0.415,
5692,-0.345,-0.42,
5693,-0.35,-0.415,
5694,-0.35,-0.425,
5695,-0.355,-0.42,
5696,-0.355,-0.435,
5697,-0.37,-0.45,
5698,-0.37,-0.45,
5699,-0.375,-0.43,
5700,-0.38,-0.435,
5701,-0.38,-0.435,
5702,-0.375,-0.425,
5703,-0.37,-0.425,
5704,-0.37,-0.41,
5705,-0.37,-0.415,
5706,-0.365,-0.415,
5707,-0.365,-0.425,
5708,-0.38,-0.43,
5709,-0.375,-0.43,
5710,-0.375,-0.44,
5711,-0.375,-0.43,
5712,-0.38,-0.43,
5713,-0.37,-0.415,
5714,-0.37,-0.42,
5715,-0.37,-0.41,
5716,-0.365,-0.4,
5717,-0.345,-0.41,
5718,-0.35,-0.42,
5719,-0.345,-0.42,
5720,-0.335,-0.425,
5721,-0.335,-0.435,
5722,-0.335,-0.43,
5723,-0.33,-0.425,
5724,-0.32,-0.415,
5725,-0.315,-0.395,
5726,-0.305,-0.4,
5727,-0.3,-0.385,
5728,-0.295,-0.385,
5729,-0.28,-0.39,
5730,-0.27,-0.395,
5731,-0.265,-0.42,
5732,-0.265,-0.44,
5733,-0.275,-0.445,
5734,-0.29,-0.47,
5735,-0.31,-0.46,
5736,-0.315,-0.46,
5737,-0.315,-0.46,
5738,-0.305,-0.47,
5739,-0.31,-0.445,
5740,-0.305,-0.445,
5741,-0.31,-0.45,
5742,-0.315,-0.435,
5743,-0.32,-0.44,
5744,-0.335,-0.44,
5745,-0.34,-0.46,
5746,-0.345,-0.455,
5747,-0.36,-0.445,
5748,-0.38,-0.435,
5749,-0.38,-0.435,
5750,-0.39,-0.42,
5751,-0.385,-0.415,
5752,-0.385,-0.4,
5753,-0.385,-0.415,
5754,-0.385,-0.41,
5755,-0.385,-0.425,
5756,-0.385,-0.425,
5757,-0.39,-0.43,
5758,-0.405,-0.43,
5759,-0.4,-0.42,
5760,-0.4,-0.415,
5761,-0.395,-0.405,
5762,-0.39,-0.405,
5763,-0.38,-0.41,
5764,-0.375,-0.405,
5765,-0.375,-0.41,
5766,-0.38,-0.4,
5767,-0.385,-0.405,
5768,-0.39,-0.415,
5769,-0.4,-0.425,
5770,-0.42,-0.43,
5771,-0.445,-0.44,
5772,-0.465,-0.425,
5773,-0.465,-0.41,
5774,-0.435,-0.4,
5775,-0.375,-0.415,
5776,-0.27,-0.425,
5777,-0.145,-0.475,
5778,0.015,-0.515,
5779,0.21,-0.57,
5780,0.425,-0.64,
5781,0.635,-0.68,
5782,0.8,-0.72,
5783,0.875,-0.705,N
5784,0.815,-0.67,
5785,0.65,-0.6,
5786,0.4,-0.51,
5787,0.12,-0.425,
5788,-0.105,-0.34,
5789,-0.275,-0.31,
5790,-0.36,-0.29,
5791,-0.375,-0.305,
5792,-0.365,-0.33,
5793,-0.335,-0.395,
5794,-0.32,-0.43,
5795,-0.31,-0.455,
5796,-0.315,-0.475,
5797,-0.31,-0.465,
5798,-0.32,-0.45,
5799,-0.32,-0.44,
5800,-0.325,-0.425,
5801,-0.345,-0.42,
5802,-0.355,-0.42,
5803,-0.37,-0.42,
5804,-0.385,-0.44,
5805,-0.395,-0.435,
5806,-0.4,-0.435,
5807,-0.4,-0.43,
5808,-0.395,-0.425,
5809,-0.39,-0.42,
5810,-0.38,-0.405,
5811,-0.375,-0.405,
5812,-0.36,-0.405,
5813,-0.36,-0.41,
5814,-0.355,-0.41,
5815,-0.365,-0.42,
5816,-0.37,-0.43,
5817,-0.38,-0.44,
5818,-0.385,-0.445,
5819,-0.385,-0.435,
5820,-0.39,-0.43,
5821,-0.38,-0.425,
5822,-0.365,-0.415,
5823,-0.365,-0.4,
5824,-0.355,-0.405,
5825,-0.35,-0.41,
5826,-0.36,-0.41,
5827,-0.365,-0.425,
5828,-0.365,-0.435,
5829,-0.37,-0.44,
5830,-0.37,-0.445,
5831,-0.37,-0.43,
5832,-0.375,-0.435,
5833,-0.36,-0.44,
5834,-0.35,-0.43,
5835,-0.35,-0.425,
5836,-0.35,-0.415,
5837,-0.345,-0.42,
5838,-0.35,-0.42,
5839,-0.36,-0.43,
5840,-0.355,-0.43,
5841,-0.36,-0.46,
5842,-0.36,-0.45,
5843,-0.355,-0.445,
5844,-0.365,-0.44,
5845,-0.355,-0.425,
5846,-0.345,-0.43,
5847,-0.34,-0.42,
5848,-0.335,-0.43,
5849,-0.34,-0.44,
5850,-0.335,-0.43,
5851,-0.335,-0.45,
5852,-0.355,-0.45,
5853,-0.355,-0.465,
5854,-0.36,-0.465,
5855,-0.36,-0.48,
5856,-0.36,-0.46,
5857,-0.355,-0.45,
5858,-0.35,-0.455,
5859,-0.335,-0.445,
5860,-0.325,-0.445,
5861,-0.33,-0.45,
5862,-0.33,-0.455,
5863,-0.335,-0.46,
5864,-0.335,-0.465,
5865,-0.345,-0.48,
5866,-0.355,-0.485,
5867,-0.365,-0.485,
5868,-0.365,-0.475,
5869,-0.36,-0.47,
5870,-0.355,-0.47,
5871,-0.34,-0.465,
5872,-0.34,-0.455,
5873,-0.33,-0.465,
5874,-0.325,-0.465,
5875,-0.325,-0.475,
5876,-0.32,-0.49,
5877,-0.32,-0.49,
5878,-0.325,-0.505,
5879,-0.32,-0.495,
5880,-0.32,-0.49,
5881,-0.305,-0.49,
5882,-0.285,-0.495,
5883,-0.275,-0.49,
5884,-0.25,-0.48,
5885,-0.255,-0.495,
5886,-0.23,-0.495,
5887,-0.235,-0.505,
5888,-0.245,-0.51,
5889,-0.24,-0.51,
5890,-0.25,-0.51,
5891,-0.245,-0.51,
5892,-0.255,-0.505,
5893,-0.255,-0.495,
5894,-0.24,-0.485,
5895,-0.24,-0.47,
5896,-0.24,-0.47,
5897,-0.235,-0.48,
5898,-0.245,-0.47,
5899,-0.255,-0.48,
5900,-0.265,-0.48,
5901,-0.29,-0.475,
5902,-0.29,-0.48,
5903,-0.305,-0.47,
5904,-0.315,-0.46,
5905,-0.31,-0.455,
5906,-0.315,-0.445,
5907,-0.295,-0.435,
5908,-0.305,-0.43,
5909,-0.305,-0.43,
5910,-0.305,-0.43,
5911,-0.315,-0.43,
5912,-0.325,-0.44,
5913,-0.335,-0.445,
5914,-0.34,-0.45,
5915,-0.34,-0.445,
5916,-0.345,-0.435,
5917,-0.345,-0.43,
5918,-0.34,-0.425,
5919,-0.33,-0.41,
5920,-0.335,-0.415,
5921,-0.325,-0.42,
5922,-0.32,-0.41,
5923,-0.34,-0.42,
5924,-0.35,-0.425,
5925,-0.35,-0.43,
5926,-0.36,-0.44,
5927,-0.36,-0.425,
5928,-0.37,-0.425,
5929,-0.36,-0.415,
5930,-0.355,-0.41,
5931,-0.36,-0.415,
5932,-0.34,-0.395,
5933,-0.34,-0.4,
5934,-0.34,-0.41,
5935,-0.34,-0.405,
5936,-0.34,-0.42,
5937,-0.345,-0.43,
5938,-0.35,-0.43,
5939,-0.36,-0.43,
5940,-0.36,-0.425,
5941,-0.36,-0.415,
5942,-0.355,-0.41,
5943,-0.35,-0.405,
5944,-0.35,-0.395,
5945,-0.345,-0.4,
5946,-0.34,-0.4,
5947,-0.35,-0.395,
5948,-0.36,-0.41,
5949,-0.37,-0.425,
5950,-0.37,-0.425,
5951,-0.365,-0.415,
5952,-0.375,-0.42,
5953,-0.365,-0.42,
5954,-0.365,-0.41,
5955,-0.36,-0.4,
5956,-0.355,-0.395,
5957,-0.355,-0.4,
5958,-0.345,-0.405,
5959,-0.35,-0.41,
5960,-0.365,-0.41,
5961,-0.365,-0.415,
5962,-0.37,-0.425,
5963,-0.365,-0.425,
5964,-0.355,-0.41,
5965,-0.35,-0.4,
5966,-0.33,-0.395,
5967,-0.32,-0.38,
5968,-0.315,-0.38,
5969,-0.3,-0.38,
5970,-0.305,-0.38,
5971,-0.305,-0.38,
5972,-0.31,-0.39,
5973,-0.305,-0.405,
5974,-0.3,-0.41,
5975,-0.295,-0.41,
5976,-0.27,-0.415,
5977,-0.265,-0.425,
5978,-0.26,-0.43,
5979,-0.275,-0.425,
5980,-0.28,-0.435,
5981,-0.29,-0.445,
5982,-0.295,-0.44,
5983,-0.3,-0.44,
5984,-0.31,-0.45,
5985,-0.32,-0.46,
5986,-0.33,-0.47,
5987,-0.33,-0.45,
5988,-0.34,-0.445,
5989,-0.35,-0.445,
5990,-0.345,-0.425,
5991,-0.35,-0.415,
5992,-0.355,-0.405,
5993,-0.365,-0.405,
5994,-0.365,-0.4,
5995,-0.375,-0.405,
5996,-0.385,-0.415,
5997,-0.39,-0.42,
5998,-0.395,-0.42,
5999,-0.395,-0.43,
6000,-0.4,-0.425,
6001,-0.395,-0.415,
6002,-0.39,-0.39,
6003,-0.38,-0.4,
6004,-0.38,-0.385,
6005,-0.375,-0.395,
6006,-0.36,-0.405,
6007,-0.375,-0.42,
6008,-0.38,-0.42,
6009,-0.39,-0.42,
6010,-0.385,-0.43,
6011,-0.405,-0.42,
6012,-0.42,-0.425,
6013,-0.435,-0.415,
6014,-0.45,-0.39,
6015,-0.435,-0.39,
6016,-0.385,-0.375,
6017,-0.31,-0.4,
6018,-0.17,-0.435,
6019,-0.005,-0.495,
6020,0.185,-0.55,
6021,0.4,-0.625,
6022,0.625,-0.675,
6023,0.785,-0.7,
6024,0.86,-0.695,N
6025,0.81,-0.65,
6026,0.63,-0.585,
6027,0.365,-0.5,
6028,0.07,-0.415,
6029,-0.175,-0.345,
6030,-0.325,-0.31,
6031,-0.39,-0.3,
6032,-0.385,-0.335,
6033,-0.34,-0.385,
6034,-0.305,-0.44,
6035,-0.275,-0.465,
6036,-0.275,-0.475,
6037,-0.265,-0.475,
6038,-0.275,-0.455,
6039,-0.285,-0.45,
6040,-0.305,-0.425,
6041,-0.315,-0.425,
6042,-0.325,-0.41,
6043,-0.34,-0.415,
6044,-0.335,-0.42,
6045,-0.34,-0.445,
6046,-0.355,-0.44,
6047,-0.35,-0.425,
6048,-0.36,-0.43,
6049,-0.36,-0.42,
6050,-0.355,-0.425,
6051,-0.35,-0.415,
6052,-0.335,-0.4,
6053,-0.335,-0.405,
6054,-0.33,-0.41,
6055,-0.335,-0.41,
6056,-0.34,-0.425,
6057,-0.35,-0.43,
6058,-0.35,-0.43,
6059,-0.355,-0.435,
6060,-0.355,-0.43,
6061,-0.355,-0.42,
6062,-0.34,-0.42,
6063,-0.34,-0.41,
6064,-0.325,-0.405,
6065,-0.33,-0.405,
6066,-0.32,-0.41,
6067,-0.32,-0.415,
6068,-0.33,-0.435,
6069,-0.325,-0.435,
6070,-0.33,-0.44,
6071,-0.325,-0.43,
6072,-0.335,-0.435,
6073,-0.335,-0.435,
6074,-0.325,-0.43,
6075,-0.315,-0.415,
6076,-0.295,-0.415,
6077,-0.31,-0.415,
6078,-0.3,-0.415,
6079,-0.315,-0.43,
6080,-0.315,-0.44,
6081,-0.32,-0.455,
6082,-0.325,-0.46,
6083,-0.33,-0.455,
6084,-0.33,-0.455,
6085,-0.32,-0.45,
6086,-0.325,-0.445,
6087,-0.31,-0.43,
6088,-0.305,-0.425,
6089,-0.295,-0.43,
6090,-0.295,-0.445,
6091,-0.3,-0.45,
6092,-0.315,-0.455,
6093,-0.315,-0.46,
6094,-0.315,-0.475,
6095,-0.32,-0.475,
6096,-0.32,-0.465,
6097,-0.32,-0.46,
6098,-0.32,-0.46,
6099,-0.305,-0.45,
6100,-0.3,-0.445,
6101,-0.305,-0.455,
6102,-0.3,-0.455,
6103,-0.3,-0.46,
6104,-0.305,-0.47,
6105,-0.31,-0.485,
6106,-0.325,-0.48,
6107,-0.325,-0.485,
6108,-0.325,-0.48,
6109,-0.325,-0.48,
6110,-0.325,-0.47,
6111,-0.31,-0.465,
6112,-0.31,-0.46,
6113,-0.29,-0.46,
6114,-0.285,-0.47,
6115,-0.28,-0.48,
6116,-0.285,-0.495,
6117,-0.295,-0.5,
6118,-0.295,-0.505,
6119,-0.28,-0.5,
6120,-0.27,-0.49,
6121,-0.26,-0.495,
6122,-0.24,-0.49,
6123,-0.225,-0.49,
6124,-0.21,-0.485,
6125,-0.2,-0.495,
6126,-0.19,-0.49,
6127,-0.19,-0.5,
6128,-0.195,-0.51,
6129,-0.205,-0.52,
6130,-0.21,-0.525,
6131,-0.215,-0.515,
6132,-0.22,-0.505,
6133,-0.215,-0.5,
6134,-0.21,-0.5,
6135,-0.21,-0.49,
6136,-0.205,-0.48,
6137,-0.21,-0.485,
6138,-0.22,-0.475,
6139,-0.23,-0.495,
6140,-0.24,-0.495,
6141,-0.25,-0.5,
6142,-0.26,-0.505,
6143,-0.26,-0.49,
6144,-0.26,-0.48,
6145,-0.26,-0.485,
6146,-0.265,-0.475,
6147,-0.265,-0.47,
6148,-0.27,-0.45,
6149,-0.265,-0.455,
6150,-0.265,-0.46,
6151,-0.275,-0.46,
6152,-0.28,-0.465,
6153,-0.285,-0.47,
6154,-0.285,-0.475,
6155,-0.295,-0.475,
6156,-0.29,-0.465,
6157,-0.305,-0.465,
6158,-0.3,-0.46,
6159,-0.29,-0.45,
6160,-0.295,-0.45,
6161,-0.29,-0.44,
6162,-0.285,-0.45,
6163,-0.29,-0.445,
6164,-0.3,-0.455,
6165,-0.305,-0.47,
6166,-0.315,-0.465,
6167,-0.325,-0.465,
6168,-0.32,-0.465,
6169,-0.305,-0.465,
6170,-0.305,-0.45,
6171,-0.31,-0.45,
6172,-0.3,-0.435,
6173,-0.3,-0.44,
6174,-0.305,-0.44,
6175,-0.305,-0.455,
6176,-0.31,-0.465,
6177,-0.315,-0.465,
6178,-0.325,-0.465,
6179,-0.335,-0.46,
6180,-0.33,-0.45,
6181,-0.33,-0.455,
6182,-0.33,-0.435,
6183,-0.315,-0.45,
6184,-0.315,-0.43,
6185,-0.315,-0.43,
6186,-0.32,-0.435,
6187,-0.31,-0.44,
6188,-0.32,-0.445,
6189,-0.325,-0.46,
6190,-0.335,-0.465,
6191,-0.34,-0.455,
6192,-0.34,-0.46,
6193,-0.335,-0.45,
6194,-0.325,-0.435,
6195,-0.33,-0.435,
6196,-0.32,-0.43,
6197,-0.32,-0.43,
6198,-0.32,-0.445,
6199,-0.32,-0.44,
6200,-0.315,-0.44,
6201,-0.315,-0.46,
6202,-0.315,-0.45,
6203,-0.32,-0.445,
6204,-0.305,-0.445,
6205,-0.29,-0.44,
6206,-0.285,-0.425,
6207,-0.275,-0.4,
6208,-0.26,-0.415,
6209,-0.26,-0.41,
6210,-0.255,-0.41,
6211,-0.25,-0.415,
6212,-0.26,-0.425,
6213,-0.255,-0.435,
6214,-0.255,-0.45,
6215,-0.24,-0.45,
6216,-0.25,-0.46,
6217,-0.24,-0.465,
6218,-0.24,-0.485,
6219,-0.265,-0.475,
6220,-0.255,-0.47,
6221,-0.27,-0.475,
6222,-0.28,-0.48,
6223,-0.28,-0.485,
6224,-0.29,-0.475,
6225,-0.3,-0.485,
6226,-0.315,-0.495,
6227,-0.315,-0.485,
6228,-0.32,-0.48,
6229,-0.325,-0.485,
6230,-0.32,-0.455,
6231,-0.32,-0.45,
6232,-0.325,-0.44,
6233,-0.34,-0.44,
6234,-0.345,-0.435,
6235,-0.35,-0.445,
6236,-0.36,-0.44,
6237,-0.38,-0.455,
6238,-0.38,-0.445,
6239,-0.385,-0.45,
6240,-0.39,-0.45,
6241,-0.38,-0.45,
6242,-0.375,-0.44,
6243,-0.36,-0.43,
6244,-0.355,-0.43,
6245,-0.35,-0.43,
6246,-0.35,-0.43,
6247,-0.345,-0.43,
6248,-0.365,-0.445,
6249,-0.38,-0.455,
6250,-0.375,-0.465,
6251,-0.37,-0.45,
6252,-0.375,-0.45,
6253,-0.375,-0.445,
6254,-0.385,-0.43,
6255,-0.405,-0.425,
6256,-0.42,-0.41,
6257,-0.425,-0.41,
6258,-0.38,-0.41,
6259,-0.315,-0.425,
6260,-0.205,-0.47,
6261,-0.065,-0.52,
6262,0.11,-0.585,
6263,0.305,-0.645,
6264,0.525,-0.69,
6265,0.73,-0.725,
6266,0.885,-0.72,N
6267,0.915,-0.7,
6268,0.805,-0.655,
6269,0.57,-0.59,
6270,0.27,-0.525,
6271,-0.04,-0.46,
6272,-0.265,-0.41,
6273,-0.385,-0.39,
6274,-0.4,-0.4,
6275,-0.355,-0.425,
6276,-0.295,-0.465,
6277,-0.245,-0.5,
6278,-0.215,-0.505,
6279,-0.215,-0.5,
6280,-0.225,-0.475,
6281,-0.255,-0.475,
6282,-0.285,-0.46,
6283,-0.305,-0.47,
6284,-0.32,-0.465,
6285,-0.34,-0.47,
6286,-0.345,-0.47,
6287,-0.345,-0.47,
6288,-0.35,-0.47,
6289,-0.345,-0.455,
6290,-0.34,-0.455,
6291,-0.34,-0.44,
6292,-0.33,-0.43,
6293,-0.34,-0.44,
6294,-0.325,-0.44,
6295,-0.345,-0.44,
6296,-0.35,-0.45,
6297,-0.355,-0.455,
6298,-0.37,-0.46,
6299,-0.36,-0.46,
6300,-0.37,-0.455,
6301,-0.375,-0.45,
6302,-0.355,-0.435,
6303,-0.345,-0.445,
6304,-0.34,-0.43,
6305,-0.34,-0.435,
6306,-0.33,-0.44,
6307,-0.33,-0.445,
6308,-0.35,-0.46,
6309,-0.34,-0.465,
6310,-0.34,-0.48,
6311,-0.345,-0.47,
6312,-0.345,-0.465,
6313,-0.34,-0.465,
6314,-0.33,-0.46,
6315,-0.32,-0.45,
6316,-0.325,-0.435,
6317,-0.31,-0.445,
6318,-0.31,-0.445,
6319,-0.315,-0.45,
6320,-0.32,-0.455,
6321,-0.32,-0.465,
6322,-0.325,-0.475,
6323,-0.325,-0.48,
6324,-0.325,-0.48,
6325,-0.325,-0.465,
6326,-0.31,-0.46,
6327,-0.31,-0.45,
6328,-0.305,-0.44,
6329,-0.295,-0.45,
6330,-0.29,-0.45,
6331,-0.3,-0.46,
6332,-0.295,-0.47,
6333,-0.305,-0.485,
6334,-0.32,-0.49,
6335,-0.325,-0.485,
6336,-0.32,-0.485,
6337,-0.31,-0.48,
6338,-0.31,-0.47,
6339,-0.3,-0.47,
6340,-0.3,-0.46,
6341,-0.29,-0.465,
6342,-0.285,-0.47,
6343,-0.29,-0.49,
6344,-0.305,-0.49,
6345,-0.305,-0.495,
6346,-0.31,-0.495,
6347,-0.32,-0.495,
6348,-0.325,-0.5,
6349,-0.325,-0.495,
6350,-0.31,-0.49,
6351,-0.31,-0.485,
6352,-0.295,-0.48,
6353,-0.295,-0.49,
6354,-0.285,-0.49,
6355,-0.29,-0.5,
6356,-0.29,-0.505,
6357,-0.3,-0.515,
6358,-0.3,-0.52,
6359,-0.305,-0.515,
6360,-0.295,-0.525,
6361,-0.295,-0.505,
6362,-0.28,-0.505,
6363,-0.26,-0.5,
6364,-0.245,-0.5,
6365,-0.245,-0.505,
6366,-0.23,-0.515,
6367,-0.215,-0.525,
6368,-0.22,-0.53,
6369,-0.225,-0.545,
6370,-0.22,-0.545,
6371,-0.215,-0.55,
6372,-0.22,-0.55,
6373,-0.215,-0.54,
6374,-0.21,-0.535,
6375,-0.2,-0.525,
6376,-0.19,-0.52,
6377,-0.2,-0.52,
6378,-0.195,-0.52,
6379,-0.2,-0.53,
6380,-0.21,-0.53,
6381,-0.225,-0.54,
6382,-0.235,-0.54,
6383,-0.24,-0.535,
6384,-0.25,-0.53,
6385,-0.26,-0.52,
6386,-0.25,-0.51,
6387,-0.255,-0.495,
6388,-0.255,-0.485,
6389,-0.255,-0.5,
6390,-0.26,-0.495,
6391,-0.275,-0.5,
6392,-0.28,-0.505,
6393,-0.29,-0.51,
6394,-0.305,-0.51,
6395,-0.315,-0.505,
6396,-0.325,-0.5,
6397,-0.31,-0.49,
6398,-0.305,-0.475,
6399,-0.305,-0.48,
6400,-0.3,-0.475,
6401,-0.3,-0.475,
6402,-0.295,-0.485,
6403,-0.305,-0.48,
6404,-0.31,-0.485,
6405,-0.32,-0.5,
6406,-0.32,-0.49,
6407,-0.325,-0.5,
6408,-0.335,-0.485,
6409,-0.33,-0.475,
6410,-0.32,-0.465,
6411,-0.315,-0.455,
6412,-0.31,-0.45,
6413,-0.3,-0.455,
6414,-0.31,-0.455,
6415,-0.315,-0.465,
6416,-0.335,-0.465,
