,MLII,V1,symbol
0,-0.215,0.095,
1,-0.215,0.095,
2,-0.215,0.095,
3,-0.215,0.095,
4,-0.215,0.095,
5,-0.215,0.095,
6,-0.215,0.095,
7,-0.215,0.095,
8,-0.21,0.095,
9,-0.2,0.11,+
10,-0.19,0.1,
11,-0.195,0.085,
12,-0.2,0.05,
13,-0.2,0.06,
14,-0.175,0.09,
15,-0.16,0.095,
16,-0.16,0.095,
17,-0.155,0.07,
18,-0.175,0.045,
19,-0.16,0.055,
20,-0.16,0.065,
21,-0.17,0.09,
22,-0.155,0.09,
23,-0.17,0.065,
24,-0.185,0.06,
25,-0.165,0.055,
26,-0.175,0.065,
27,-0.16,0.085,
28,-0.145,0.085,
29,-0.165,0.035,
30,-0.195,0.01,
31,-0.235,-0.045,
32,-0.255,-0.07,
33,-0.26,-0.075,
34,-0.25,-0.115,
35,-0.26,-0.175,
36,-0.27,-0.235,
37,-0.24,-0.265,
38,-0.145,-0.25,
39,-0.035,-0.22,
40,0.095,-0.19,
41,0.235,-0.18,
42,0.315,-0.18,
43,0.34,-0.185,
44,0.38,-0.15,
45,0.41,-0.06,
46,0.48,0.115,
47,0.59,0.375,
48,0.71,0.675,
49,0.795,0.94,
50,0.815,1.08,R
51,0.775,1.135,
52,0.71,1.185,
53,0.655,1.225,
54,0.58,1.28,
55,0.485,1.305,
56,0.37,1.305,
57,0.215,1.29,
58,0.02,1.22,
59,-0.145,1.135,
60,-0.265,1.035,
61,-0.315,0.965,
62,-0.345,0.9,
63,-0.35,0.895,
64,-0.39,0.895,
65,-0.405,0.895,
66,-0.465,0.905,
67,-0.51,0.91,
68,-0.49,0.965,
69,-0.445,1.01,
70,-0.39,1.04,
71,-0.375,1.07,
72,-0.345,1.07,
73,-0.295,1.075,
74,-0.23,1.065,
75,-0.18,1.025,
76,-0.16,0.945,
77,-0.16,0.845,
78,-0.2,0.725,
79,-0.24,0.59,
80,-0.26,0.445,
81,-0.275,0.365,
82,-0.275,0.255,
83,-0.27,0.195,
84,-0.28,0.145,
85,-0.27,0.145,
86,-0.265,0.125,
87,-0.265,0.105,
88,-0.26,0.085,
89,-0.275,0.06,
90,-0.285,0.045,
91,-0.285,0.06,
92,-0.285,0.07,
93,-0.28,0.07,
94,-0.285,0.035,
95,-0.28,0.01,
96,-0.3,0.01,
97,-0.29,0.025,
98,-0.29,0.05,
99,-0.29,0.04,
100,-0.28,0.035,
101,-0.285,0.0,
102,-0.3,-0.005,
103,-0.29,0.015,
104,-0.28,0.045,
105,-0.26,0.045,
106,-0.265,0.035,
107,-0.265,0.0,
108,-0.28,-0.015,
109,-0.28,0.0,
110,-0.27,0.015,
111,-0.26,0.04,
112,-0.265,0.035,
113,-0.27,0.02,
114,-0.28,-0.01,
115,-0.285,0.0,
116,-0.27,0.015,
117,-0.25,0.045,
118,-0.25,0.055,
119,-0.255,0.03,
120,-0.26,0.0,
121,-0.25,-0.005,
122,-0.24,0.025,
123,-0.235,0.05,
124,-0.225,0.045,
125,-0.225,0.03,
126,-0.24,0.01,
127,-0.23,0.01,
128,-0.21,0.03,
129,-0.19,0.035,
130,-0.19,0.055,
131,-0.205,0.055,
132,-0.215,0.025,
133,-0.215,0.02,
134,-0.195,0.035,
135,-0.195,0.075,
136,-0.175,0.08,
137,-0.175,0.075,
138,-0.18,0.045,
139,-0.175,0.045,
140,-0.165,0.07,
141,-0.165,0.1,
142,-0.135,0.115,
143,-0.135,0.09,
144,-0.14,0.09,
145,-0.135,0.085,
146,-0.13,0.11,
147,-0.11,0.125,
148,-0.09,0.14,
149,-0.085,0.14,
150,-0.1,0.125,
151,-0.095,0.13,
152,-0.08,0.14,
153,-0.065,0.165,
154,-0.065,0.18,
155,-0.085,0.185,
156,-0.075,0.175,
157,-0.07,0.18,
158,-0.055,0.18,
159,-0.035,0.195,
160,-0.035,0.215,
161,-0.035,0.22,
162,-0.035,0.215,
163,-0.03,0.215,
164,-0.02,0.22,
165,-0.015,0.23,
166,0.0,0.245,
167,0.005,0.255,
168,-0.005,0.26,
169,0.01,0.26,
170,0.035,0.265,
171,0.05,0.275,
172,0.05,0.295,
173,0.05,0.29,
174,0.045,0.29,
175,0.04,0.295,
176,0.035,0.295,
177,0.07,0.305,
178,0.07,0.315,
179,0.07,0.32,
180,0.065,0.315,
181,0.075,0.32,
182,0.07,0.32,
183,0.08,0.34,
184,0.1,0.35,
185,0.095,0.36,
186,0.085,0.345,
187,0.08,0.34,
188,0.095,0.35,
189,0.105,0.37,
190,0.125,0.375,
191,0.125,0.37,
192,0.125,0.37,
193,0.11,0.38,
194,0.13,0.385,
195,0.15,0.39,
196,0.145,0.405,
197,0.14,0.395,
198,0.115,0.405,
199,0.11,0.41,
200,0.125,0.4,
201,0.14,0.405,
202,0.145,0.42,
203,0.135,0.415,
204,0.13,0.425,
205,0.125,0.43,
206,0.125,0.435,
207,0.14,0.43,
208,0.14,0.44,
209,0.135,0.435,
210,0.13,0.45,
211,0.14,0.46,
212,0.145,0.46,
213,0.15,0.465,
214,0.14,0.46,
215,0.125,0.47,
216,0.115,0.48,
217,0.115,0.49,
218,0.13,0.495,
219,0.12,0.49,
220,0.115,0.49,
221,0.115,0.5,
222,0.1,0.51,
223,0.09,0.525,
224,0.1,0.53,
225,0.11,0.535,
226,0.105,0.54,
227,0.09,0.55,
228,0.075,0.57,
229,0.08,0.565,
230,0.085,0.585,
231,0.11,0.58,
232,0.105,0.58,
233,0.1,0.58,
234,0.085,0.6,
235,0.09,0.61,
236,0.105,0.63,
237,0.095,0.635,
238,0.095,0.615,
239,0.08,0.625,
240,0.07,0.62,
241,0.06,0.65,
242,0.07,0.66,
243,0.09,0.645,
244,0.09,0.635,
245,0.09,0.64,
246,0.085,0.63,
247,0.075,0.655,
248,0.085,0.66,
249,0.105,0.655,
250,0.115,0.645,
251,0.105,0.63,
252,0.11,0.64,
253,0.11,0.645,
254,0.12,0.65,
255,0.13,0.64,
256,0.145,0.605,
257,0.135,0.61,
258,0.125,0.61,
259,0.125,0.63,
260,0.135,0.64,
261,0.135,0.635,
262,0.15,0.625,
263,0.145,0.61,
264,0.145,0.61,
265,0.145,0.635,
266,0.16,0.65,
267,0.165,0.64,
268,0.175,0.63,
269,0.17,0.62,
270,0.165,0.61,
271,0.175,0.625,
272,0.165,0.64,
273,0.195,0.63,
274,0.195,0.625,
275,0.185,0.59,
276,0.185,0.59,
277,0.19,0.605,
278,0.2,0.62,
279,0.225,0.625,
280,0.22,0.605,
281,0.205,0.555,
282,0.185,0.525,
283,0.18,0.515,
284,0.185,0.525,
285,0.19,0.51,
286,0.19,0.475,
287,0.19,0.41,
288,0.2,0.365,
289,0.21,0.375,
290,0.275,0.395,
291,0.335,0.435,
292,0.39,0.45,
293,0.405,0.465,
294,0.405,0.475,
295,0.395,0.49,
296,0.42,0.53,
297,0.42,0.565,
298,0.405,0.565,
299,0.355,0.56,
300,0.285,0.515,
301,0.2,0.52,
302,0.11,0.5,
303,0.01,0.52,
304,-0.07,0.535,
305,-0.2,0.555,
306,-0.33,0.555,
307,-0.465,0.54,
308,-0.58,0.535,
309,-0.7,0.505,
310,-0.79,0.455,
311,-0.87,0.395,
312,-0.93,0.355,V
313,-0.975,0.31,
314,-0.985,0.305,
315,-0.965,0.305,
316,-0.93,0.32,
317,-0.87,0.35,
318,-0.8,0.385,
319,-0.705,0.42,
320,-0.605,0.455,
321,-0.495,0.475,
322,-0.445,0.455,
323,-0.445,0.4,
324,-0.47,0.305,
325,-0.525,0.2,
326,-0.57,0.085,
327,-0.63,-0.025,
328,-0.71,-0.135,
329,-0.8,-0.26,
330,-0.885,-0.385,
331,-0.94,-0.505,
332,-0.955,-0.615,
333,-0.975,-0.685,
334,-0.975,-0.74,
335,-0.975,-0.77,
336,-0.985,-0.81,
337,-1.0,-0.835,
338,-0.99,-0.85,
339,-0.985,-0.855,
340,-0.99,-0.87,
341,-1.005,-0.87,
342,-0.995,-0.88,
343,-1.005,-0.875,
344,-1.005,-0.89,
345,-0.995,-0.9,
346,-0.99,-0.905,
347,-1.01,-0.915,
348,-1.02,-0.92,
349,-1.025,-0.91,
350,-1.025,-0.92,
351,-1.02,-0.93,
352,-1.005,-0.95,
353,-1.025,-0.945,
354,-1.03,-0.95,
355,-1.03,-0.935,
356,-1.015,-0.935,
357,-1.015,-0.95,
358,-1.005,-0.97,
359,-1.015,-0.975,
360,-1.02,-0.965,
361,-1.03,-0.96,
362,-1.015,-0.945,
363,-0.98,-0.96,
364,-0.99,-0.98,
365,-0.99,-0.985,
366,-1.0,-0.975,
367,-1.005,-0.955,
368,-0.995,-0.94,
369,-0.985,-0.95,
370,-1.01,-0.96,
371,-1.01,-0.975,
372,-0.995,-0.97,
373,-1.0,-0.945,
374,-0.985,-0.925,
375,-0.965,-0.935,
376,-0.96,-0.94,
377,-0.965,-0.935,
378,-0.975,-0.93,
379,-0.96,-0.905,
380,-0.94,-0.895,
381,-0.92,-0.885,
382,-0.91,-0.9,
383,-0.91,-0.9,
384,-0.94,-0.88,
385,-0.945,-0.86,
386,-0.915,-0.83,
387,-0.895,-0.83,
388,-0.895,-0.835,
389,-0.905,-0.84,
390,-0.885,-0.825,
391,-0.875,-0.795,
392,-0.845,-0.77,
393,-0.82,-0.76,
394,-0.81,-0.785,
395,-0.81,-0.775,
396,-0.82,-0.77,
397,-0.81,-0.75,
398,-0.8,-0.725,
399,-0.8,-0.715,
400,-0.79,-0.73,
401,-0.8,-0.73,
402,-0.79,-0.725,
403,-0.775,-0.69,
404,-0.75,-0.65,
405,-0.74,-0.64,
406,-0.725,-0.64,
407,-0.72,-0.66,
408,-0.725,-0.65,
409,-0.72,-0.625,
410,-0.7,-0.58,
411,-0.7,-0.59,
412,-0.7,-0.6,
413,-0.7,-0.6,
414,-0.715,-0.6,
415,-0.71,-0.565,
416,-0.675,-0.535,
417,-0.665,-0.515,
418,-0.65,-0.51,
419,-0.65,-0.51,
420,-0.655,-0.51,
421,-0.645,-0.48,
422,-0.63,-0.44,
423,-0.61,-0.425,
424,-0.6,-0.44,
425,-0.605,-0.435,
426,-0.605,-0.435,
427,-0.6,-0.41,
428,-0.57,-0.365,
429,-0.55,-0.365,
430,-0.54,-0.36,
431,-0.56,-0.375,
432,-0.55,-0.375,
433,-0.54,-0.35,
434,-0.525,-0.315,
435,-0.5,-0.295,
436,-0.5,-0.3,
437,-0.505,-0.31,
438,-0.5,-0.305,
439,-0.495,-0.29,
440,-0.47,-0.265,
441,-0.455,-0.255,
442,-0.45,-0.26,
443,-0.45,-0.26,
444,-0.455,-0.275,
445,-0.455,-0.255,
446,-0.435,-0.22,
447,-0.415,-0.185,
448,-0.405,-0.19,
449,-0.4,-0.205,
450,-0.415,-0.22,
451,-0.4,-0.205,
452,-0.41,-0.175,
453,-0.395,-0.16,
454,-0.37,-0.15,
455,-0.38,-0.165,
456,-0.385,-0.165,
457,-0.385,-0.145,
458,-0.375,-0.115,
459,-0.365,-0.095,
460,-0.345,-0.085,
461,-0.335,-0.1,
462,-0.345,-0.1,
463,-0.34,-0.09,
464,-0.32,-0.05,
465,-0.305,-0.025,
466,-0.305,-0.025,
467,-0.3,-0.025,
468,-0.305,-0.035,
469,-0.295,-0.025,
470,-0.28,0.0,
471,-0.265,0.04,
472,-0.255,0.04,
473,-0.26,0.035,
474,-0.28,0.015,
475,-0.275,0.025,
476,-0.27,0.045,
477,-0.245,0.07,
478,-0.25,0.085,
479,-0.275,0.065,
480,-0.275,0.055,
481,-0.26,0.06,
482,-0.25,0.075,
483,-0.23,0.09,
484,-0.23,0.105,
485,-0.235,0.1,
486,-0.245,0.085,
487,-0.24,0.095,
488,-0.22,0.09,
489,-0.205,0.11,
490,-0.2,0.105,
491,-0.205,0.11,
492,-0.22,0.105,
493,-0.23,0.095,
494,-0.215,0.1,
495,-0.19,0.105,
496,-0.2,0.125,
497,-0.195,0.125,
498,-0.215,0.125,
499,-0.22,0.115,
500,-0.22,0.11,
501,-0.2,0.125,
502,-0.2,0.125,
503,-0.205,0.13,
504,-0.215,0.115,
505,-0.21,0.125,
506,-0.21,0.12,
507,-0.185,0.13,
508,-0.185,0.135,
509,-0.19,0.135,
510,-0.19,0.13,
511,-0.195,0.125,
512,-0.175,0.12,
513,-0.16,0.13,
514,-0.17,0.135,
515,-0.175,0.135,
516,-0.175,0.13,
517,-0.2,0.12,
518,-0.18,0.125,
519,-0.175,0.13,
520,-0.175,0.14,
521,-0.175,0.145,
522,-0.19,0.13,
523,-0.2,0.13,
524,-0.175,0.13,
525,-0.175,0.125,
526,-0.17,0.135,
527,-0.18,0.135,
528,-0.185,0.14,
529,-0.19,0.135,
530,-0.185,0.13,
531,-0.165,0.125,
532,-0.145,0.13,
533,-0.165,0.125,
534,-0.165,0.13,
535,-0.175,0.145,
536,-0.17,0.145,
537,-0.16,0.125,
538,-0.165,0.125,
539,-0.17,0.135,
540,-0.195,0.14,
541,-0.19,0.14,
542,-0.195,0.135,
543,-0.165,0.13,
544,-0.175,0.125,
545,-0.18,0.14,
546,-0.19,0.13,
547,-0.175,0.135,
548,-0.17,0.125,
549,-0.15,0.12,
550,-0.155,0.14,
551,-0.165,0.13,
552,-0.16,0.135,
553,-0.16,0.13,
554,-0.15,0.11,
555,-0.14,0.115,
556,-0.135,0.12,
557,-0.145,0.135,
558,-0.16,0.125,
559,-0.18,0.12,
560,-0.16,0.12,
561,-0.16,0.125,
562,-0.16,0.125,
563,-0.155,0.14,
564,-0.16,0.14,
565,-0.17,0.125,
566,-0.16,0.125,
567,-0.14,0.125,
568,-0.14,0.13,
569,-0.15,0.13,
570,-0.155,0.125,
571,-0.155,0.12,
572,-0.14,0.13,
573,-0.13,0.13,
574,-0.125,0.13,
575,-0.145,0.135,
576,-0.145,0.125,
577,-0.15,0.125,
578,-0.145,0.125,
579,-0.13,0.135,
580,-0.135,0.13,
581,-0.145,0.14,
582,-0.16,0.125,
583,-0.165,0.12,
584,-0.15,0.13,
585,-0.14,0.13,
586,-0.14,0.135,
587,-0.135,0.13,
588,-0.14,0.12,
589,-0.165,0.1,
590,-0.145,0.115,
591,-0.125,0.13,
592,-0.12,0.135,
593,-0.135,0.125,
594,-0.14,0.11,
595,-0.14,0.11,
596,-0.135,0.1,
597,-0.13,0.12,
598,-0.135,0.13,
599,-0.145,0.12,
600,-0.15,0.115,
601,-0.16,0.12,
602,-0.15,0.11,
603,-0.14,0.12,
604,-0.135,0.125,
605,-0.15,0.125,
606,-0.15,0.115,
607,-0.155,0.09,
608,-0.145,0.11,
609,-0.135,0.115,
610,-0.125,0.125,
611,-0.135,0.125,
612,-0.13,0.1,
613,-0.135,0.085,
614,-0.125,0.11,
615,-0.105,0.125,
616,-0.115,0.125,
617,-0.13,0.1,
618,-0.14,0.085,
619,-0.15,0.095,
620,-0.13,0.11,
621,-0.125,0.13,
622,-0.13,0.115,
623,-0.13,0.105,
624,-0.14,0.085,
625,-0.135,0.105,
626,-0.125,0.12,
627,-0.12,0.135,
628,-0.11,0.135,
629,-0.125,0.1,
630,-0.155,0.09,
631,-0.15,0.095,
632,-0.13,0.12,
633,-0.105,0.13,
634,-0.115,0.115,
635,-0.13,0.095,
636,-0.125,0.075,
637,-0.12,0.09,
638,-0.12,0.12,
639,-0.105,0.125,
640,-0.11,0.12,
641,-0.13,0.095,
642,-0.135,0.075,
643,-0.155,0.085,
644,-0.125,0.115,
645,-0.125,0.12,
646,-0.13,0.12,
647,-0.13,0.1,
648,-0.135,0.075,
649,-0.13,0.085,
650,-0.13,0.105,
651,-0.1,0.115,
652,-0.105,0.115,
653,-0.1,0.095,
654,-0.115,0.075,
655,-0.11,0.085,
656,-0.11,0.11,
657,-0.1,0.115,
658,-0.1,0.115,
659,-0.115,0.075,
660,-0.12,0.075,
661,-0.135,0.09,
662,-0.13,0.105,
663,-0.105,0.13,
664,-0.115,0.105,
665,-0.12,0.07,
666,-0.13,0.065,
667,-0.135,0.105,
668,-0.11,0.115,
669,-0.1,0.12,
670,-0.105,0.1,
671,-0.11,0.075,
672,-0.12,0.06,
673,-0.115,0.075,
674,-0.095,0.1,
675,-0.09,0.115,
676,-0.09,0.105,
677,-0.105,0.065,
678,-0.105,0.06,
679,-0.125,0.095,
680,-0.105,0.11,
681,-0.1,0.105,
682,-0.11,0.095,
683,-0.12,0.06,
684,-0.125,0.06,
685,-0.14,0.085,
686,-0.11,0.1,
687,-0.105,0.1,
688,-0.1,0.085,
689,-0.105,0.06,
690,-0.12,0.055,
691,-0.105,0.09,
692,-0.11,0.095,
693,-0.095,0.085,
694,-0.1,0.075,
695,-0.105,0.055,
696,-0.11,0.05,
697,-0.115,0.07,
698,-0.1,0.095,
699,-0.085,0.095,
700,-0.09,0.07,
701,-0.11,0.06,
702,-0.115,0.055,
703,-0.115,0.085,
704,-0.12,0.105,
705,-0.1,0.095,
706,-0.105,0.07,
707,-0.11,0.05,
708,-0.115,0.06,
709,-0.105,0.08,
710,-0.1,0.09,
711,-0.08,0.08,
712,-0.08,0.06,
713,-0.095,0.055,
714,-0.095,0.05,
715,-0.1,0.07,
716,-0.085,0.09,
717,-0.08,0.08,
718,-0.085,0.065,
719,-0.095,0.035,
720,-0.11,0.04,
721,-0.12,0.055,
722,-0.12,0.075,
723,-0.095,0.065,
724,-0.09,0.055,
725,-0.115,0.03,
726,-0.115,0.045,
727,-0.115,0.065,
728,-0.1,0.07,
729,-0.105,0.075,
730,-0.095,0.035,
731,-0.095,0.025,
732,-0.1,0.05,
733,-0.105,0.065,
734,-0.09,0.065,
735,-0.075,0.065,
736,-0.08,0.04,
737,-0.1,0.025,
738,-0.1,0.05,
739,-0.095,0.055,
740,-0.095,0.055,
741,-0.095,0.05,
742,-0.105,0.04,
743,-0.1,0.035,
744,-0.12,0.04,
745,-0.115,0.055,
746,-0.095,0.07,
747,-0.08,0.065,
748,-0.08,0.035,
749,-0.095,0.035,
750,-0.12,0.035,
751,-0.095,0.05,
752,-0.105,0.06,
753,-0.08,0.055,
754,-0.085,0.025,
755,-0.08,0.025,
756,-0.095,0.025,
757,-0.09,0.055,
758,-0.085,0.05,
759,-0.08,0.045,
760,-0.07,0.015,
761,-0.09,0.015,
762,-0.105,0.035,
763,-0.115,0.045,
764,-0.095,0.055,
765,-0.095,0.04,
766,-0.085,0.015,
767,-0.11,0.015,
768,-0.11,0.035,
769,-0.11,0.05,
770,-0.095,0.045,
771,-0.075,0.05,
772,-0.07,0.015,
773,-0.085,0.015,
774,-0.095,0.03,
775,-0.09,0.03,
776,-0.08,0.05,
777,-0.065,0.05,
778,-0.06,0.015,
779,-0.075,0.005,
780,-0.09,0.02,
781,-0.095,0.04,
782,-0.1,0.04,
783,-0.085,0.03,
784,-0.085,0.02,
785,-0.09,0.01,
786,-0.085,0.01,
787,-0.105,0.03,
788,-0.085,0.045,
789,-0.08,0.035,
790,-0.08,0.01,
791,-0.09,0.005,
792,-0.09,0.01,
793,-0.1,0.035,
794,-0.08,0.055,
795,-0.075,0.045,
796,-0.07,0.03,
797,-0.075,0.02,
798,-0.085,0.04,
799,-0.085,0.05,
800,-0.07,0.07,
801,-0.065,0.065,
802,-0.07,0.05,
803,-0.075,0.035,
804,-0.08,0.035,
805,-0.085,0.06,
806,-0.07,0.075,
807,-0.07,0.065,
808,-0.055,0.025,
809,-0.07,0.005,
810,-0.065,0.01,
811,-0.075,0.015,
812,-0.07,0.03,
813,-0.055,0.025,
814,-0.055,-0.01,
815,-0.06,-0.035,
816,-0.095,-0.045,
817,-0.13,-0.055,
818,-0.13,-0.08,
819,-0.115,-0.12,
820,-0.105,-0.165,
821,-0.115,-0.23,
822,-0.125,-0.26,
823,-0.085,-0.275,
824,-0.015,-0.28,
825,0.095,-0.265,
826,0.225,-0.27,
827,0.315,-0.295,
828,0.385,-0.285,
829,0.415,-0.24,
830,0.465,-0.18,
831,0.515,-0.085,
832,0.615,0.135,
833,0.75,0.43,
834,0.865,0.755,
835,0.9,0.97,R
836,0.875,1.075,
837,0.82,1.115,
838,0.75,1.135,
839,0.675,1.175,
840,0.59,1.21,
841,0.455,1.23,
842,0.3,1.22,
843,0.115,1.16,
844,-0.06,1.045,
845,-0.16,0.92,
846,-0.235,0.84,
847,-0.25,0.815,
848,-0.255,0.83,
849,-0.29,0.835,
850,-0.305,0.82,
851,-0.365,0.795,
852,-0.385,0.825,
853,-0.34,0.895,
854,-0.275,0.965,
855,-0.245,0.985,
856,-0.19,0.985,
857,-0.16,0.955,
858,-0.1,0.935,
859,-0.06,0.91,
860,-0.05,0.855,
861,-0.03,0.755,
862,-0.065,0.6,
863,-0.105,0.455,
864,-0.15,0.315,
865,-0.17,0.22,
866,-0.165,0.165,
867,-0.145,0.125,
868,-0.155,0.07,
869,-0.16,0.005,
870,-0.19,-0.01,
871,-0.17,-0.01,
872,-0.16,-0.005,
873,-0.15,-0.01,
874,-0.15,-0.02,
875,-0.155,-0.06,
876,-0.17,-0.065,
877,-0.175,-0.06,
878,-0.15,-0.05,
879,-0.155,-0.035,
880,-0.145,-0.04,
881,-0.155,-0.07,
882,-0.17,-0.08,
883,-0.16,-0.075,
884,-0.165,-0.05,
885,-0.15,-0.04,
886,-0.155,-0.05,
887,-0.165,-0.08,
888,-0.18,-0.095,
889,-0.17,-0.09,
890,-0.17,-0.08,
891,-0.155,-0.055,
892,-0.155,-0.065,
893,-0.165,-0.075,
894,-0.165,-0.105,
895,-0.18,-0.1,
896,-0.16,-0.08,
897,-0.135,-0.07,
898,-0.135,-0.05,
899,-0.14,-0.1,
900,-0.165,-0.1,
901,-0.145,-0.1,
902,-0.125,-0.075,
903,-0.115,-0.055,
904,-0.12,-0.06,
905,-0.125,-0.07,
906,-0.14,-0.105,
907,-0.125,-0.075,
908,-0.115,-0.065,
909,-0.095,-0.045,
910,-0.105,-0.04,
911,-0.11,-0.08,
912,-0.115,-0.08,
913,-0.115,-0.07,
914,-0.1,-0.035,
915,-0.08,-0.025,
916,-0.08,-0.03,
917,-0.085,-0.055,
918,-0.075,-0.07,
919,-0.075,-0.06,
920,-0.065,-0.02,
921,-0.035,-0.015,
922,-0.035,-0.015,
923,-0.06,-0.03,
924,-0.065,-0.03,
925,-0.045,-0.025,
926,-0.03,0.01,
927,-0.015,0.035,
928,-0.02,0.035,
929,-0.03,0.01,
930,-0.04,0.0,
931,-0.04,0.025,
932,-0.02,0.055,
933,-0.01,0.065,
934,0.01,0.055,
935,-0.015,0.045,
936,0.0,0.04,
937,0.005,0.065,
938,0.01,0.095,
939,0.04,0.12,
940,0.04,0.105,
941,0.045,0.07,
942,0.04,0.07,
943,0.065,0.105,
944,0.085,0.13,
945,0.1,0.145,
946,0.09,0.13,
947,0.085,0.11,
948,0.075,0.115,
949,0.07,0.13,
950,0.09,0.165,
951,0.085,0.18,
952,0.095,0.16,
953,0.1,0.145,
954,0.105,0.145,
955,0.115,0.175,
956,0.125,0.21,
957,0.135,0.21,
958,0.145,0.195,
959,0.14,0.18,
960,0.12,0.185,
961,0.125,0.21,
962,0.15,0.23,
963,0.175,0.23,
964,0.175,0.22,
965,0.16,0.205,
966,0.155,0.215,
967,0.15,0.24,
968,0.17,0.26,
969,0.18,0.26,
970,0.18,0.25,
971,0.175,0.225,
972,0.155,0.245,
973,0.16,0.265,
974,0.18,0.285,
975,0.195,0.285,
976,0.195,0.265,
977,0.19,0.255,
978,0.175,0.265,
979,0.185,0.295,
980,0.2,0.32,
981,0.21,0.305,
982,0.195,0.28,
983,0.19,0.28,
984,0.195,0.295,
985,0.185,0.325,
986,0.2,0.34,
987,0.2,0.335,
988,0.19,0.32,
989,0.175,0.305,
990,0.17,0.335,
991,0.165,0.36,
992,0.175,0.375,
993,0.18,0.36,
994,0.175,0.34,
995,0.165,0.335,
996,0.155,0.36,
997,0.16,0.38,
998,0.155,0.405,
999,0.165,0.385,
1000,0.16,0.385,
1001,0.155,0.415,
1002,0.13,0.44,
1003,0.165,0.465,
1004,0.16,0.45,
1005,0.17,0.44,
1006,0.145,0.44,
1007,0.135,0.46,
1008,0.13,0.48,
1009,0.135,0.495,
1010,0.145,0.485,
1011,0.135,0.48,
1012,0.13,0.465,
1013,0.13,0.485,
1014,0.135,0.51,
1015,0.135,0.52,
1016,0.15,0.5,
1017,0.14,0.485,
1018,0.125,0.48,
1019,0.13,0.5,
1020,0.14,0.515,
1021,0.155,0.51,
1022,0.165,0.5,
1023,0.17,0.485,
1024,0.165,0.49,
1025,0.15,0.49,
1026,0.165,0.505,
1027,0.165,0.51,
1028,0.175,0.5,
1029,0.17,0.48,
1030,0.15,0.485,
1031,0.165,0.49,
1032,0.16,0.505,
1033,0.175,0.515,
1034,0.195,0.49,
1035,0.205,0.485,
1036,0.195,0.47,
1037,0.19,0.485,
1038,0.205,0.515,
1039,0.21,0.51,
1040,0.225,0.495,
1041,0.23,0.49,
1042,0.23,0.485,
1043,0.22,0.495,
1044,0.24,0.515,
1045,0.255,0.515,
1046,0.275,0.495,
1047,0.27,0.49,
1048,0.255,0.485,
1049,0.235,0.475,
1050,0.22,0.47,
1051,0.24,0.465,
1052,0.23,0.44,
1053,0.21,0.395,
1054,0.16,0.37,
1055,0.15,0.355,
1056,0.16,0.35,
1057,0.16,0.35,
1058,0.185,0.35,
1059,0.175,0.345,
1060,0.145,0.345,
1061,0.13,0.325,
1062,0.13,0.32,
1063,0.14,0.32,
1064,0.155,0.32,
1065,0.15,0.345,
1066,0.1,0.35,
1067,0.035,0.355,
1068,-0.075,0.335,
1069,-0.195,0.345,
1070,-0.31,0.34,
1071,-0.415,0.355,
1072,-0.5,0.36,
1073,-0.625,0.325,
1074,-0.785,0.23,
1075,-0.945,0.155,
1076,-1.0,0.08,
1077,-1.055,0.02,
1078,-1.08,-0.025,V
1079,-1.11,-0.065,
1080,-1.145,-0.1,
1081,-1.145,-0.11,
1082,-1.09,-0.07,
1083,-1.005,-0.005,
1084,-0.95,0.055,
1085,-0.92,0.11,
1086,-0.895,0.135,
1087,-0.87,0.155,
1088,-0.83,0.17,
1089,-0.805,0.17,
1090,-0.805,0.14,
1091,-0.83,0.06,
1092,-0.845,-0.03,
1093,-0.84,-0.16,
1094,-0.84,-0.31,
1095,-0.84,-0.465,
1096,-0.86,-0.62,
1097,-0.885,-0.765,
1098,-0.885,-0.865,
1099,-0.87,-0.915,
1100,-0.84,-0.945,
1101,-0.835,-0.96,
1102,-0.845,-0.995,
1103,-0.86,-1.025,
1104,-0.865,-1.03,
1105,-0.855,-1.04,
1106,-0.855,-1.025,
1107,-0.85,-1.025,
1108,-0.865,-1.055,
1109,-0.885,-1.065,
1110,-0.89,-1.075,
1111,-0.875,-1.075,
1112,-0.855,-1.075,
1113,-0.855,-1.07,
1114,-0.865,-1.065,
1115,-0.88,-1.085,
1116,-0.88,-1.09,
1117,-0.875,-1.085,
1118,-0.85,-1.08,
1119,-0.86,-1.08,
1120,-0.865,-1.1,
1121,-0.865,-1.11,
1122,-0.88,-1.11,
1123,-0.86,-1.09,
1124,-0.83,-1.085,
1125,-0.835,-1.09,
1126,-0.845,-1.11,
1127,-0.86,-1.115,
1128,-0.85,-1.115,
1129,-0.83,-1.09,
1130,-0.81,-1.065,
1131,-0.81,-1.07,
1132,-0.83,-1.09,
1133,-0.82,-1.1,
1134,-0.815,-1.08,
1135,-0.8,-1.055,
1136,-0.775,-1.03,
1137,-0.77,-1.045,
1138,-0.77,-1.05,
1139,-0.77,-1.055,
1140,-0.755,-1.035,
1141,-0.745,-1.005,
1142,-0.72,-0.98,
1143,-0.73,-0.98,
1144,-0.73,-1.0,
1145,-0.72,-0.995,
1146,-0.72,-0.975,
1147,-0.69,-0.94,
1148,-0.685,-0.915,
1149,-0.66,-0.925,
1150,-0.68,-0.94,
1151,-0.675,-0.945,
1152,-0.665,-0.9,
1153,-0.64,-0.87,
1154,-0.615,-0.83,
1155,-0.62,-0.84,
1156,-0.62,-0.855,
1157,-0.625,-0.845,
1158,-0.62,-0.81,
1159,-0.595,-0.77,
1160,-0.58,-0.75,
1161,-0.575,-0.77,
1162,-0.565,-0.775,
1163,-0.57,-0.755,
1164,-0.545,-0.725,
1165,-0.525,-0.68,
1166,-0.5,-0.675,
1167,-0.505,-0.675,
1168,-0.485,-0.685,
1169,-0.475,-0.67,
1170,-0.475,-0.635,
1171,-0.455,-0.61,
1172,-0.435,-0.605,
1173,-0.445,-0.62,
1174,-0.455,-0.63,
1175,-0.435,-0.605,
1176,-0.425,-0.56,
1177,-0.41,-0.525,
1178,-0.385,-0.535,
1179,-0.38,-0.535,
1180,-0.37,-0.54,
1181,-0.365,-0.52,
1182,-0.36,-0.48,
1183,-0.335,-0.47,
1184,-0.31,-0.455,
1185,-0.32,-0.475,
1186,-0.325,-0.475,
1187,-0.335,-0.46,
1188,-0.32,-0.425,
1189,-0.31,-0.395,
1190,-0.31,-0.385,
1191,-0.28,-0.405,
1192,-0.29,-0.4,
1193,-0.285,-0.385,
1194,-0.28,-0.345,
1195,-0.255,-0.31,
1196,-0.235,-0.305,
1197,-0.24,-0.33,
1198,-0.255,-0.315,
1199,-0.26,-0.295,
1200,-0.24,-0.265,
1201,-0.22,-0.255,
1202,-0.195,-0.255,
1203,-0.205,-0.265,
1204,-0.215,-0.27,
1205,-0.22,-0.235,
1206,-0.215,-0.22,
1207,-0.22,-0.21,
1208,-0.21,-0.215,
1209,-0.21,-0.23,
1210,-0.225,-0.215,
1211,-0.225,-0.2,
1212,-0.22,-0.175,
1213,-0.205,-0.145,
1214,-0.205,-0.145,
1215,-0.21,-0.18,
1216,-0.21,-0.165,
1217,-0.225,-0.145,
1218,-0.235,-0.13,
1219,-0.205,-0.105,
1220,-0.2,-0.11,
1221,-0.19,-0.115,
1222,-0.2,-0.095,
1223,-0.215,-0.075,
1224,-0.21,-0.055,
1225,-0.195,-0.055,
1226,-0.195,-0.055,
1227,-0.2,-0.06,
1228,-0.21,-0.05,
1229,-0.22,-0.025,
1230,-0.215,-0.005,
1231,-0.215,0.0,
1232,-0.21,-0.01,
1233,-0.2,-0.01,
1234,-0.22,-0.005,
1235,-0.225,0.015,
1236,-0.23,0.035,
1237,-0.21,0.025,
1238,-0.2,0.025,
1239,-0.2,0.02,
1240,-0.205,0.025,
1241,-0.21,0.04,
1242,-0.2,0.055,
1243,-0.2,0.05,
1244,-0.19,0.035,
1245,-0.19,0.04,
1246,-0.205,0.035,
1247,-0.21,0.055,
1248,-0.22,0.07,
1249,-0.2,0.065,
1250,-0.195,0.055,
1251,-0.2,0.045,
1252,-0.205,0.055,
1253,-0.22,0.065,
1254,-0.215,0.065,
1255,-0.205,0.075,
1256,-0.205,0.06,
1257,-0.2,0.05,
1258,-0.205,0.055,
1259,-0.21,0.07,
1260,-0.205,0.08,
1261,-0.19,0.075,
1262,-0.175,0.07,
1263,-0.18,0.075,
1264,-0.185,0.07,
1265,-0.2,0.08,
1266,-0.195,0.09,
1267,-0.19,0.085,
1268,-0.185,0.08,
1269,-0.2,0.08,
1270,-0.205,0.09,
1271,-0.215,0.095,
1272,-0.22,0.09,
1273,-0.19,0.095,
1274,-0.185,0.095,
1275,-0.175,0.115,
1276,-0.18,0.11,
1277,-0.185,0.1,
1278,-0.195,0.1,
1279,-0.175,0.11,
1280,-0.165,0.105,
1281,-0.165,0.12,
1282,-0.175,0.105,
1283,-0.19,0.1,
1284,-0.185,0.105,
1285,-0.17,0.11,
1286,-0.17,0.12,
1287,-0.18,0.13,
1288,-0.185,0.12,
1289,-0.195,0.115,
1290,-0.195,0.12,
1291,-0.185,0.11,
1292,-0.17,0.12,
1293,-0.17,0.13,
1294,-0.175,0.13,
1295,-0.185,0.12,
1296,-0.185,0.12,
1297,-0.17,0.125,
1298,-0.16,0.13,
1299,-0.18,0.135,
1300,-0.175,0.13,
1301,-0.17,0.125,
1302,-0.175,0.115,
1303,-0.17,0.125,
1304,-0.145,0.14,
1305,-0.15,0.145,
1306,-0.17,0.145,
1307,-0.18,0.13,
1308,-0.175,0.13,
1309,-0.18,0.14,
1310,-0.18,0.15,
1311,-0.165,0.16,
1312,-0.19,0.145,
1313,-0.18,0.12,
1314,-0.195,0.13,
1315,-0.18,0.145,
1316,-0.16,0.16,
1317,-0.175,0.165,
1318,-0.185,0.145,
1319,-0.185,0.13,
1320,-0.18,0.13,
1321,-0.16,0.155,
1322,-0.155,0.175,
1323,-0.17,0.16,
1324,-0.165,0.135,
1325,-0.175,0.125,
1326,-0.17,0.14,
1327,-0.175,0.155,
1328,-0.165,0.175,
1329,-0.165,0.17,
1330,-0.175,0.15,
1331,-0.19,0.14,
1332,-0.175,0.15,
1333,-0.17,0.16,
1334,-0.17,0.17,
1335,-0.175,0.17,
1336,-0.18,0.155,
1337,-0.185,0.14,
1338,-0.185,0.15,
1339,-0.165,0.165,
1340,-0.155,0.18,
1341,-0.16,0.165,
1342,-0.155,0.145,
1343,-0.16,0.135,
1344,-0.16,0.15,
1345,-0.15,0.17,
1346,-0.16,0.19,
1347,-0.155,0.185,
1348,-0.17,0.15,
1349,-0.175,0.145,
1350,-0.185,0.165,
1351,-0.17,0.195,
1352,-0.175,0.18,
1353,-0.175,0.165,
1354,-0.185,0.165,
1355,-0.185,0.14,
1356,-0.175,0.175,
1357,-0.17,0.19,
1358,-0.16,0.195,
1359,-0.17,0.18,
1360,-0.17,0.15,
1361,-0.175,0.15,
1362,-0.185,0.18,
1363,-0.165,0.21,
1364,-0.155,0.2,
1365,-0.18,0.18,
1366,-0.175,0.155,
1367,-0.185,0.16,
1368,-0.18,0.175,
1369,-0.18,0.21,
1370,-0.175,0.2,
1371,-0.17,0.185,
1372,-0.18,0.155,
1373,-0.2,0.175,
1374,-0.195,0.195,
1375,-0.17,0.215,
1376,-0.16,0.205,
1377,-0.165,0.2,
1378,-0.185,0.16,
1379,-0.175,0.175,
1380,-0.16,0.205,
1381,-0.16,0.225,
1382,-0.155,0.215,
1383,-0.15,0.19,
1384,-0.16,0.175,
1385,-0.17,0.17,
1386,-0.165,0.2,
1387,-0.155,0.215,
1388,-0.16,0.215,
1389,-0.155,0.195,
1390,-0.165,0.17,
1391,-0.18,0.175,
1392,-0.185,0.21,
1393,-0.165,0.225,
1394,-0.165,0.215,
1395,-0.155,0.19,
1396,-0.17,0.17,
1397,-0.175,0.19,
1398,-0.165,0.215,
1399,-0.16,0.23,
1400,-0.15,0.205,
1401,-0.145,0.195,
1402,-0.155,0.19,
1403,-0.165,0.2,
1404,-0.165,0.23,
1405,-0.15,0.235,
1406,-0.15,0.21,
1407,-0.165,0.205,
1408,-0.18,0.19,
1409,-0.185,0.215,
1410,-0.18,0.23,
1411,-0.16,0.24,
1412,-0.155,0.23,
1413,-0.15,0.205,
1414,-0.17,0.195,
1415,-0.18,0.215,
1416,-0.175,0.235,
1417,-0.16,0.23,
1418,-0.145,0.215,
1419,-0.155,0.195,
1420,-0.15,0.195,
1421,-0.17,0.225,
1422,-0.16,0.23,
1423,-0.155,0.23,
1424,-0.16,0.21,
1425,-0.155,0.205,
1426,-0.155,0.215,
1427,-0.17,0.225,
1428,-0.175,0.235,
1429,-0.165,0.24,
1430,-0.155,0.225,
1431,-0.165,0.205,
1432,-0.165,0.22,
1433,-0.185,0.23,
1434,-0.19,0.23,
1435,-0.17,0.235,
1436,-0.165,0.23,
1437,-0.165,0.215,
1438,-0.175,0.215,
1439,-0.185,0.225,
1440,-0.19,0.24,
1441,-0.17,0.24,
1442,-0.15,0.225,
1443,-0.14,0.21,
1444,-0.16,0.21,
1445,-0.175,0.23,
1446,-0.165,0.24,
1447,-0.17,0.235,
1448,-0.155,0.215,
1449,-0.165,0.22,
1450,-0.18,0.22,
1451,-0.185,0.23,
1452,-0.185,0.245,
1453,-0.175,0.235,
1454,-0.165,0.23,
1455,-0.165,0.215,
1456,-0.165,0.22,
1457,-0.18,0.23,
1458,-0.175,0.245,
1459,-0.17,0.23,
1460,-0.155,0.235,
1461,-0.15,0.22,
1462,-0.16,0.23,
1463,-0.165,0.25,
1464,-0.16,0.25,
1465,-0.155,0.245,
1466,-0.155,0.23,
1467,-0.155,0.225,
1468,-0.165,0.24,
1469,-0.18,0.245,
1470,-0.185,0.245,
1471,-0.175,0.245,
1472,-0.145,0.24,
1473,-0.155,0.23,
1474,-0.165,0.24,
1475,-0.18,0.245,
1476,-0.175,0.255,
1477,-0.16,0.245,
1478,-0.15,0.24,
1479,-0.16,0.225,
1480,-0.17,0.225,
1481,-0.16,0.24,
1482,-0.155,0.265,
1483,-0.135,0.25,
1484,-0.16,0.235,
1485,-0.155,0.225,
1486,-0.16,0.24,
1487,-0.17,0.25,
1488,-0.17,0.26,
1489,-0.16,0.26,
1490,-0.17,0.24,
1491,-0.165,0.235,
1492,-0.175,0.245,
1493,-0.18,0.245,
1494,-0.185,0.26,
1495,-0.175,0.26,
1496,-0.16,0.245,
1497,-0.155,0.245,
1498,-0.175,0.25,
1499,-0.17,0.26,
1500,-0.17,0.265,
1501,-0.155,0.265,
1502,-0.145,0.255,
1503,-0.155,0.24,
1504,-0.155,0.255,
1505,-0.16,0.27,
1506,-0.15,0.26,
1507,-0.145,0.27,
1508,-0.14,0.255,
1509,-0.15,0.245,
1510,-0.17,0.255,
1511,-0.18,0.255,
1512,-0.18,0.26,
1513,-0.165,0.26,
1514,-0.145,0.255,
1515,-0.155,0.25,
1516,-0.18,0.265,
1517,-0.17,0.265,
1518,-0.165,0.27,
1519,-0.165,0.265,
1520,-0.145,0.255,
1521,-0.16,0.255,
1522,-0.185,0.27,
1523,-0.17,0.265,
1524,-0.155,0.265,
1525,-0.145,0.275,
1526,-0.13,0.26,
1527,-0.135,0.26,
1528,-0.15,0.265,
1529,-0.16,0.275,
1530,-0.155,0.285,
1531,-0.14,0.285,
1532,-0.145,0.27,
1533,-0.145,0.275,
1534,-0.15,0.27,
1535,-0.16,0.285,
1536,-0.155,0.285,
1537,-0.145,0.295,
1538,-0.14,0.27,
1539,-0.155,0.27,
1540,-0.155,0.275,
1541,-0.165,0.295,
1542,-0.15,0.305,
1543,-0.145,0.295,
1544,-0.14,0.29,
1545,-0.15,0.29,
1546,-0.165,0.29,
1547,-0.175,0.3,
1548,-0.165,0.31,
1549,-0.135,0.295,
1550,-0.135,0.295,
1551,-0.145,0.29,
1552,-0.16,0.29,
1553,-0.16,0.31,
1554,-0.155,0.3,
1555,-0.14,0.31,
1556,-0.13,0.29,
1557,-0.135,0.27,
1558,-0.145,0.27,
1559,-0.15,0.28,
1560,-0.155,0.31,
1561,-0.145,0.3,
1562,-0.125,0.295,
1563,-0.12,0.285,
1564,-0.13,0.285,
1565,-0.135,0.3,
1566,-0.13,0.295,
1567,-0.115,0.295,
1568,-0.11,0.265,
1569,-0.125,0.255,
1570,-0.165,0.25,
1571,-0.195,0.23,
1572,-0.225,0.19,
1573,-0.24,0.15,
1574,-0.23,0.095,
1575,-0.24,0.06,
1576,-0.22,0.035,
1577,-0.165,0.015,
1578,-0.055,0.01,
1579,0.08,0.015,
1580,0.21,0.045,
1581,0.3,0.04,
1582,0.33,0.07,
1583,0.355,0.115,
1584,0.41,0.22,
1585,0.54,0.435,
1586,0.69,0.78,
1587,0.775,1.095,
1588,0.775,1.275,R
1589,0.72,1.325,
1590,0.665,1.345,
1591,0.615,1.4,
1592,0.54,1.475,
1593,0.415,1.515,
1594,0.245,1.51,
1595,0.04,1.445,
1596,-0.12,1.37,
1597,-0.22,1.28,
1598,-0.26,1.2,
1599,-0.285,1.15,
1600,-0.335,1.135,
1601,-0.36,1.14,
1602,-0.395,1.125,
1603,-0.425,1.135,
1604,-0.415,1.15,
1605,-0.385,1.19,
1606,-0.36,1.25,
1607,-0.335,1.285,
1608,-0.3,1.28,
1609,-0.245,1.28,
1610,-0.18,1.285,
1611,-0.14,1.255,
1612,-0.135,1.215,
1613,-0.125,1.12,
1614,-0.14,1.005,
1615,-0.18,0.87,
1616,-0.205,0.73,
1617,-0.23,0.605,
1618,-0.25,0.495,
1619,-0.245,0.435,
1620,-0.24,0.375,
1621,-0.23,0.345,
1622,-0.21,0.33,
1623,-0.22,0.32,
1624,-0.23,0.295,
1625,-0.23,0.29,
1626,-0.23,0.285,
1627,-0.22,0.27,
1628,-0.21,0.275,
1629,-0.22,0.27,
1630,-0.225,0.27,
1631,-0.235,0.26,
1632,-0.23,0.255,
1633,-0.225,0.265,
1634,-0.23,0.245,
1635,-0.235,0.26,
1636,-0.245,0.265,
1637,-0.25,0.255,
1638,-0.245,0.23,
1639,-0.22,0.245,
1640,-0.215,0.26,
1641,-0.22,0.265,
1642,-0.225,0.25,
1643,-0.25,0.23,
1644,-0.23,0.23,
1645,-0.205,0.24,
1646,-0.195,0.26,
1647,-0.195,0.26,
1648,-0.21,0.235,
1649,-0.22,0.225,
1650,-0.21,0.23,
1651,-0.19,0.265,
1652,-0.195,0.27,
1653,-0.2,0.245,
1654,-0.215,0.225,
1655,-0.2,0.225,
1656,-0.19,0.24,
1657,-0.185,0.27,
1658,-0.175,0.285,
1659,-0.18,0.27,
1660,-0.2,0.235,
1661,-0.195,0.235,
1662,-0.18,0.265,
1663,-0.16,0.295,
1664,-0.15,0.295,
1665,-0.15,0.27,
1666,-0.15,0.255,
1667,-0.155,0.255,
1668,-0.14,0.28,
1669,-0.125,0.31,
1670,-0.12,0.305,
1671,-0.13,0.295,
1672,-0.14,0.265,
1673,-0.145,0.27,
1674,-0.13,0.31,
1675,-0.115,0.34,
1676,-0.105,0.34,
1677,-0.12,0.32,
1678,-0.13,0.32,
1679,-0.12,0.315,
1680,-0.1,0.355,
1681,-0.08,0.375,
1682,-0.075,0.37,
1683,-0.07,0.355,
1684,-0.07,0.34,
1685,-0.075,0.36,
1686,-0.065,0.39,
1687,-0.04,0.41,
1688,-0.03,0.4,
1689,-0.025,0.385,
1690,-0.035,0.395,
1691,-0.045,0.4,
1692,-0.045,0.435,
1693,-0.035,0.45,
1694,-0.01,0.435,
1695,-0.01,0.43,
1696,-0.025,0.425,
1697,-0.025,0.435,
1698,-0.02,0.47,
1699,0.005,0.475,
1700,0.01,0.48,
1701,0.02,0.47,
1702,0.015,0.46,
1703,0.005,0.485,
1704,0.025,0.505,
1705,0.035,0.505,
1706,0.045,0.49,
1707,0.06,0.48,
1708,0.04,0.495,
1709,0.04,0.52,
1710,0.05,0.52,
1711,0.065,0.515,
1712,0.07,0.515,
1713,0.065,0.53,
1714,0.065,0.54,
1715,0.05,0.535,
1716,0.06,0.55,
1717,0.075,0.545,
1718,0.095,0.565,
1719,0.09,0.575,
1720,0.075,0.55,
1721,0.075,0.55,
1722,0.1,0.56,
1723,0.11,0.595,
1724,0.11,0.605,
1725,0.11,0.585,
1726,0.105,0.58,
1727,0.1,0.575,
1728,0.105,0.595,
1729,0.1,0.62,
1730,0.11,0.61,
1731,0.115,0.595,
1732,0.1,0.6,
1733,0.095,0.615,
1734,0.095,0.64,
1735,0.1,0.64,
1736,0.095,0.63,
1737,0.095,0.615,
1738,0.09,0.62,
1739,0.075,0.645,
1740,0.085,0.665,
1741,0.1,0.68,
1742,0.1,0.66,
1743,0.08,0.66,
1744,0.075,0.655,
1745,0.075,0.69,
1746,0.085,0.715,
1747,0.09,0.71,
1748,0.07,0.7,
1749,0.07,0.7,
1750,0.06,0.71,
1751,0.055,0.73,
1752,0.055,0.765,
1753,0.065,0.765,
1754,0.06,0.74,
1755,0.05,0.735,
1756,0.05,0.75,
1757,0.03,0.765,
1758,0.045,0.775,
1759,0.04,0.765,
1760,0.045,0.745,
1761,0.04,0.75,
1762,0.045,0.745,
1763,0.04,0.76,
1764,0.06,0.76,
1765,0.07,0.765,
1766,0.07,0.76,
1767,0.055,0.74,
1768,0.05,0.74,
1769,0.045,0.735,
1770,0.04,0.75,
1771,0.055,0.755,
1772,0.065,0.74,
1773,0.05,0.72,
1774,0.055,0.735,
1775,0.05,0.745,
1776,0.07,0.75,
1777,0.085,0.735,
1778,0.09,0.73,
1779,0.09,0.73,
1780,0.09,0.735,
1781,0.1,0.745,
1782,0.105,0.735,
1783,0.125,0.735,
1784,0.13,0.73,
1785,0.135,0.725,
1786,0.14,0.73,
1787,0.13,0.725,
1788,0.135,0.715,
1789,0.14,0.71,
1790,0.155,0.72,
1791,0.17,0.705,
1792,0.165,0.705,
1793,0.155,0.705,
1794,0.155,0.68,
1795,0.145,0.665,
1796,0.135,0.65,
1797,0.13,0.62,
1798,0.11,0.605,
1799,0.11,0.565,
1800,0.14,0.525,
1801,0.16,0.495,
1802,0.185,0.48,
1803,0.21,0.48,
1804,0.195,0.48,
1805,0.215,0.51,
1806,0.22,0.53,
1807,0.225,0.565,
1808,0.205,0.595,
1809,0.15,0.595,
1810,0.08,0.585,
1811,0.0,0.57,
1812,-0.075,0.605,
1813,-0.185,0.66,
1814,-0.28,0.71,
1815,-0.395,0.71,
1816,-0.52,0.685,
1817,-0.65,0.635,
1818,-0.72,0.59,
1819,-0.82,0.54,
1820,-0.92,0.475,
1821,-0.995,0.405,V
1822,-1.035,0.335,
1823,-1.045,0.3,
1824,-1.0,0.325,
1825,-0.95,0.37,
1826,-0.875,0.41,
1827,-0.77,0.44,
1828,-0.695,0.445,
1829,-0.62,0.47,
1830,-0.555,0.48,
1831,-0.5,0.485,
1832,-0.485,0.445,
1833,-0.53,0.345,
1834,-0.595,0.185,
1835,-0.66,0.045,
1836,-0.71,-0.07,
1837,-0.75,-0.165,
1838,-0.8,-0.285,
1839,-0.835,-0.41,
1840,-0.86,-0.51,
1841,-0.885,-0.6,
1842,-0.88,-0.645,
1843,-0.865,-0.67,
1844,-0.87,-0.7,
1845,-0.895,-0.745,
1846,-0.895,-0.765,
1847,-0.905,-0.785,
1848,-0.905,-0.785,
1849,-0.895,-0.775,
1850,-0.9,-0.78,
1851,-0.905,-0.805,
1852,-0.915,-0.835,
1853,-0.91,-0.845,
1854,-0.91,-0.845,
1855,-0.895,-0.825,
1856,-0.9,-0.83,
1857,-0.905,-0.845,
1858,-0.915,-0.88,
1859,-0.915,-0.89,
1860,-0.91,-0.87,
1861,-0.91,-0.86,
1862,-0.9,-0.85,
1863,-0.895,-0.875,
1864,-0.91,-0.9,
1865,-0.915,-0.91,
1866,-0.91,-0.895,
1867,-0.895,-0.875,
1868,-0.885,-0.88,
1869,-0.9,-0.9,
1870,-0.9,-0.925,
1871,-0.91,-0.93,
1872,-0.885,-0.915,
1873,-0.875,-0.895,
1874,-0.865,-0.895,
1875,-0.87,-0.92,
1876,-0.89,-0.94,
1877,-0.88,-0.94,
1878,-0.86,-0.915,
1879,-0.84,-0.89,
1880,-0.825,-0.88,
1881,-0.845,-0.895,
1882,-0.83,-0.925,
1883,-0.835,-0.92,
1884,-0.815,-0.885,
1885,-0.81,-0.865,
1886,-0.805,-0.85,
1887,-0.8,-0.86,
1888,-0.81,-0.885,
1889,-0.82,-0.89,
1890,-0.805,-0.855,
1891,-0.785,-0.83,
1892,-0.785,-0.815,
1893,-0.79,-0.825,
1894,-0.805,-0.83,
1895,-0.795,-0.84,
1896,-0.775,-0.805,
1897,-0.745,-0.785,
1898,-0.72,-0.76,
1899,-0.72,-0.76,
1900,-0.715,-0.785,
1901,-0.715,-0.78,
1902,-0.705,-0.76,
1903,-0.675,-0.74,
1904,-0.675,-0.715,
1905,-0.655,-0.73,
1906,-0.685,-0.725,
1907,-0.675,-0.73,
1908,-0.665,-0.71,
1909,-0.645,-0.67,
1910,-0.635,-0.65,
1911,-0.645,-0.65,
1912,-0.645,-0.665,
1913,-0.63,-0.665,
1914,-0.625,-0.655,
1915,-0.605,-0.63,
1916,-0.605,-0.605,
1917,-0.595,-0.615,
1918,-0.62,-0.605,
1919,-0.61,-0.61,
1920,-0.6,-0.605,
1921,-0.57,-0.58,
1922,-0.555,-0.555,
1923,-0.555,-0.565,
1924,-0.57,-0.54,
1925,-0.57,-0.545,
1926,-0.55,-0.53,
1927,-0.52,-0.51,
1928,-0.51,-0.485,
1929,-0.51,-0.475,
1930,-0.51,-0.475,
1931,-0.515,-0.47,
1932,-0.505,-0.46,
1933,-0.485,-0.43,
1934,-0.47,-0.4,
1935,-0.465,-0.4,
1936,-0.485,-0.41,
1937,-0.47,-0.41,
1938,-0.45,-0.4,
1939,-0.43,-0.37,
1940,-0.415,-0.365,
1941,-0.42,-0.355,
1942,-0.42,-0.37,
1943,-0.42,-0.37,
1944,-0.4,-0.365,
1945,-0.385,-0.34,
1946,-0.375,-0.31,
1947,-0.365,-0.315,
1948,-0.375,-0.325,
1949,-0.37,-0.325,
1950,-0.365,-0.32,
1951,-0.35,-0.295,
1952,-0.355,-0.275,
1953,-0.36,-0.28,
1954,-0.385,-0.29,
1955,-0.37,-0.28,
1956,-0.36,-0.29,
1957,-0.34,-0.255,
1958,-0.32,-0.24,
1959,-0.33,-0.235,
1960,-0.335,-0.25,
1961,-0.34,-0.25,
1962,-0.33,-0.23,
1963,-0.305,-0.225,
1964,-0.295,-0.19,
1965,-0.305,-0.185,
1966,-0.3,-0.19,
1967,-0.3,-0.2,
1968,-0.3,-0.18,
1969,-0.275,-0.17,
1970,-0.265,-0.14,
1971,-0.27,-0.135,
1972,-0.285,-0.145,
1973,-0.285,-0.14,
1974,-0.27,-0.135,
1975,-0.26,-0.12,
1976,-0.25,-0.11,
1977,-0.25,-0.095,
1978,-0.255,-0.1,
1979,-0.265,-0.105,
1980,-0.26,-0.105,
1981,-0.245,-0.075,
1982,-0.24,-0.07,
1983,-0.23,-0.07,
1984,-0.245,-0.08,
1985,-0.24,-0.075,
1986,-0.24,-0.085,
1987,-0.22,-0.075,
1988,-0.22,-0.06,
1989,-0.22,-0.065,
1990,-0.23,-0.07,
1991,-0.225,-0.075,
1992,-0.22,-0.055,
1993,-0.23,-0.075,
1994,-0.22,-0.055,
1995,-0.23,-0.06,
1996,-0.245,-0.07,
1997,-0.245,-0.06,
1998,-0.23,-0.065,
1999,-0.215,-0.055,
2000,-0.215,-0.07,
2001,-0.21,-0.065,
2002,-0.225,-0.06,
2003,-0.23,-0.08,
2004,-0.22,-0.07,
2005,-0.215,-0.07,
2006,-0.195,-0.065,
2007,-0.2,-0.065,
2008,-0.21,-0.085,
2009,-0.215,-0.085,
2010,-0.205,-0.075,
2011,-0.215,-0.07,
2012,-0.2,-0.07,
2013,-0.205,-0.06,
2014,-0.22,-0.08,
2015,-0.22,-0.095,
2016,-0.215,-0.09,
2017,-0.205,-0.08,
2018,-0.21,-0.065,
2019,-0.21,-0.075,
2020,-0.215,-0.085,
2021,-0.225,-0.09,
2022,-0.225,-0.09,
2023,-0.205,-0.09,
2024,-0.18,-0.065,
2025,-0.185,-0.065,
2026,-0.2,-0.09,
2027,-0.19,-0.095,
2028,-0.2,-0.095,
2029,-0.175,-0.09,
2030,-0.16,-0.075,
2031,-0.185,-0.08,
2032,-0.195,-0.095,
2033,-0.205,-0.11,
2034,-0.2,-0.105,
2035,-0.205,-0.09,
2036,-0.195,-0.09,
2037,-0.195,-0.09,
2038,-0.2,-0.11,
2039,-0.21,-0.12,
2040,-0.205,-0.105,
2041,-0.185,-0.09,
2042,-0.185,-0.085,
2043,-0.195,-0.1,
2044,-0.19,-0.12,
2045,-0.205,-0.125,
2046,-0.19,-0.12,
2047,-0.175,-0.105,
2048,-0.165,-0.085,
2049,-0.175,-0.105,
2050,-0.185,-0.125,
2051,-0.185,-0.125,
2052,-0.2,-0.11,
2053,-0.185,-0.1,
2054,-0.175,-0.1,
2055,-0.185,-0.115,
2056,-0.205,-0.145,
2057,-0.21,-0.145,
2058,-0.195,-0.125,
2059,-0.18,-0.1,
2060,-0.19,-0.095,
2061,-0.19,-0.135,
2062,-0.205,-0.16,
2063,-0.2,-0.15,
2064,-0.185,-0.135,
2065,-0.18,-0.1,
2066,-0.17,-0.12,
2067,-0.175,-0.14,
2068,-0.19,-0.165,
2069,-0.195,-0.16,
2070,-0.18,-0.13,
2071,-0.175,-0.115,
2072,-0.17,-0.12,
2073,-0.175,-0.145,
2074,-0.19,-0.165,
2075,-0.2,-0.165,
2076,-0.195,-0.145,
2077,-0.18,-0.125,
2078,-0.185,-0.13,
2079,-0.175,-0.17,
2080,-0.195,-0.18,
2081,-0.195,-0.16,
2082,-0.185,-0.135,
2083,-0.175,-0.125,
2084,-0.175,-0.145,
2085,-0.18,-0.16,
2086,-0.18,-0.18,
2087,-0.185,-0.17,
2088,-0.175,-0.15,
2089,-0.17,-0.135,
2090,-0.165,-0.155,
2091,-0.17,-0.175,
2092,-0.185,-0.195,
2093,-0.185,-0.175,
2094,-0.18,-0.145,
2095,-0.165,-0.145,
2096,-0.175,-0.16,
2097,-0.18,-0.185,
2098,-0.2,-0.195,
2099,-0.2,-0.175,
2100,-0.185,-0.165,
2101,-0.175,-0.155,
2102,-0.17,-0.17,
2103,-0.175,-0.195,
2104,-0.19,-0.205,
2105,-0.2,-0.19,
2106,-0.17,-0.16,
2107,-0.155,-0.17,
2108,-0.145,-0.18,
2109,-0.16,-0.19,
2110,-0.17,-0.215,
2111,-0.175,-0.19,
2112,-0.175,-0.165,
2113,-0.175,-0.17,
2114,-0.16,-0.185,
2115,-0.17,-0.205,
2116,-0.18,-0.195,
2117,-0.19,-0.19,
2118,-0.17,-0.175,
2119,-0.185,-0.185,
2120,-0.165,-0.2,
2121,-0.165,-0.215,
2122,-0.175,-0.215,
2123,-0.185,-0.195,
2124,-0.165,-0.185,
2125,-0.15,-0.185,
2126,-0.15,-0.21,
2127,-0.155,-0.22,
2128,-0.16,-0.21,
2129,-0.175,-0.205,
2130,-0.165,-0.185,
2131,-0.15,-0.2,
2132,-0.165,-0.205,
2133,-0.17,-0.23,
2134,-0.175,-0.215,
2135,-0.18,-0.205,
2136,-0.175,-0.195,
2137,-0.155,-0.195,
2138,-0.165,-0.22,
2139,-0.175,-0.22,
2140,-0.17,-0.225,
2141,-0.19,-0.215,
2142,-0.185,-0.205,
2143,-0.17,-0.205,
2144,-0.16,-0.23,
2145,-0.165,-0.225,
2146,-0.175,-0.22,
2147,-0.175,-0.205,
2148,-0.15,-0.21,
2149,-0.15,-0.205,
2150,-0.15,-0.225,
2151,-0.155,-0.235,
2152,-0.165,-0.22,
2153,-0.18,-0.21,
2154,-0.18,-0.21,
2155,-0.165,-0.21,
2156,-0.17,-0.23,
2157,-0.165,-0.23,
2158,-0.175,-0.23,
2159,-0.185,-0.215,
2160,-0.175,-0.225,
2161,-0.165,-0.215,
2162,-0.165,-0.245,
2163,-0.185,-0.23,
2164,-0.185,-0.245,
2165,-0.175,-0.22,
2166,-0.155,-0.23,
2167,-0.145,-0.225,
2168,-0.16,-0.23,
2169,-0.17,-0.245,
2170,-0.16,-0.245,
2171,-0.17,-0.23,
2172,-0.17,-0.215,
2173,-0.155,-0.23,
2174,-0.155,-0.23,
2175,-0.16,-0.255,
2176,-0.165,-0.255,
2177,-0.185,-0.245,
2178,-0.18,-0.21,
2179,-0.165,-0.225,
2180,-0.17,-0.24,
2181,-0.185,-0.24,
2182,-0.175,-0.24,
2183,-0.175,-0.245,
2184,-0.175,-0.22,
2185,-0.17,-0.225,
2186,-0.165,-0.235,
2187,-0.17,-0.24,
2188,-0.17,-0.265,
2189,-0.175,-0.24,
2190,-0.15,-0.22,
2191,-0.15,-0.225,
2192,-0.15,-0.24,
2193,-0.165,-0.265,
2194,-0.175,-0.26,
2195,-0.195,-0.235,
2196,-0.165,-0.22,
2197,-0.165,-0.215,
2198,-0.155,-0.24,
2199,-0.165,-0.255,
2200,-0.185,-0.255,
2201,-0.175,-0.245,
2202,-0.165,-0.225,
2203,-0.155,-0.225,
2204,-0.155,-0.235,
2205,-0.16,-0.255,
2206,-0.16,-0.26,
2207,-0.175,-0.255,
2208,-0.16,-0.23,
2209,-0.15,-0.23,
2210,-0.145,-0.225,
2211,-0.145,-0.25,
2212,-0.155,-0.27,
2213,-0.155,-0.26,
2214,-0.155,-0.235,
2215,-0.15,-0.215,
2216,-0.145,-0.235,
2217,-0.17,-0.26,
2218,-0.175,-0.275,
2219,-0.185,-0.25,
2220,-0.175,-0.235,
2221,-0.16,-0.225,
2222,-0.15,-0.235,
2223,-0.17,-0.26,
2224,-0.175,-0.27,
2225,-0.17,-0.26,
2226,-0.16,-0.245,
2227,-0.15,-0.21,
2228,-0.145,-0.23,
2229,-0.15,-0.255,
2230,-0.165,-0.28,
2231,-0.165,-0.255,
2232,-0.165,-0.24,
2233,-0.145,-0.225,
2234,-0.14,-0.23,
2235,-0.155,-0.26,
2236,-0.17,-0.27,
2237,-0.175,-0.265,
2238,-0.155,-0.24,
2239,-0.155,-0.22,
2240,-0.155,-0.235,
2241,-0.16,-0.25,
2242,-0.16,-0.275,
2243,-0.165,-0.255,
2244,-0.16,-0.25,
2245,-0.145,-0.23,
2246,-0.15,-0.225,
2247,-0.155,-0.255,
2248,-0.18,-0.27,
2249,-0.165,-0.265,
2250,-0.15,-0.245,
2251,-0.14,-0.225,
2252,-0.145,-0.24,
2253,-0.145,-0.25,
2254,-0.15,-0.275,
2255,-0.165,-0.26,
2256,-0.17,-0.25,
2257,-0.145,-0.225,
2258,-0.14,-0.23,
2259,-0.145,-0.245,
2260,-0.17,-0.27,
2261,-0.16,-0.27,
2262,-0.155,-0.255,
2263,-0.15,-0.24,
2264,-0.14,-0.225,
2265,-0.17,-0.235,
2266,-0.18,-0.265,
2267,-0.175,-0.27,
2268,-0.17,-0.255,
2269,-0.15,-0.235,
2270,-0.145,-0.23,
2271,-0.17,-0.245,
2272,-0.175,-0.255,
2273,-0.17,-0.26,
2274,-0.145,-0.255,
2275,-0.135,-0.235,
2276,-0.135,-0.225,
2277,-0.14,-0.225,
2278,-0.15,-0.245,
2279,-0.165,-0.26,
2280,-0.17,-0.25,
2281,-0.165,-0.245,
2282,-0.15,-0.225,
2283,-0.165,-0.23,
2284,-0.17,-0.245,
2285,-0.175,-0.25,
2286,-0.165,-0.25,
2287,-0.15,-0.24,
2288,-0.145,-0.235,
2289,-0.155,-0.235,
2290,-0.165,-0.245,
2291,-0.17,-0.25,
2292,-0.155,-0.245,
2293,-0.14,-0.235,
2294,-0.135,-0.225,
2295,-0.15,-0.23,
2296,-0.15,-0.245,
2297,-0.155,-0.26,
2298,-0.14,-0.245,
2299,-0.135,-0.23,
2300,-0.135,-0.22,
2301,-0.15,-0.22,
2302,-0.165,-0.235,
2303,-0.175,-0.245,
2304,-0.165,-0.225,
2305,-0.145,-0.22,
2306,-0.15,-0.205,
2307,-0.17,-0.21,
2308,-0.17,-0.215,
2309,-0.16,-0.21,
2310,-0.14,-0.22,
2311,-0.13,-0.205,
2312,-0.115,-0.185,
2313,-0.12,-0.19,
2314,-0.125,-0.2,
2315,-0.135,-0.205,
2316,-0.115,-0.23,
2317,-0.095,-0.21,
2318,-0.1,-0.225,
2319,-0.125,-0.225,
2320,-0.135,-0.235,
2321,-0.13,-0.255,
2322,-0.135,-0.255,
2323,-0.14,-0.255,
2324,-0.145,-0.275,
2325,-0.185,-0.3,
2326,-0.225,-0.34,
2327,-0.23,-0.395,
2328,-0.235,-0.43,
2329,-0.22,-0.46,
2330,-0.195,-0.5,
2331,-0.165,-0.51,
2332,-0.08,-0.535,
2333,0.035,-0.54,
2334,0.16,-0.515,
2335,0.26,-0.505,
2336,0.32,-0.49,
2337,0.36,-0.46,
2338,0.38,-0.405,
2339,0.455,-0.28,
2340,0.6,-0.02,
2341,0.72,0.295,
2342,0.77,0.575,R
2343,0.735,0.715,
2344,0.66,0.76,
2345,0.6,0.79,
2346,0.545,0.835,
2347,0.47,0.915,
2348,0.35,0.95,
2349,0.155,0.92,
2350,-0.045,0.85,
2351,-0.185,0.755,
2352,-0.245,0.675,
2353,-0.26,0.62,
2354,-0.29,0.585,
2355,-0.305,0.57,
2356,-0.36,0.55,
2357,-0.405,0.545,
2358,-0.415,0.555,
2359,-0.385,0.6,
2360,-0.35,0.66,
2361,-0.32,0.685,
2362,-0.31,0.69,
2363,-0.27,0.69,
2364,-0.215,0.7,
2365,-0.145,0.705,
2366,-0.12,0.66,
2367,-0.12,0.585,
2368,-0.145,0.46,
2369,-0.19,0.325,
2370,-0.205,0.195,
2371,-0.22,0.085,
2372,-0.225,-0.015,
2373,-0.235,-0.085,
2374,-0.24,-0.145,
2375,-0.225,-0.2,
2376,-0.225,-0.215,
2377,-0.21,-0.22,
2378,-0.205,-0.215,
2379,-0.205,-0.24,
2380,-0.22,-0.26,
2381,-0.215,-0.28,
2382,-0.21,-0.28,
2383,-0.21,-0.26,
2384,-0.215,-0.26,
2385,-0.225,-0.265,
2386,-0.245,-0.295,
2387,-0.235,-0.3,
2388,-0.22,-0.295,
2389,-0.215,-0.275,
2390,-0.22,-0.275,
2391,-0.22,-0.275,
2392,-0.225,-0.3,
2393,-0.22,-0.315,
2394,-0.205,-0.305,
2395,-0.21,-0.285,
2396,-0.19,-0.28,
2397,-0.2,-0.28,
2398,-0.21,-0.31,
2399,-0.2,-0.32,
2400,-0.195,-0.3,
2401,-0.175,-0.275,
2402,-0.19,-0.265,
2403,-0.195,-0.28,
2404,-0.205,-0.305,
2405,-0.205,-0.315,
2406,-0.19,-0.3,
2407,-0.175,-0.275,
2408,-0.165,-0.27,
2409,-0.175,-0.285,
2410,-0.185,-0.305,
2411,-0.19,-0.31,
2412,-0.165,-0.285,
2413,-0.15,-0.26,
2414,-0.145,-0.255,
2415,-0.15,-0.27,
2416,-0.15,-0.285,
2417,-0.155,-0.295,
2418,-0.145,-0.285,
2419,-0.125,-0.26,
2420,-0.125,-0.25,
2421,-0.135,-0.255,
2422,-0.145,-0.26,
2423,-0.13,-0.275,
2424,-0.145,-0.26,
2425,-0.115,-0.23,
2426,-0.11,-0.235,
2427,-0.12,-0.235,
2428,-0.135,-0.25,
2429,-0.12,-0.255,
2430,-0.11,-0.24,
2431,-0.095,-0.205,
2432,-0.095,-0.195,
2433,-0.095,-0.205,
2434,-0.105,-0.215,
2435,-0.1,-0.22,
2436,-0.075,-0.215,
2437,-0.06,-0.18,
2438,-0.055,-0.175,
2439,-0.075,-0.17,
2440,-0.07,-0.205,
2441,-0.05,-0.2,
2442,-0.045,-0.175,
2443,-0.03,-0.15,
2444,-0.04,-0.135,
2445,-0.04,-0.14,
2446,-0.06,-0.165,
2447,-0.05,-0.165,
2448,-0.035,-0.135,
2449,-0.015,-0.115,
2450,-0.02,-0.105,
2451,-0.025,-0.115,
2452,-0.015,-0.13,
2453,-0.035,-0.12,
2454,-0.005,-0.115,
2455,0.01,-0.1,
2456,0.02,-0.08,
2457,-0.005,-0.08,
2458,0.01,-0.09,
2459,0.0,-0.1,
2460,0.015,-0.085,
2461,0.04,-0.065,
2462,0.045,-0.05,
2463,0.045,-0.045,
2464,0.04,-0.05,
2465,0.05,-0.055,
2466,0.055,-0.07,
2467,0.065,-0.055,
2468,0.055,-0.04,
2469,0.06,-0.03,
2470,0.05,-0.04,
2471,0.04,-0.04,
2472,0.06,-0.05,
2473,0.075,-0.035,
2474,0.075,-0.03,
2475,0.075,-0.02,
2476,0.075,-0.015,
2477,0.065,-0.015,
2478,0.09,-0.02,
2479,0.1,-0.005,
2480,0.1,0.0,
2481,0.11,0.0,
2482,0.085,0.0,
2483,0.085,0.01,
2484,0.105,0.005,
2485,0.12,0.015,
2486,0.125,0.015,
2487,0.11,0.025,
2488,0.095,0.035,
2489,0.1,0.03,
2490,0.095,0.035,
2491,0.1,0.03,
2492,0.1,0.035,
2493,0.095,0.04,
2494,0.085,0.05,
2495,0.08,0.06,
2496,0.09,0.075,
2497,0.085,0.07,
2498,0.09,0.065,
2499,0.08,0.055,
2500,0.08,0.08,
2501,0.08,0.09,
2502,0.07,0.105,
2503,0.105,0.09,
2504,0.1,0.09,
2505,0.09,0.085,
2506,0.07,0.095,
2507,0.075,0.125,
2508,0.075,0.145,
2509,0.085,0.145,
2510,0.09,0.125,
2511,0.07,0.115,
2512,0.045,0.135,
2513,0.035,0.16,
2514,0.055,0.19,
2515,0.07,0.185,
2516,0.07,0.175,
2517,0.05,0.175,
2518,0.03,0.17,
2519,0.035,0.21,
2520,0.045,0.225,
2521,0.06,0.215,
2522,0.06,0.21,
2523,0.06,0.185,
2524,0.03,0.2,
2525,0.05,0.225,
2526,0.06,0.24,
2527,0.075,0.24,
2528,0.075,0.23,
2529,0.07,0.2,
2530,0.06,0.205,
2531,0.065,0.235,
2532,0.065,0.24,
2533,0.065,0.245,
2534,0.08,0.215,
2535,0.065,0.2,
2536,0.065,0.195,
2537,0.065,0.215,
2538,0.07,0.23,
2539,0.065,0.235,
2540,0.085,0.215,
2541,0.08,0.205,
2542,0.07,0.195,
2543,0.08,0.22,
2544,0.09,0.225,
2545,0.105,0.235,
2546,0.11,0.215,
2547,0.11,0.185,
2548,0.095,0.18,
2549,0.105,0.21,
2550,0.13,0.22,
2551,0.13,0.24,
2552,0.145,0.22,
2553,0.145,0.195,
2554,0.13,0.185,
2555,0.13,0.195,
2556,0.155,0.22,
2557,0.155,0.23,
2558,0.185,0.22,
2559,0.18,0.195,
2560,0.17,0.185,
2561,0.175,0.175,
2562,0.185,0.195,
2563,0.2,0.2,
2564,0.185,0.185,
2565,0.165,0.15,
2566,0.145,0.12,
2567,0.155,0.105,
2568,0.165,0.115,
2569,0.19,0.085,
2570,0.19,0.055,
2571,0.175,0.0,
2572,0.165,-0.065,
2573,0.17,-0.08,
2574,0.175,-0.075,
2575,0.185,-0.05,
2576,0.165,-0.035,
2577,0.135,-0.05,
2578,0.12,-0.055,
2579,0.08,-0.045,
2580,0.05,-0.02,
2581,0.005,-0.015,
2582,-0.05,-0.04,
2583,-0.125,-0.065,
2584,-0.245,-0.085,
2585,-0.36,-0.07,
2586,-0.485,-0.035,
2587,-0.565,-0.025,
2588,-0.615,-0.02,
2589,-0.71,-0.05,
2590,-0.87,-0.095,
2591,-1.01,-0.135,
2592,-1.09,-0.16,
2593,-1.105,-0.205,V
2594,-1.1,-0.25,
2595,-1.095,-0.3,
2596,-1.12,-0.315,
2597,-1.11,-0.305,
2598,-1.06,-0.245,
2599,-0.975,-0.185,
2600,-0.89,-0.115,
2601,-0.83,-0.085,
2602,-0.79,-0.075,
2603,-0.75,-0.055,
2604,-0.705,-0.04,
2605,-0.71,-0.03,
2606,-0.72,-0.08,
2607,-0.745,-0.14,
2608,-0.775,-0.22,
2609,-0.79,-0.29,
2610,-0.815,-0.355,
2611,-0.805,-0.44,
2612,-0.82,-0.585,
2613,-0.85,-0.74,
2614,-0.875,-0.9,
2615,-0.895,-1.005,
2616,-0.89,-1.08,
2617,-0.895,-1.105,
2618,-0.88,-1.14,
2619,-0.895,-1.19,
2620,-0.895,-1.23,
2621,-0.905,-1.245,
2622,-0.9,-1.255,
2623,-0.885,-1.25,
2624,-0.89,-1.255,
2625,-0.91,-1.27,
2626,-0.91,-1.3,
2627,-0.91,-1.31,
2628,-0.9,-1.315,
2629,-0.88,-1.295,
2630,-0.89,-1.285,
2631,-0.9,-1.31,
2632,-0.91,-1.32,
2633,-0.91,-1.34,
2634,-0.905,-1.325,
2635,-0.89,-1.32,
2636,-0.895,-1.32,
2637,-0.885,-1.33,
2638,-0.9,-1.35,
2639,-0.895,-1.355,
2640,-0.885,-1.35,
2641,-0.865,-1.335,
2642,-0.865,-1.335,
2643,-0.865,-1.345,
2644,-0.87,-1.36,
2645,-0.87,-1.365,
2646,-0.86,-1.36,
2647,-0.85,-1.355,
2648,-0.84,-1.325,
2649,-0.84,-1.335,
2650,-0.84,-1.34,
2651,-0.845,-1.345,
2652,-0.825,-1.335,
2653,-0.81,-1.31,
2654,-0.79,-1.305,
2655,-0.79,-1.305,
2656,-0.805,-1.31,
2657,-0.805,-1.31,
2658,-0.79,-1.3,
2659,-0.77,-1.275,
2660,-0.765,-1.265,
2661,-0.765,-1.265,
2662,-0.77,-1.26,
2663,-0.77,-1.265,
2664,-0.755,-1.245,
2665,-0.725,-1.22,
2666,-0.72,-1.2,
2667,-0.715,-1.2,
2668,-0.735,-1.195,
2669,-0.725,-1.2,
2670,-0.705,-1.18,
2671,-0.695,-1.15,
2672,-0.67,-1.135,
2673,-0.655,-1.125,
2674,-0.655,-1.135,
2675,-0.655,-1.125,
2676,-0.64,-1.11,
2677,-0.635,-1.085,
2678,-0.625,-1.065,
2679,-0.62,-1.055,
2680,-0.635,-1.06,
2681,-0.635,-1.05,
2682,-0.615,-1.045,
2683,-0.6,-1.005,
2684,-0.585,-0.995,
2685,-0.58,-0.99,
2686,-0.585,-0.98,
2687,-0.585,-0.975,
2688,-0.55,-0.96,
2689,-0.535,-0.935,
2690,-0.535,-0.91,
2691,-0.525,-0.895,
2692,-0.525,-0.895,
2693,-0.515,-0.895,
2694,-0.505,-0.875,
2695,-0.48,-0.86,
2696,-0.47,-0.83,
2697,-0.47,-0.83,
2698,-0.47,-0.82,
2699,-0.465,-0.825,
2700,-0.45,-0.795,
2701,-0.43,-0.77,
2702,-0.415,-0.75,
2703,-0.42,-0.73,
2704,-0.41,-0.74,
2705,-0.405,-0.725,
2706,-0.385,-0.715,
2707,-0.35,-0.67,
2708,-0.33,-0.655,
2709,-0.335,-0.66,
2710,-0.35,-0.665,
2711,-0.34,-0.645,
2712,-0.33,-0.635,
2713,-0.3,-0.6,
2714,-0.305,-0.585,
2715,-0.295,-0.595,
2716,-0.285,-0.6,
2717,-0.275,-0.6,
2718,-0.255,-0.6,
2719,-0.255,-0.565,
2720,-0.245,-0.565,
2721,-0.26,-0.565,
2722,-0.275,-0.57,
2723,-0.275,-0.57,
2724,-0.265,-0.56,
2725,-0.255,-0.52,
2726,-0.255,-0.51,
2727,-0.25,-0.535,
2728,-0.245,-0.54,
2729,-0.255,-0.535,
2730,-0.245,-0.505,
2731,-0.21,-0.485,
2732,-0.225,-0.475,
2733,-0.24,-0.49,
2734,-0.245,-0.51,
2735,-0.245,-0.495,
2736,-0.235,-0.47,
2737,-0.235,-0.44,
2738,-0.23,-0.43,
2739,-0.22,-0.44,
2740,-0.24,-0.455,
2741,-0.25,-0.42,
2742,-0.25,-0.38,
2743,-0.235,-0.365,
2744,-0.23,-0.35,
2745,-0.24,-0.375,
2746,-0.24,-0.385,
2747,-0.24,-0.365,
2748,-0.23,-0.325,
2749,-0.22,-0.3,
2750,-0.22,-0.29,
2751,-0.22,-0.305,
2752,-0.23,-0.325,
2753,-0.23,-0.305,
2754,-0.24,-0.275,
2755,-0.205,-0.245,
2756,-0.195,-0.265,
2757,-0.215,-0.275,
2758,-0.225,-0.29,
2759,-0.225,-0.27,
2760,-0.215,-0.245,
2761,-0.205,-0.225,
2762,-0.21,-0.225,
2763,-0.23,-0.245,
2764,-0.235,-0.255,
2765,-0.24,-0.25,
2766,-0.21,-0.225,
2767,-0.21,-0.2,
2768,-0.2,-0.21,
2769,-0.225,-0.235,
2770,-0.225,-0.245,
2771,-0.225,-0.235,
2772,-0.21,-0.19,
2773,-0.195,-0.185,
2774,-0.185,-0.205,
2775,-0.195,-0.225,
2776,-0.21,-0.23,
2777,-0.21,-0.205,
2778,-0.205,-0.185,
2779,-0.195,-0.185,
2780,-0.195,-0.205,
2781,-0.2,-0.23,
2782,-0.21,-0.22,
2783,-0.215,-0.19,
2784,-0.21,-0.185,
2785,-0.215,-0.18,
2786,-0.19,-0.195,
2787,-0.2,-0.215,
2788,-0.205,-0.215,
2789,-0.215,-0.19,
2790,-0.205,-0.17,
2791,-0.195,-0.19,
2792,-0.195,-0.195,
2793,-0.205,-0.205,
2794,-0.2,-0.21,
2795,-0.2,-0.19,
2796,-0.195,-0.175,
2797,-0.19,-0.165,
2798,-0.18,-0.195,
2799,-0.195,-0.205,
2800,-0.19,-0.21,
2801,-0.205,-0.185,
2802,-0.21,-0.165,
2803,-0.195,-0.175,
2804,-0.19,-0.19,
2805,-0.195,-0.21,
2806,-0.21,-0.2,
2807,-0.21,-0.185,
2808,-0.19,-0.17,
2809,-0.19,-0.17,
2810,-0.18,-0.185,
2811,-0.19,-0.195,
2812,-0.2,-0.19,
2813,-0.195,-0.175,
2814,-0.19,-0.165,
2815,-0.165,-0.185,
2816,-0.155,-0.185,
2817,-0.175,-0.19,
2818,-0.195,-0.18,
2819,-0.205,-0.175,
2820,-0.185,-0.165,
2821,-0.19,-0.165,
2822,-0.19,-0.18,
2823,-0.19,-0.185,
2824,-0.21,-0.18,
2825,-0.21,-0.165,
2826,-0.19,-0.16,
2827,-0.185,-0.17,
2828,-0.175,-0.18,
2829,-0.19,-0.175,
2830,-0.2,-0.16,
2831,-0.2,-0.16,
2832,-0.195,-0.155,
2833,-0.175,-0.175,
2834,-0.17,-0.175,
2835,-0.18,-0.19,
2836,-0.18,-0.185,
2837,-0.19,-0.165,
2838,-0.175,-0.16,
2839,-0.17,-0.17,
2840,-0.165,-0.18,
2841,-0.19,-0.185,
2842,-0.185,-0.185,
2843,-0.195,-0.165,
2844,-0.185,-0.155,
2845,-0.17,-0.17,
2846,-0.165,-0.185,
2847,-0.175,-0.19,
2848,-0.19,-0.18,
2849,-0.2,-0.165,
2850,-0.19,-0.16,
2851,-0.17,-0.175,
2852,-0.165,-0.165,
2853,-0.175,-0.18,
2854,-0.17,-0.18,
2855,-0.18,-0.155,
2856,-0.18,-0.155,
2857,-0.155,-0.155,
2858,-0.16,-0.17,
2859,-0.17,-0.18,
2860,-0.19,-0.175,
2861,-0.18,-0.16,
2862,-0.175,-0.16,
2863,-0.17,-0.17,
2864,-0.16,-0.185,
2865,-0.175,-0.18,
2866,-0.175,-0.175,
2867,-0.2,-0.165,
2868,-0.18,-0.15,
2869,-0.16,-0.16,
2870,-0.175,-0.175,
2871,-0.175,-0.19,
2872,-0.19,-0.16,
2873,-0.19,-0.16,
2874,-0.175,-0.165,
2875,-0.155,-0.165,
2876,-0.15,-0.185,
2877,-0.17,-0.175,
2878,-0.175,-0.17,
2879,-0.19,-0.165,
2880,-0.175,-0.17,
2881,-0.18,-0.18,
2882,-0.175,-0.18,
2883,-0.185,-0.185,
2884,-0.195,-0.175,
2885,-0.2,-0.17,
2886,-0.195,-0.165,
2887,-0.175,-0.17,
2888,-0.19,-0.18,
2889,-0.19,-0.175,
2890,-0.205,-0.175,
2891,-0.2,-0.17,
2892,-0.18,-0.17,
2893,-0.17,-0.17,
2894,-0.175,-0.175,
2895,-0.175,-0.185,
2896,-0.185,-0.185,
2897,-0.205,-0.17,
2898,-0.19,-0.175,
2899,-0.17,-0.195,
2900,-0.165,-0.185,
2901,-0.175,-0.2,
2902,-0.185,-0.18,
2903,-0.2,-0.18,
2904,-0.18,-0.175,
2905,-0.175,-0.185,
2906,-0.175,-0.2,
2907,-0.185,-0.19,
2908,-0.195,-0.175,
2909,-0.19,-0.17,
2910,-0.185,-0.17,
2911,-0.18,-0.185,
2912,-0.185,-0.19,
2913,-0.19,-0.195,
2914,-0.195,-0.175,
2915,-0.195,-0.17,
2916,-0.19,-0.17,
2917,-0.17,-0.18,
2918,-0.175,-0.185,
2919,-0.17,-0.205,
2920,-0.185,-0.185,
2921,-0.2,-0.175,
2922,-0.17,-0.175,
2923,-0.17,-0.185,
2924,-0.16,-0.2,
2925,-0.195,-0.195,
2926,-0.185,-0.205,
2927,-0.19,-0.18,
2928,-0.185,-0.17,
2929,-0.175,-0.185,
2930,-0.17,-0.195,
2931,-0.185,-0.19,
2932,-0.18,-0.19,
2933,-0.185,-0.17,
2934,-0.18,-0.17,
2935,-0.17,-0.18,
2936,-0.155,-0.185,
2937,-0.17,-0.205,
2938,-0.18,-0.195,
2939,-0.18,-0.175,
2940,-0.165,-0.165,
2941,-0.175,-0.18,
2942,-0.165,-0.185,
2943,-0.165,-0.205,
2944,-0.18,-0.19,
2945,-0.185,-0.18,
2946,-0.19,-0.175,
2947,-0.175,-0.185,
2948,-0.175,-0.2,
2949,-0.185,-0.205,
2950,-0.18,-0.19,
2951,-0.19,-0.18,
2952,-0.175,-0.165,
2953,-0.18,-0.185,
2954,-0.18,-0.185,
2955,-0.17,-0.205,
2956,-0.185,-0.19,
2957,-0.18,-0.185,
2958,-0.17,-0.18,
2959,-0.155,-0.185,
2960,-0.155,-0.19,
2961,-0.165,-0.195,
2962,-0.165,-0.19,
2963,-0.17,-0.18,
2964,-0.165,-0.17,
2965,-0.155,-0.185,
2966,-0.155,-0.195,
2967,-0.175,-0.195,
2968,-0.19,-0.2,
2969,-0.185,-0.18,
2970,-0.175,-0.18,
2971,-0.17,-0.195,
2972,-0.17,-0.21,
2973,-0.175,-0.205,
2974,-0.18,-0.195,
2975,-0.175,-0.18,
2976,-0.17,-0.175,
2977,-0.16,-0.175,
2978,-0.165,-0.195,
2979,-0.17,-0.195,
2980,-0.175,-0.205,
2981,-0.17,-0.18,
2982,-0.16,-0.18,
2983,-0.155,-0.185,
2984,-0.165,-0.195,
2985,-0.18,-0.205,
2986,-0.19,-0.2,
2987,-0.19,-0.185,
2988,-0.185,-0.18,
2989,-0.18,-0.19,
2990,-0.17,-0.21,
2991,-0.17,-0.215,
2992,-0.195,-0.205,
2993,-0.19,-0.19,
2994,-0.17,-0.18,
2995,-0.17,-0.19,
2996,-0.165,-0.2,
2997,-0.18,-0.205,
2998,-0.195,-0.21,
2999,-0.18,-0.195,
3000,-0.17,-0.18,
3001,-0.155,-0.19,
3002,-0.16,-0.2,
3003,-0.17,-0.215,
3004,-0.17,-0.205,
3005,-0.18,-0.195,
3006,-0.16,-0.18,
3007,-0.16,-0.18,
3008,-0.175,-0.21,
3009,-0.175,-0.21,
3010,-0.19,-0.2,
3011,-0.19,-0.18,
3012,-0.19,-0.175,
3013,-0.175,-0.19,
3014,-0.175,-0.2,
3015,-0.185,-0.21,
3016,-0.185,-0.205,
3017,-0.18,-0.18,
3018,-0.17,-0.19,
3019,-0.165,-0.185,
3020,-0.165,-0.215,
3021,-0.17,-0.22,
3022,-0.17,-0.205,
3023,-0.165,-0.195,
3024,-0.165,-0.185,
3025,-0.155,-0.205,
3026,-0.145,-0.21,
3027,-0.16,-0.205,
3028,-0.195,-0.21,
3029,-0.19,-0.195,
3030,-0.175,-0.18,
3031,-0.16,-0.205,
3032,-0.165,-0.21,
3033,-0.17,-0.215,
3034,-0.175,-0.21,
3035,-0.175,-0.195,
3036,-0.17,-0.195,
3037,-0.155,-0.215,
3038,-0.165,-0.215,
3039,-0.17,-0.22,
3040,-0.165,-0.205,
3041,-0.18,-0.2,
3042,-0.16,-0.2,
3043,-0.145,-0.21,
3044,-0.145,-0.21,
3045,-0.16,-0.215,
3046,-0.165,-0.195,
3047,-0.185,-0.195,
3048,-0.18,-0.195,
3049,-0.175,-0.205,
3050,-0.165,-0.2,
3051,-0.155,-0.2,
3052,-0.185,-0.2,
3053,-0.185,-0.19,
3054,-0.175,-0.205,
3055,-0.155,-0.21,
3056,-0.16,-0.21,
3057,-0.185,-0.205,
3058,-0.195,-0.205,
3059,-0.185,-0.195,
3060,-0.165,-0.195,
3061,-0.155,-0.205,
3062,-0.15,-0.205,
3063,-0.16,-0.195,
3064,-0.185,-0.185,
3065,-0.17,-0.185,
3066,-0.155,-0.2,
3067,-0.155,-0.195,
3068,-0.17,-0.18,
3069,-0.175,-0.185,
3070,-0.18,-0.195,
3071,-0.18,-0.2,
3072,-0.17,-0.2,
3073,-0.16,-0.195,
3074,-0.16,-0.18,
3075,-0.165,-0.18,
3076,-0.175,-0.2,
3077,-0.2,-0.195,
3078,-0.16,-0.19,
3079,-0.155,-0.19,
3080,-0.15,-0.175,
3081,-0.155,-0.175,
3082,-0.16,-0.195,
3083,-0.15,-0.21,
3084,-0.13,-0.18,
3085,-0.125,-0.18,
3086,-0.12,-0.17,
3087,-0.13,-0.185,
3088,-0.135,-0.185,
3089,-0.14,-0.195,
3090,-0.13,-0.185,
3091,-0.105,-0.16,
3092,-0.105,-0.16,
3093,-0.13,-0.18,
3094,-0.165,-0.22,
3095,-0.195,-0.24,
3096,-0.2,-0.275,
3097,-0.18,-0.29,
3098,-0.16,-0.32,
3099,-0.17,-0.375,
3100,-0.135,-0.425,
3101,-0.055,-0.455,
3102,0.075,-0.435,
3103,0.2,-0.415,
3104,0.3,-0.395,
3105,0.34,-0.41,
3106,0.35,-0.41,
3107,0.375,-0.355,
3108,0.46,-0.215,
3109,0.59,0.035,
3110,0.715,0.355,
3111,0.75,0.605,R
3112,0.725,0.725,
3113,0.66,0.795,
3114,0.61,0.86,
3115,0.565,0.93,
3116,0.48,0.965,
3117,0.33,0.955,
3118,0.145,0.915,
3119,-0.05,0.86,
3120,-0.175,0.79,
3121,-0.22,0.71,
3122,-0.24,0.62,
3123,-0.265,0.56,
3124,-0.305,0.56,
3125,-0.335,0.565,
3126,-0.365,0.58,
3127,-0.38,0.59,
3128,-0.38,0.625,
3129,-0.37,0.645,
3130,-0.34,0.675,
3131,-0.31,0.715,
3132,-0.26,0.75,
3133,-0.195,0.76,
3134,-0.155,0.735,
3135,-0.135,0.66,
3136,-0.155,0.585,
3137,-0.185,0.48,
3138,-0.2,0.39,
3139,-0.225,0.245,
3140,-0.235,0.105,
3141,-0.245,-0.01,
3142,-0.255,-0.08,
3143,-0.245,-0.105,
3144,-0.235,-0.12,
3145,-0.225,-0.125,
3146,-0.225,-0.175,
3147,-0.245,-0.19,
3148,-0.26,-0.215,
3149,-0.26,-0.2,
3150,-0.25,-0.185,
3151,-0.245,-0.185,
3152,-0.235,-0.205,
3153,-0.25,-0.235,
3154,-0.265,-0.255,
3155,-0.265,-0.23,
3156,-0.26,-0.2,
3157,-0.235,-0.21,
3158,-0.24,-0.22,
3159,-0.255,-0.24,
3160,-0.245,-0.265,
3161,-0.245,-0.25,
3162,-0.225,-0.21,
3163,-0.215,-0.21,
3164,-0.22,-0.225,
3165,-0.225,-0.25,
3166,-0.235,-0.255,
3167,-0.25,-0.25,
3168,-0.25,-0.225,
3169,-0.235,-0.21,
3170,-0.22,-0.235,
3171,-0.23,-0.265,
3172,-0.245,-0.265,
3173,-0.24,-0.245,
3174,-0.225,-0.22,
3175,-0.205,-0.22,
3176,-0.215,-0.23,
3177,-0.225,-0.25,
3178,-0.22,-0.255,
3179,-0.215,-0.245,
3180,-0.2,-0.215,
3181,-0.195,-0.225,
3182,-0.18,-0.23,
3183,-0.18,-0.245,
3184,-0.185,-0.245,
3185,-0.18,-0.225,
3186,-0.175,-0.2,
3187,-0.16,-0.2,
3188,-0.16,-0.205,
3189,-0.17,-0.225,
3190,-0.185,-0.24,
3191,-0.175,-0.22,
3192,-0.16,-0.19,
3193,-0.145,-0.185,
3194,-0.145,-0.2,
3195,-0.155,-0.2,
3196,-0.155,-0.21,
3197,-0.16,-0.205,
3198,-0.135,-0.16,
3199,-0.115,-0.16,
3200,-0.115,-0.165,
3201,-0.13,-0.18,
3202,-0.13,-0.195,
3203,-0.135,-0.175,
3204,-0.12,-0.135,
3205,-0.09,-0.125,
3206,-0.085,-0.135,
3207,-0.105,-0.145,
3208,-0.095,-0.155,
3209,-0.1,-0.145,
3210,-0.07,-0.12,
3211,-0.06,-0.1,
3212,-0.07,-0.09,
3213,-0.07,-0.12,
3214,-0.085,-0.115,
3215,-0.085,-0.1,
3216,-0.055,-0.07,
3217,-0.035,-0.06,
3218,-0.04,-0.065,
3219,-0.045,-0.075,
3220,-0.05,-0.08,
3221,-0.04,-0.07,
3222,-0.03,-0.04,
3223,-0.01,-0.025,
3224,-0.01,-0.03,
3225,0.0,-0.05,
3226,-0.01,-0.055,
3227,-0.02,-0.04,
3228,-0.005,-0.015,
3229,0.02,0.005,
3230,0.02,0.01,
3231,0.005,-0.01,
3232,0.005,-0.02,
3233,0.0,-0.005,
3234,0.01,0.01,
3235,0.035,0.035,
3236,0.04,0.04,
3237,0.035,0.01,
3238,0.035,0.01,
3239,0.03,0.015,
3240,0.05,0.04,
3241,0.055,0.06,
3242,0.065,0.05,
3243,0.06,0.045,
3244,0.05,0.025,
3245,0.065,0.04,
3246,0.075,0.07,
3247,0.1,0.09,
3248,0.075,0.08,
3249,0.085,0.055,
3250,0.085,0.045,
3251,0.08,0.06,
3252,0.09,0.095,
3253,0.1,0.105,
3254,0.095,0.11,
3255,0.08,0.1,
3256,0.075,0.085,
3257,0.07,0.09,
3258,0.09,0.12,
3259,0.105,0.13,
3260,0.095,0.14,
3261,0.075,0.115,
3262,0.08,0.115,
3263,0.07,0.125,
3264,0.09,0.165,
3265,0.11,0.18,
3266,0.1,0.165,
3267,0.09,0.135,
3268,0.08,0.15,
3269,0.075,0.17,
3270,0.08,0.185,
3271,0.09,0.225,
3272,0.075,0.195,
3273,0.06,0.185,
3274,0.05,0.195,
3275,0.05,0.215,
3276,0.055,0.245,
3277,0.06,0.265,
3278,0.07,0.245,
3279,0.06,0.245,
3280,0.05,0.23,
3281,0.055,0.25,
3282,0.06,0.29,
3283,0.06,0.3,
3284,0.075,0.295,
3285,0.06,0.275,
3286,0.06,0.26,
3287,0.055,0.28,
3288,0.06,0.31,
3289,0.09,0.315,
3290,0.09,0.31,
3291,0.07,0.285,
3292,0.035,0.285,
3293,0.055,0.31,
3294,0.07,0.32,
3295,0.085,0.33,
3296,0.09,0.315,
3297,0.075,0.29,
3298,0.06,0.29,
3299,0.075,0.3,
3300,0.085,0.33,
3301,0.105,0.345,
3302,0.105,0.315,
3303,0.1,0.295,
3304,0.09,0.285,
3305,0.1,0.285,
3306,0.105,0.32,
3307,0.13,0.33,
3308,0.13,0.31,
3309,0.13,0.29,
3310,0.12,0.275,
3311,0.12,0.295,
3312,0.145,0.325,
3313,0.155,0.325,
3314,0.16,0.305,
3315,0.145,0.28,
3316,0.15,0.295,
3317,0.155,0.31,
3318,0.17,0.33,
3319,0.19,0.32,
3320,0.195,0.3,
3321,0.195,0.28,
3322,0.185,0.295,
3323,0.19,0.315,
3324,0.22,0.335,
3325,0.225,0.32,
3326,0.245,0.3,
3327,0.215,0.265,
3328,0.205,0.255,
3329,0.2,0.26,
3330,0.19,0.265,
3331,0.185,0.25,
3332,0.175,0.21,
3333,0.15,0.16,
3334,0.145,0.14,
3335,0.135,0.13,
3336,0.155,0.105,
3337,0.16,0.085,
3338,0.15,0.055,
3339,0.13,0.055,
3340,0.085,0.07,
3341,0.05,0.09,
3342,0.02,0.1,
3343,0.005,0.065,
3344,-0.04,0.04,
3345,-0.08,0.01,
3346,-0.115,0.005,
3347,-0.15,0.015,
3348,-0.21,0.04,
3349,-0.31,0.065,
3350,-0.435,0.085,
3351,-0.555,0.085,
3352,-0.625,0.135,
3353,-0.675,0.17,
3354,-0.76,0.155,
3355,-0.88,0.09,
3356,-0.975,0.015,
3357,-1.03,-0.05,V
3358,-1.05,-0.07,
3359,-1.04,-0.05,
3360,-1.025,-0.025,
3361,-0.995,-0.01,
3362,-0.94,-0.02,
3363,-0.87,-0.005,
3364,-0.795,0.04,
3365,-0.75,0.11,
3366,-0.73,0.135,
3367,-0.72,0.115,
3368,-0.72,0.06,
3369,-0.725,0.02,
3370,-0.745,-0.005,
3371,-0.765,-0.025,
3372,-0.795,-0.09,
3373,-0.805,-0.2,
3374,-0.83,-0.315,
3375,-0.855,-0.455,
3376,-0.86,-0.58,
3377,-0.865,-0.695,
3378,-0.87,-0.8,
3379,-0.855,-0.915,
3380,-0.85,-1.01,
3381,-0.865,-1.09,
3382,-0.875,-1.1,
3383,-0.87,-1.105,
3384,-0.865,-1.095,
3385,-0.855,-1.12,
3386,-0.855,-1.155,
3387,-0.865,-1.17,
3388,-0.865,-1.155,
3389,-0.875,-1.15,
3390,-0.86,-1.15,
3391,-0.85,-1.165,
3392,-0.85,-1.195,
3393,-0.875,-1.2,
3394,-0.89,-1.21,
3395,-0.885,-1.175,
3396,-0.875,-1.185,
3397,-0.85,-1.215,
3398,-0.845,-1.22,
3399,-0.88,-1.235,
3400,-0.875,-1.215,
3401,-0.86,-1.195,
3402,-0.85,-1.195,
3403,-0.84,-1.21,
3404,-0.82,-1.235,
3405,-0.83,-1.23,
3406,-0.83,-1.21,
3407,-0.82,-1.19,
3408,-0.805,-1.195,
3409,-0.8,-1.215,
3410,-0.8,-1.22,
3411,-0.795,-1.225,
3412,-0.805,-1.205,
3413,-0.81,-1.19,
3414,-0.805,-1.185,
3415,-0.785,-1.19,
3416,-0.77,-1.2,
3417,-0.78,-1.2,
3418,-0.79,-1.17,
3419,-0.775,-1.14,
3420,-0.755,-1.15,
3421,-0.725,-1.135,
3422,-0.715,-1.145,
3423,-0.735,-1.14,
3424,-0.73,-1.125,
3425,-0.715,-1.095,
3426,-0.7,-1.1,
3427,-0.68,-1.09,
3428,-0.665,-1.085,
3429,-0.66,-1.07,
3430,-0.67,-1.045,
3431,-0.665,-1.04,
3432,-0.645,-1.035,
3433,-0.62,-1.025,
3434,-0.62,-0.995,
3435,-0.615,-1.0,
3436,-0.62,-0.975,
3437,-0.605,-0.96,
3438,-0.6,-0.97,
3439,-0.57,-0.945,
3440,-0.575,-0.93,
3441,-0.565,-0.91,
3442,-0.565,-0.9,
3443,-0.555,-0.895,
3444,-0.54,-0.88,
3445,-0.52,-0.86,
3446,-0.51,-0.84,
3447,-0.5,-0.835,
3448,-0.5,-0.81,
3449,-0.485,-0.8,
3450,-0.475,-0.79,
3451,-0.455,-0.78,
3452,-0.455,-0.76,
3453,-0.45,-0.755,
3454,-0.46,-0.74,
3455,-0.46,-0.73,
3456,-0.435,-0.72,
3457,-0.415,-0.695,
3458,-0.41,-0.69,
3459,-0.405,-0.675,
3460,-0.4,-0.67,
3461,-0.39,-0.66,
3462,-0.37,-0.64,
3463,-0.35,-0.625,
3464,-0.34,-0.595,
3465,-0.34,-0.595,
3466,-0.33,-0.58,
3467,-0.32,-0.575,
3468,-0.295,-0.555,
3469,-0.27,-0.535,
3470,-0.26,-0.515,
3471,-0.275,-0.515,
3472,-0.28,-0.535,
3473,-0.27,-0.525,
3474,-0.26,-0.495,
3475,-0.245,-0.46,
3476,-0.225,-0.46,
3477,-0.225,-0.46,
3478,-0.225,-0.48,
3479,-0.215,-0.465,
3480,-0.205,-0.435,
3481,-0.18,-0.43,
3482,-0.185,-0.43,
3483,-0.195,-0.435,
3484,-0.2,-0.46,
3485,-0.185,-0.445,
3486,-0.175,-0.405,
3487,-0.15,-0.385,
3488,-0.16,-0.385,
3489,-0.155,-0.405,
3490,-0.165,-0.395,
3491,-0.165,-0.38,
3492,-0.15,-0.34,
3493,-0.14,-0.33,
3494,-0.13,-0.335,
3495,-0.15,-0.36,
3496,-0.16,-0.355,
3497,-0.175,-0.33,
3498,-0.165,-0.29,
3499,-0.145,-0.28,
3500,-0.15,-0.28,
3501,-0.165,-0.305,
3502,-0.17,-0.275,
3503,-0.15,-0.24,
3504,-0.145,-0.195,
3505,-0.115,-0.195,
3506,-0.115,-0.205,
3507,-0.14,-0.215,
3508,-0.15,-0.21,
3509,-0.14,-0.165,
3510,-0.135,-0.15,
3511,-0.13,-0.145,
3512,-0.135,-0.15,
3513,-0.16,-0.175,
3514,-0.16,-0.165,
3515,-0.155,-0.12,
3516,-0.13,-0.105,
3517,-0.135,-0.1,
3518,-0.14,-0.125,
3519,-0.14,-0.14,
3520,-0.145,-0.13,
3521,-0.15,-0.1,
3522,-0.135,-0.08,
3523,-0.12,-0.09,
3524,-0.125,-0.11,
3525,-0.135,-0.12,
3526,-0.135,-0.11,
3527,-0.13,-0.085,
3528,-0.12,-0.075,
3529,-0.11,-0.09,
3530,-0.11,-0.11,
3531,-0.12,-0.115,
3532,-0.14,-0.105,
3533,-0.145,-0.075,
3534,-0.14,-0.07,
3535,-0.135,-0.075,
3536,-0.12,-0.095,
3537,-0.14,-0.105,
3538,-0.155,-0.085,
3539,-0.145,-0.07,
3540,-0.145,-0.065,
3541,-0.105,-0.075,
3542,-0.115,-0.09,
3543,-0.13,-0.09,
3544,-0.135,-0.075,
3545,-0.13,-0.065,
3546,-0.11,-0.055,
3547,-0.105,-0.065,
3548,-0.11,-0.08,
3549,-0.12,-0.08,
3550,-0.13,-0.08,
3551,-0.125,-0.06,
3552,-0.13,-0.07,
3553,-0.12,-0.08,
3554,-0.13,-0.085,
3555,-0.125,-0.08,
3556,-0.14,-0.07,
3557,-0.13,-0.065,
3558,-0.14,-0.065,
3559,-0.115,-0.085,
3560,-0.11,-0.07,
3561,-0.125,-0.065,
3562,-0.145,-0.05,
3563,-0.13,-0.065,
3564,-0.115,-0.065,
3565,-0.1,-0.07,
3566,-0.1,-0.065,
3567,-0.11,-0.065,
3568,-0.115,-0.07,
3569,-0.12,-0.05,
3570,-0.11,-0.05,
3571,-0.1,-0.06,
3572,-0.12,-0.07,
3573,-0.12,-0.065,
3574,-0.13,-0.055,
3575,-0.125,-0.065,
3576,-0.11,-0.07,
3577,-0.1,-0.06,
3578,-0.095,-0.06,
3579,-0.11,-0.06,
3580,-0.135,-0.055,
3581,-0.13,-0.06,
3582,-0.115,-0.06,
3583,-0.11,-0.06,
3584,-0.1,-0.055,
3585,-0.11,-0.05,
3586,-0.11,-0.055,
3587,-0.105,-0.075,
3588,-0.1,-0.06,
3589,-0.08,-0.055,
3590,-0.085,-0.035,
3591,-0.105,-0.05,
3592,-0.12,-0.055,
3593,-0.135,-0.05,
3594,-0.105,-0.055,
3595,-0.1,-0.055,
3596,-0.115,-0.05,
3597,-0.1,-0.045,
3598,-0.125,-0.05,
3599,-0.12,-0.055,
3600,-0.105,-0.065,
3601,-0.095,-0.055,
3602,-0.095,-0.05,
3603,-0.105,-0.04,
3604,-0.11,-0.06,
3605,-0.1,-0.065,
3606,-0.09,-0.055,
3607,-0.075,-0.055,
3608,-0.08,-0.04,
3609,-0.095,-0.05,
3610,-0.105,-0.065,
3611,-0.105,-0.065,
3612,-0.095,-0.06,
3613,-0.085,-0.05,
3614,-0.095,-0.04,
3615,-0.1,-0.05,
3616,-0.12,-0.075,
3617,-0.115,-0.075,
3618,-0.095,-0.06,
3619,-0.095,-0.045,
3620,-0.105,-0.03,
3621,-0.11,-0.055,
3622,-0.125,-0.07,
3623,-0.115,-0.07,
3624,-0.095,-0.055,
3625,-0.075,-0.04,
3626,-0.075,-0.035,
3627,-0.1,-0.05,
3628,-0.095,-0.075,
3629,-0.095,-0.08,
3630,-0.085,-0.065,
3631,-0.075,-0.05,
3632,-0.09,-0.045,
3633,-0.105,-0.065,
3634,-0.11,-0.07,
3635,-0.11,-0.08,
3636,-0.095,-0.055,
3637,-0.085,-0.055,
3638,-0.09,-0.05,
3639,-0.105,-0.06,
3640,-0.115,-0.08,
3641,-0.11,-0.07,
3642,-0.085,-0.07,
3643,-0.1,-0.055,
3644,-0.095,-0.045,
3645,-0.085,-0.055,
3646,-0.095,-0.075,
3647,-0.09,-0.075,
3648,-0.075,-0.065,
3649,-0.07,-0.05,
3650,-0.075,-0.045,
3651,-0.095,-0.065,
3652,-0.1,-0.08,
3653,-0.095,-0.075,
3654,-0.095,-0.055,
3655,-0.09,-0.045,
3656,-0.09,-0.045,
3657,-0.1,-0.075,
3658,-0.11,-0.09,
3659,-0.105,-0.08,
3660,-0.1,-0.06,
3661,-0.08,-0.05,
3662,-0.09,-0.045,
3663,-0.085,-0.075,
3664,-0.1,-0.1,
3665,-0.095,-0.08,
3666,-0.08,-0.06,
3667,-0.075,-0.04,
3668,-0.08,-0.05,
3669,-0.085,-0.095,
3670,-0.1,-0.09,
3671,-0.09,-0.085,
3672,-0.09,-0.065,
3673,-0.08,-0.055,
3674,-0.085,-0.06,
3675,-0.1,-0.08,
3676,-0.105,-0.1,
3677,-0.11,-0.08,
3678,-0.095,-0.07,
3679,-0.09,-0.05,
3680,-0.095,-0.06,
3681,-0.11,-0.09,
3682,-0.115,-0.1,
3683,-0.12,-0.09,
3684,-0.11,-0.06,
3685,-0.09,-0.05,
3686,-0.08,-0.06,
3687,-0.095,-0.09,
3688,-0.105,-0.1,
3689,-0.105,-0.085,
3690,-0.095,-0.07,
3691,-0.09,-0.05,
3692,-0.1,-0.07,
3693,-0.105,-0.105,
3694,-0.12,-0.105,
3695,-0.125,-0.085,
3696,-0.1,-0.05,
3697,-0.095,-0.055,
3698,-0.12,-0.075,
3699,-0.11,-0.1,
3700,-0.12,-0.11,
3701,-0.115,-0.075,
3702,-0.11,-0.055,
3703,-0.095,-0.055,
3704,-0.1,-0.075,
3705,-0.11,-0.1,
3706,-0.11,-0.105,
3707,-0.11,-0.07,
3708,-0.095,-0.06,
3709,-0.085,-0.05,
3710,-0.095,-0.075,
3711,-0.105,-0.1,
3712,-0.11,-0.105,
3713,-0.12,-0.08,
3714,-0.11,-0.05,
3715,-0.09,-0.065,
3716,-0.09,-0.075,
3717,-0.11,-0.1,
3718,-0.115,-0.105,
3719,-0.105,-0.065,
3720,-0.115,-0.05,
3721,-0.095,-0.06,
3722,-0.1,-0.095,
3723,-0.115,-0.1,
3724,-0.115,-0.09,
3725,-0.11,-0.07,
3726,-0.09,-0.065,
3727,-0.09,-0.065,
3728,-0.09,-0.085,
3729,-0.105,-0.095,
3730,-0.11,-0.085,
3731,-0.115,-0.055,
3732,-0.095,-0.05,
3733,-0.1,-0.07,
3734,-0.1,-0.105,
3735,-0.11,-0.09,
3736,-0.11,-0.075,
3737,-0.115,-0.075,
3738,-0.115,-0.06,
3739,-0.105,-0.07,
3740,-0.095,-0.085,
3741,-0.105,-0.095,
3742,-0.105,-0.075,
3743,-0.105,-0.065,
3744,-0.095,-0.065,
3745,-0.085,-0.075,
3746,-0.085,-0.095,
3747,-0.1,-0.085,
3748,-0.11,-0.085,
3749,-0.105,-0.07,
3750,-0.105,-0.065,
3751,-0.1,-0.08,
3752,-0.095,-0.085,
3753,-0.125,-0.08,
3754,-0.13,-0.085,
3755,-0.12,-0.07,
3756,-0.125,-0.08,
3757,-0.11,-0.075,
3758,-0.105,-0.08,
3759,-0.115,-0.075,
3760,-0.125,-0.085,
3761,-0.115,-0.09,
3762,-0.115,-0.08,
3763,-0.095,-0.075,
3764,-0.095,-0.075,
3765,-0.105,-0.07,
3766,-0.125,-0.08,
3767,-0.11,-0.085,
3768,-0.11,-0.08,
3769,-0.1,-0.06,
3770,-0.11,-0.065,
3771,-0.12,-0.07,
3772,-0.125,-0.085,
3773,-0.135,-0.09,
3774,-0.12,-0.075,
3775,-0.09,-0.06,
3776,-0.105,-0.06,
3777,-0.115,-0.08,
3778,-0.125,-0.085,
3779,-0.12,-0.085,
3780,-0.1,-0.07,
3781,-0.1,-0.045,
3782,-0.1,-0.065,
3783,-0.11,-0.075,
3784,-0.115,-0.095,
3785,-0.115,-0.075,
3786,-0.095,-0.065,
3787,-0.09,-0.05,
3788,-0.105,-0.06,
3789,-0.125,-0.07,
3790,-0.13,-0.095,
3791,-0.125,-0.08,
3792,-0.095,-0.055,
3793,-0.1,-0.05,
3794,-0.105,-0.05,
3795,-0.12,-0.085,
3796,-0.12,-0.09,
3797,-0.11,-0.06,
3798,-0.1,-0.045,
3799,-0.105,-0.05,
3800,-0.115,-0.06,
3801,-0.11,-0.095,
3802,-0.11,-0.08,
3803,-0.105,-0.065,
3804,-0.085,-0.035,
3805,-0.08,-0.06,
3806,-0.095,-0.07,
3807,-0.11,-0.09,
3808,-0.115,-0.065,
3809,-0.105,-0.04,
3810,-0.105,-0.04,
3811,-0.1,-0.045,
3812,-0.105,-0.07,
3813,-0.11,-0.08,
3814,-0.125,-0.08,
3815,-0.115,-0.045,
3816,-0.1,-0.045,
3817,-0.095,-0.05,
3818,-0.1,-0.075,
3819,-0.11,-0.08,
3820,-0.13,-0.065,
3821,-0.11,-0.05,
3822,-0.1,-0.045,
3823,-0.08,-0.065,
3824,-0.09,-0.065,
3825,-0.1,-0.075,
3826,-0.11,-0.055,
3827,-0.115,-0.04,
3828,-0.1,-0.05,
3829,-0.095,-0.065,
3830,-0.1,-0.065,
3831,-0.1,-0.06,
3832,-0.115,-0.065,
3833,-0.12,-0.055,
3834,-0.11,-0.055,
3835,-0.09,-0.055,
3836,-0.1,-0.055,
3837,-0.115,-0.045,
3838,-0.12,-0.055,
3839,-0.105,-0.065,
3840,-0.095,-0.06,
3841,-0.095,-0.07,
3842,-0.125,-0.1,
3843,-0.15,-0.13,
3844,-0.16,-0.17,
3845,-0.15,-0.2,
3846,-0.14,-0.235,
3847,-0.105,-0.25,
3848,-0.05,-0.255,
3849,0.05,-0.275,
3850,0.17,-0.285,
3851,0.285,-0.255,
3852,0.365,-0.24,
3853,0.39,-0.22,
3854,0.425,-0.17,
3855,0.52,-0.04,
3856,0.66,0.245,
3857,0.765,0.645,R
3858,0.785,0.895,
3859,0.75,0.985,
3860,0.66,0.99,
3861,0.585,1.025,
3862,0.46,1.07,
3863,0.3,1.11,
3864,0.09,1.05,
3865,-0.08,0.905,
3866,-0.155,0.755,
3867,-0.2,0.675,
3868,-0.225,0.67,
3869,-0.27,0.65,
3870,-0.31,0.675,
3871,-0.29,0.71,
3872,-0.23,0.79,
3873,-0.2,0.82,
3874,-0.155,0.825,
3875,-0.095,0.83,
3876,-0.055,0.83,
3877,-0.045,0.785,
3878,-0.075,0.66,
3879,-0.13,0.51,
3880,-0.175,0.345,
3881,-0.195,0.23,
3882,-0.195,0.16,
3883,-0.18,0.095,
3884,-0.17,0.035,
3885,-0.19,-0.015,
3886,-0.19,-0.04,
3887,-0.195,-0.045,
3888,-0.175,-0.025,
3889,-0.165,-0.035,
3890,-0.175,-0.06,
3891,-0.175,-0.095,
3892,-0.185,-0.095,
3893,-0.17,-0.075,
3894,-0.17,-0.05,
3895,-0.16,-0.07,
3896,-0.165,-0.08,
3897,-0.18,-0.105,
3898,-0.175,-0.1,
3899,-0.175,-0.07,
3900,-0.185,-0.05,
3901,-0.16,-0.07,
3902,-0.17,-0.095,
3903,-0.17,-0.11,
3904,-0.18,-0.095,
3905,-0.18,-0.085,
3906,-0.17,-0.07,
3907,-0.16,-0.095,
3908,-0.16,-0.1,
3909,-0.17,-0.11,
3910,-0.18,-0.095,
3911,-0.165,-0.08,
3912,-0.15,-0.07,
3913,-0.145,-0.09,
3914,-0.145,-0.095,
3915,-0.15,-0.095,
3916,-0.16,-0.08,
3917,-0.165,-0.075,
3918,-0.15,-0.08,
3919,-0.145,-0.085,
3920,-0.145,-0.09,
3921,-0.145,-0.08,
3922,-0.15,-0.07,
3923,-0.15,-0.06,
3924,-0.12,-0.06,
3925,-0.12,-0.07,
3926,-0.12,-0.07,
3927,-0.13,-0.065,
3928,-0.135,-0.065,
3929,-0.12,-0.05,
3930,-0.1,-0.06,
3931,-0.085,-0.06,
3932,-0.085,-0.04,
3933,-0.09,-0.04,
3934,-0.09,-0.045,
3935,-0.08,-0.02,
3936,-0.085,-0.03,
3937,-0.06,-0.015,
3938,-0.07,-0.005,
3939,-0.09,0.0,
3940,-0.09,-0.015,
3941,-0.08,-0.005,
3942,-0.06,0.015,
3943,-0.05,0.015,
3944,-0.045,0.025,
3945,-0.055,0.025,
3946,-0.055,0.02,
3947,-0.05,0.025,
3948,-0.025,0.05,
3949,-0.025,0.06,
3950,-0.02,0.065,
3951,-0.005,0.065,
3952,-0.025,0.065,
3953,-0.02,0.06,
3954,0.005,0.075,
3955,0.02,0.11,
3956,0.02,0.105,
3957,-0.005,0.105,
3958,-0.015,0.09,
3959,0.005,0.095,
3960,0.015,0.12,
3961,0.03,0.125,
3962,0.025,0.14,
3963,0.015,0.125,
3964,0.01,0.125,
3965,0.025,0.125,
3966,0.04,0.155,
3967,0.045,0.16,
3968,0.06,0.165,
3969,0.06,0.155,
3970,0.045,0.14,
3971,0.06,0.16,
3972,0.065,0.175,
3973,0.08,0.2,
3974,0.08,0.185,
3975,0.07,0.17,
3976,0.06,0.165,
3977,0.065,0.18,
3978,0.08,0.21,
3979,0.085,0.23,
3980,0.095,0.21,
3981,0.075,0.19,
3982,0.07,0.195,
3983,0.09,0.22,
3984,0.085,0.245,
3985,0.105,0.25,
3986,0.1,0.235,
3987,0.09,0.215,
3988,0.095,0.21,
3989,0.095,0.24,
3990,0.1,0.265,
3991,0.12,0.265,
3992,0.115,0.245,
3993,0.1,0.24,
3994,0.105,0.24,
3995,0.1,0.265,
3996,0.105,0.3,
3997,0.115,0.305,
3998,0.105,0.28,
3999,0.09,0.26,
4000,0.085,0.275,
4001,0.09,0.29,
4002,0.105,0.325,
4003,0.105,0.325,
4004,0.11,0.315,
4005,0.09,0.29,
4006,0.08,0.3,
4007,0.085,0.33,
4008,0.095,0.37,
4009,0.1,0.36,
4010,0.11,0.355,
4011,0.1,0.335,
4012,0.09,0.36,
4013,0.085,0.38,
4014,0.085,0.415,
4015,0.1,0.395,
4016,0.085,0.38,
4017,0.075,0.37,
4018,0.07,0.375,
4019,0.07,0.415,
4020,0.09,0.43,
4021,0.09,0.42,
4022,0.08,0.39,
4023,0.065,0.395,
4024,0.075,0.4,
4025,0.08,0.42,
4026,0.095,0.435,
4027,0.105,0.42,
4028,0.105,0.395,
4029,0.1,0.4,
4030,0.1,0.42,
4031,0.11,0.43,
4032,0.12,0.445,
4033,0.125,0.43,
4034,0.115,0.42,
4035,0.11,0.4,
4036,0.11,0.41,
4037,0.105,0.44,
4038,0.12,0.455,
4039,0.135,0.435,
4040,0.14,0.41,
4041,0.135,0.415,
4042,0.12,0.415,
4043,0.13,0.445,
4044,0.155,0.465,
4045,0.165,0.44,
4046,0.165,0.43,
4047,0.17,0.425,
4048,0.165,0.435,
4049,0.17,0.45,
4050,0.205,0.47,
4051,0.205,0.46,
4052,0.2,0.435,
4053,0.19,0.435,
4054,0.195,0.46,
4055,0.22,0.465,
4056,0.24,0.475,
4057,0.24,0.475,
4058,0.235,0.445,
4059,0.245,0.435,
4060,0.235,0.45,
4061,0.24,0.45,
4062,0.22,0.445,
4063,0.21,0.415,
4064,0.185,0.38,
4065,0.16,0.365,
4066,0.155,0.365,
4067,0.16,0.375,
4068,0.14,0.35,
4069,0.155,0.315,
4070,0.135,0.27,
4071,0.115,0.275,
4072,0.105,0.275,
4073,0.1,0.285,
4074,0.095,0.28,
4075,0.065,0.255,
4076,0.035,0.235,
4077,0.015,0.23,
4078,0.0,0.245,
4079,-0.02,0.245,
4080,-0.035,0.25,
4081,-0.105,0.23,
4082,-0.225,0.215,
4083,-0.32,0.24,
4084,-0.385,0.305,
4085,-0.455,0.38,
4086,-0.545,0.41,
4087,-0.655,0.4,
4088,-0.77,0.315,
4089,-0.865,0.26,
4090,-0.925,0.205,
4091,-0.98,0.17,
4092,-0.995,0.14,V
4093,-1.01,0.09,
4094,-0.99,0.06,
4095,-0.99,0.085,
4096,-0.95,0.12,
4097,-0.88,0.175,
4098,-0.815,0.215,
4099,-0.77,0.22,
4100,-0.755,0.21,
4101,-0.735,0.21,
4102,-0.735,0.22,
4103,-0.735,0.205,
4104,-0.74,0.185,
4105,-0.735,0.13,
4106,-0.76,0.06,
4107,-0.785,-0.02,
4108,-0.805,-0.09,
4109,-0.81,-0.19,
4110,-0.8,-0.32,
4111,-0.805,-0.485,
4112,-0.815,-0.645,
4113,-0.83,-0.77,
4114,-0.82,-0.83,
4115,-0.805,-0.865,
4116,-0.795,-0.89,
4117,-0.805,-0.93,
4118,-0.81,-0.965,
4119,-0.825,-0.985,
4120,-0.83,-0.995,
4121,-0.835,-0.97,
4122,-0.83,-0.975,
4123,-0.81,-0.99,
4124,-0.815,-1.015,
4125,-0.82,-1.03,
4126,-0.83,-1.04,
4127,-0.815,-1.02,
4128,-0.81,-1.005,
4129,-0.81,-1.015,
4130,-0.81,-1.035,
4131,-0.82,-1.065,
4132,-0.84,-1.065,
4133,-0.82,-1.04,
4134,-0.8,-1.025,
4135,-0.8,-1.025,
4136,-0.795,-1.06,
4137,-0.8,-1.08,
4138,-0.82,-1.08,
4139,-0.815,-1.05,
4140,-0.795,-1.035,
4141,-0.775,-1.04,
4142,-0.78,-1.06,
4143,-0.79,-1.08,
4144,-0.795,-1.085,
4145,-0.78,-1.05,
4146,-0.75,-1.025,
4147,-0.755,-1.03,
4148,-0.74,-1.045,
4149,-0.745,-1.055,
4150,-0.745,-1.05,
4151,-0.72,-1.025,
4152,-0.71,-1.0,
4153,-0.695,-1.0,
4154,-0.69,-1.01,
4155,-0.685,-1.03,
4156,-0.705,-1.025,
4157,-0.685,-0.99,
4158,-0.685,-0.95,
4159,-0.67,-0.95,
4160,-0.67,-0.965,
4161,-0.685,-0.975,
4162,-0.665,-0.97,
4163,-0.66,-0.95,
4164,-0.64,-0.905,
4165,-0.64,-0.895,
4166,-0.625,-0.905,
4167,-0.615,-0.915,
4168,-0.62,-0.915,
4169,-0.615,-0.885,
4170,-0.605,-0.85,
4171,-0.58,-0.825,
4172,-0.575,-0.845,
4173,-0.58,-0.845,
4174,-0.585,-0.845,
4175,-0.56,-0.82,
4176,-0.54,-0.79,
4177,-0.515,-0.77,
4178,-0.505,-0.77,
4179,-0.535,-0.78,
4180,-0.525,-0.775,
4181,-0.525,-0.77,
4182,-0.51,-0.73,
4183,-0.495,-0.71,
4184,-0.485,-0.705,
4185,-0.49,-0.7,
4186,-0.485,-0.695,
4187,-0.47,-0.69,
4188,-0.465,-0.655,
4189,-0.435,-0.65,
4190,-0.435,-0.62,
4191,-0.425,-0.625,
4192,-0.435,-0.63,
4193,-0.415,-0.61,
4194,-0.4,-0.58,
4195,-0.38,-0.57,
4196,-0.375,-0.55,
4197,-0.37,-0.55,
4198,-0.375,-0.545,
4199,-0.355,-0.535,
4200,-0.33,-0.515,
4201,-0.325,-0.495,
4202,-0.325,-0.475,
4203,-0.33,-0.48,
4204,-0.325,-0.475,
4205,-0.305,-0.465,
4206,-0.295,-0.44,
4207,-0.27,-0.425,
4208,-0.28,-0.41,
4209,-0.285,-0.4,
4210,-0.275,-0.4,
4211,-0.26,-0.4,
4212,-0.245,-0.37,
4213,-0.24,-0.355,
4214,-0.235,-0.34,
4215,-0.24,-0.345,
4216,-0.23,-0.355,
4217,-0.22,-0.35,
4218,-0.18,-0.325,
4219,-0.185,-0.305,
4220,-0.16,-0.295,
4221,-0.155,-0.3,
4222,-0.155,-0.31,
4223,-0.15,-0.305,
4224,-0.135,-0.285,
4225,-0.135,-0.28,
4226,-0.145,-0.275,
4227,-0.16,-0.27,
4228,-0.165,-0.27,
4229,-0.15,-0.26,
4230,-0.135,-0.25,
4231,-0.125,-0.24,
4232,-0.13,-0.23,
4233,-0.125,-0.23,
4234,-0.135,-0.22,
4235,-0.13,-0.21,
4236,-0.12,-0.21,
4237,-0.1,-0.205,
4238,-0.115,-0.21,
4239,-0.12,-0.185,
4240,-0.13,-0.19,
4241,-0.12,-0.175,
4242,-0.115,-0.165,
4243,-0.11,-0.175,
4244,-0.125,-0.15,
4245,-0.14,-0.15,
4246,-0.14,-0.115,
4247,-0.135,-0.105,
4248,-0.125,-0.09,
4249,-0.125,-0.085,
4250,-0.11,-0.085,
4251,-0.13,-0.085,
4252,-0.13,-0.05,
4253,-0.14,-0.03,
4254,-0.125,-0.015,
4255,-0.115,-0.03,
4256,-0.125,-0.04,
4257,-0.13,-0.03,
4258,-0.125,-0.015,
4259,-0.125,0.015,
4260,-0.105,0.01,
4261,-0.105,0.02,
4262,-0.105,-0.005,
4263,-0.11,0.005,
4264,-0.13,0.025,
4265,-0.13,0.04,
4266,-0.11,0.055,
4267,-0.105,0.035,
4268,-0.115,0.02,
4269,-0.125,0.025,
4270,-0.13,0.04,
4271,-0.13,0.065,
4272,-0.11,0.07,
4273,-0.11,0.045,
4274,-0.115,0.035,
4275,-0.125,0.035,
4276,-0.13,0.05,
4277,-0.12,0.08,
4278,-0.12,0.08,
4279,-0.11,0.07,
4280,-0.11,0.045,
4281,-0.115,0.04,
4282,-0.115,0.03,
4283,-0.11,0.065,
4284,-0.105,0.09,
4285,-0.105,0.075,
4286,-0.105,0.05,
4287,-0.115,0.045,
4288,-0.12,0.04,
4289,-0.12,0.065,
4290,-0.115,0.08,
4291,-0.11,0.075,
4292,-0.115,0.065,
4293,-0.13,0.05,
4294,-0.135,0.05,
4295,-0.11,0.06,
4296,-0.115,0.105,
4297,-0.11,0.09,
4298,-0.125,0.075,
4299,-0.12,0.05,
4300,-0.12,0.045,
4301,-0.115,0.06,
4302,-0.105,0.085,
4303,-0.095,0.08,
4304,-0.11,0.075,
4305,-0.1,0.06,
4306,-0.1,0.05,
4307,-0.1,0.065,
4308,-0.085,0.1,
4309,-0.095,0.09,
4310,-0.09,0.08,
4311,-0.105,0.07,
4312,-0.12,0.045,
4313,-0.115,0.07,
4314,-0.095,0.09,
4315,-0.11,0.095,
4316,-0.1,0.09,
4317,-0.1,0.07,
4318,-0.115,0.05,
4319,-0.11,0.075,
4320,-0.1,0.085,
4321,-0.095,0.095,
4322,-0.1,0.09,
4323,-0.09,0.065,
4324,-0.1,0.055,
4325,-0.09,0.06,
4326,-0.09,0.07,
4327,-0.07,0.085,
4328,-0.075,0.09,
4329,-0.09,0.075,
4330,-0.105,0.08,
4331,-0.09,0.06,
4332,-0.09,0.07,
4333,-0.085,0.08,
4334,-0.09,0.08,
4335,-0.11,0.08,
4336,-0.105,0.065,
4337,-0.1,0.075,
4338,-0.095,0.07,
4339,-0.095,0.07,
4340,-0.075,0.075,
4341,-0.09,0.07,
4342,-0.095,0.065,
4343,-0.095,0.065,
4344,-0.09,0.075,
4345,-0.075,0.075,
4346,-0.08,0.075,
4347,-0.08,0.075,
4348,-0.085,0.07,
4349,-0.085,0.065,
4350,-0.075,0.06,
4351,-0.07,0.075,
4352,-0.075,0.065,
4353,-0.085,0.075,
4354,-0.095,0.08,
4355,-0.095,0.075,
4356,-0.08,0.07,
4357,-0.08,0.065,
4358,-0.085,0.07,
4359,-0.085,0.065,
4360,-0.095,0.07,
4361,-0.095,0.095,
4362,-0.085,0.08,
4363,-0.075,0.07,
4364,-0.08,0.06,
4365,-0.09,0.055,
4366,-0.09,0.065,
4367,-0.095,0.09,
4368,-0.075,0.095,
4369,-0.07,0.07,
4370,-0.075,0.055,
4371,-0.085,0.045,
4372,-0.085,0.055,
4373,-0.085,0.075,
4374,-0.07,0.095,
4375,-0.07,0.075,
4376,-0.09,0.05,
4377,-0.1,0.035,
4378,-0.095,0.06,
4379,-0.08,0.065,
4380,-0.075,0.085,
4381,-0.085,0.085,
4382,-0.09,0.06,
4383,-0.09,0.04,
4384,-0.09,0.05,
4385,-0.085,0.075,
4386,-0.07,0.1,
4387,-0.07,0.08,
4388,-0.075,0.07,
4389,-0.09,0.045,
4390,-0.09,0.045,
4391,-0.075,0.075,
4392,-0.065,0.09,
4393,-0.065,0.09,
4394,-0.07,0.07,
4395,-0.09,0.055,
4396,-0.1,0.045,
4397,-0.08,0.055,
4398,-0.075,0.085,
4399,-0.07,0.08,
4400,-0.08,0.075,
4401,-0.095,0.04,
4402,-0.095,0.045,
4403,-0.09,0.045,
4404,-0.095,0.07,
4405,-0.085,0.085,
4406,-0.08,0.07,
4407,-0.09,0.05,
4408,-0.105,0.04,
4409,-0.09,0.045,
4410,-0.08,0.055,
4411,-0.075,0.065,
4412,-0.08,0.075,
4413,-0.075,0.05,
4414,-0.085,0.035,
4415,-0.085,0.045,
4416,-0.07,0.055,
4417,-0.07,0.065,
4418,-0.07,0.075,
4419,-0.08,0.045,
4420,-0.095,0.045,
4421,-0.09,0.04,
4422,-0.085,0.045,
4423,-0.08,0.06,
4424,-0.08,0.055,
4425,-0.1,0.05,
4426,-0.105,0.04,
4427,-0.085,0.03,
4428,-0.08,0.04,
4429,-0.075,0.05,
4430,-0.08,0.05,
4431,-0.115,0.05,
4432,-0.1,0.05,
4433,-0.085,0.04,
4434,-0.07,0.04,
4435,-0.065,0.045,
4436,-0.07,0.05,
4437,-0.085,0.04,
4438,-0.085,0.055,
4439,-0.08,0.055,
4440,-0.065,0.05,
4441,-0.07,0.055,
4442,-0.07,0.045,
4443,-0.095,0.035,
4444,-0.09,0.05,
4445,-0.08,0.045,
4446,-0.08,0.05,
4447,-0.07,0.03,
4448,-0.08,0.03,
4449,-0.095,0.035,
4450,-0.09,0.055,
4451,-0.09,0.05,
4452,-0.08,0.06,
4453,-0.08,0.045,
4454,-0.08,0.025,
4455,-0.085,0.035,
4456,-0.095,0.04,
4457,-0.105,0.06,
4458,-0.065,0.05,
4459,-0.06,0.04,
4460,-0.07,0.025,
4461,-0.085,0.035,
4462,-0.085,0.045,
4463,-0.075,0.055,
4464,-0.075,0.04,
4465,-0.065,0.03,
4466,-0.095,0.02,
4467,-0.095,0.035,
4468,-0.1,0.03,
4469,-0.095,0.055,
4470,-0.07,0.05,
4471,-0.07,0.045,
4472,-0.085,0.02,
4473,-0.08,0.025,
4474,-0.095,0.03,
4475,-0.09,0.045,
4476,-0.065,0.07,
4477,-0.065,0.05,
4478,-0.07,0.035,
4479,-0.075,0.01,
4480,-0.09,0.025,
4481,-0.075,0.055,
4482,-0.065,0.07,
4483,-0.07,0.055,
4484,-0.075,0.03,
4485,-0.095,0.01,
4486,-0.105,0.025,
4487,-0.09,0.05,
4488,-0.085,0.065,
4489,-0.08,0.06,
4490,-0.085,0.04,
4491,-0.095,0.015,
4492,-0.095,0.03,
4493,-0.085,0.055,
4494,-0.085,0.075,
4495,-0.08,0.065,
4496,-0.1,0.035,
4497,-0.095,0.01,
4498,-0.095,0.015,
4499,-0.09,0.045,
4500,-0.08,0.065,
4501,-0.075,0.05,
4502,-0.07,0.035,
4503,-0.095,0.015,
4504,-0.1,0.03,
4505,-0.09,0.04,
4506,-0.08,0.06,
4507,-0.085,0.05,
4508,-0.09,0.04,
4509,-0.09,0.015,
4510,-0.095,0.025,
4511,-0.09,0.035,
4512,-0.08,0.065,
4513,-0.095,0.07,
4514,-0.085,0.035,
4515,-0.095,0.01,
4516,-0.095,0.015,
4517,-0.09,0.035,
4518,-0.075,0.065,
4519,-0.065,0.06,
4520,-0.075,0.035,
4521,-0.09,0.025,
4522,-0.085,0.01,
4523,-0.075,0.03,
4524,-0.07,0.05,
4525,-0.07,0.065,
4526,-0.07,0.04,
4527,-0.085,0.005,
4528,-0.09,0.005,
4529,-0.1,0.03,
4530,-0.08,0.05,
4531,-0.08,0.05,
4532,-0.09,0.035,
4533,-0.11,0.03,
4534,-0.095,0.015,
4535,-0.085,0.025,
4536,-0.075,0.04,
4537,-0.06,0.06,
4538,-0.065,0.05,
4539,-0.08,0.02,
4540,-0.08,0.025,
4541,-0.075,0.025,
4542,-0.06,0.045,
4543,-0.05,0.05,
4544,-0.06,0.04,
4545,-0.09,0.02,
4546,-0.085,0.015,
4547,-0.08,0.02,
4548,-0.07,0.045,
4549,-0.065,0.055,
4550,-0.075,0.045,
4551,-0.085,0.02,
4552,-0.085,0.02,
4553,-0.08,0.025,
4554,-0.07,0.045,
4555,-0.06,0.045,
4556,-0.08,0.04,
4557,-0.09,0.025,
4558,-0.085,0.025,
4559,-0.075,0.03,
4560,-0.075,0.05,
4561,-0.065,0.045,
4562,-0.065,0.05,
4563,-0.06,0.03,
4564,-0.085,0.025,
4565,-0.07,0.025,
4566,-0.06,0.04,
4567,-0.065,0.05,
4568,-0.08,0.05,
4569,-0.085,0.03,
4570,-0.09,0.025,
4571,-0.075,0.025,
4572,-0.075,0.055,
4573,-0.07,0.06,
4574,-0.08,0.05,
4575,-0.1,0.04,
4576,-0.095,0.025,
4577,-0.08,0.025,
4578,-0.07,0.045,
4579,-0.075,0.055,
4580,-0.08,0.05,
4581,-0.075,0.035,
4582,-0.075,0.015,
4583,-0.065,0.025,
4584,-0.07,0.04,
4585,-0.06,0.055,
4586,-0.065,0.045,
4587,-0.075,0.035,
4588,-0.085,0.02,
4589,-0.085,0.035,
4590,-0.06,0.055,
4591,-0.07,0.06,
4592,-0.085,0.045,
4593,-0.08,0.03,
4594,-0.085,0.02,
4595,-0.08,0.025,
4596,-0.065,0.05,
4597,-0.065,0.055,
4598,-0.06,0.06,
4599,-0.08,0.03,
4600,-0.09,0.04,
4601,-0.075,0.04,
4602,-0.06,0.05,
4603,-0.055,0.065,
4604,-0.055,0.055,
4605,-0.07,0.025,
4606,-0.07,0.03,
4607,-0.06,0.04,
4608,-0.035,0.045,
4609,-0.045,0.065,
4610,-0.055,0.055,
4611,-0.075,0.045,
4612,-0.09,0.04,
4613,-0.07,0.04,
4614,-0.05,0.055,
4615,-0.055,0.065,
4616,-0.055,0.06,
4617,-0.075,0.05,
4618,-0.07,0.025,
4619,-0.075,0.015,
4620,-0.095,0.01,
4621,-0.1,-0.005,
4622,-0.11,-0.035,
4623,-0.115,-0.085,
4624,-0.1,-0.12,
4625,-0.075,-0.15,
4626,-0.01,-0.16,
4627,0.07,-0.165,
4628,0.16,-0.155,
4629,0.255,-0.15,
4630,0.33,-0.16,
4631,0.395,-0.145,
4632,0.425,-0.125,
4633,0.445,-0.075,
4634,0.54,0.025,
4635,0.67,0.23,
4636,0.77,0.54,
4637,0.82,0.82,R
4638,0.805,0.98,
4639,0.745,1.04,
4640,0.68,1.06,
4641,0.61,1.075,
4642,0.55,1.115,
4643,0.465,1.14,
4644,0.345,1.155,
4645,0.175,1.145,
4646,0.02,1.065,
4647,-0.06,0.95,
4648,-0.105,0.85,
4649,-0.135,0.78,
4650,-0.15,0.745,
4651,-0.17,0.745,
4652,-0.2,0.74,
4653,-0.25,0.705,
4654,-0.275,0.715,
4655,-0.25,0.755,
4656,-0.205,0.805,
4657,-0.16,0.855,
4658,-0.135,0.875,
4659,-0.11,0.88,
4660,-0.075,0.89,
4661,-0.03,0.885,
4662,0.0,0.885,
4663,-0.005,0.84,
4664,-0.05,0.755,
4665,-0.075,0.655,
4666,-0.11,0.535,
4667,-0.11,0.405,
4668,-0.12,0.31,
4669,-0.125,0.215,
4670,-0.13,0.15,
4671,-0.13,0.12,
4672,-0.17,0.08,
4673,-0.15,0.055,
4674,-0.13,0.045,
4675,-0.14,0.045,
4676,-0.135,0.03,
4677,-0.16,0.015,
4678,-0.15,0.01,
4679,-0.145,0.005,
4680,-0.14,0.0,
4681,-0.135,0.015,
4682,-0.14,0.01,
4683,-0.15,0.005,
4684,-0.155,0.0,
4685,-0.145,-0.01,
4686,-0.14,-0.005,
4687,-0.135,-0.005,
4688,-0.13,0.0,
4689,-0.145,-0.01,
4690,-0.135,-0.015,
4691,-0.13,-0.015,
4692,-0.125,-0.015,
4693,-0.125,-0.005,
4694,-0.125,-0.01,
4695,-0.15,-0.02,
4696,-0.155,-0.005,
4697,-0.135,-0.01,
4698,-0.135,-0.015,
4699,-0.125,-0.015,
4700,-0.13,-0.005,
4701,-0.145,-0.015,
4702,-0.15,0.0,
4703,-0.125,-0.015,
4704,-0.115,-0.01,
4705,-0.105,-0.005,
4706,-0.105,-0.005,
4707,-0.135,-0.01,
4708,-0.13,-0.015,
4709,-0.105,-0.01,
4710,-0.095,-0.015,
4711,-0.09,0.0,
4712,-0.09,0.0,
4713,-0.095,-0.005,
4714,-0.095,0.0,
4715,-0.1,0.0,
4716,-0.08,0.0,
4717,-0.085,0.005,
4718,-0.08,0.0,
4719,-0.085,0.0,
4720,-0.095,0.02,
4721,-0.075,0.025,
4722,-0.06,0.025,
4723,-0.07,0.015,
4724,-0.065,0.025,
4725,-0.075,0.03,
4726,-0.065,0.03,
4727,-0.06,0.035,
4728,-0.025,0.05,
4729,-0.035,0.035,
4730,-0.03,0.035,
4731,-0.04,0.045,
4732,-0.025,0.05,
4733,-0.015,0.06,
4734,-0.015,0.06,
4735,-0.015,0.06,
4736,-0.015,0.07,
4737,-0.015,0.07,
4738,-0.01,0.085,
4739,-0.005,0.09,
4740,0.01,0.1,
4741,0.015,0.1,
4742,0.02,0.1,
4743,0.005,0.105,
4744,0.0,0.13,
4745,0.02,0.13,
4746,0.02,0.135,
4747,0.045,0.12,
4748,0.04,0.135,
4749,0.05,0.135,
4750,0.045,0.16,
4751,0.055,0.155,
4752,0.07,0.15,
4753,0.065,0.165,
4754,0.065,0.155,
4755,0.055,0.165,
4756,0.055,0.18,
4757,0.065,0.195,
4758,0.07,0.195,
4759,0.08,0.18,
4760,0.06,0.18,
4761,0.085,0.185,
4762,0.065,0.2,
4763,0.09,0.225,
4764,0.1,0.215,
4765,0.105,0.205,
4766,0.105,0.185,
4767,0.085,0.195,
4768,0.095,0.225,
4769,0.11,0.245,
4770,0.125,0.25,
4771,0.135,0.235,
4772,0.135,0.23,
4773,0.135,0.22,
4774,0.13,0.24,
4775,0.135,0.26,
4776,0.135,0.265,
4777,0.13,0.255,
4778,0.12,0.25,
4779,0.12,0.255,
4780,0.115,0.27,
4781,0.135,0.285,
4782,0.145,0.29,
4783,0.145,0.275,
4784,0.135,0.27,
4785,0.135,0.265,
4786,0.13,0.28,
4787,0.13,0.31,
4788,0.14,0.305,
4789,0.15,0.295,
4790,0.14,0.29,
4791,0.12,0.29,
4792,0.135,0.315,
4793,0.14,0.335,
4794,0.155,0.33,
4795,0.14,0.325,
4796,0.14,0.31,
4797,0.13,0.315,
4798,0.125,0.345,
4799,0.12,0.345,
4800,0.125,0.365,
4801,0.13,0.35,
4802,0.12,0.34,
4803,0.1,0.34,
4804,0.085,0.365,
4805,0.095,0.395,
4806,0.095,0.395,
4807,0.115,0.385,
4808,0.1,0.37,
4809,0.1,0.37,
4810,0.105,0.41,
4811,0.11,0.42,
4812,0.13,0.425,
4813,0.135,0.41,
4814,0.125,0.39,
4815,0.11,0.395,
4816,0.09,0.41,
4817,0.1,0.435,
4818,0.12,0.44,
4819,0.12,0.435,
4820,0.105,0.405,
4821,0.105,0.4,
4822,0.105,0.42,
4823,0.11,0.45,
4824,0.12,0.45,
4825,0.12,0.43,
4826,0.12,0.42,
4827,0.095,0.4,
4828,0.105,0.415,
4829,0.125,0.44,
4830,0.15,0.45,
4831,0.145,0.435,
4832,0.14,0.42,
4833,0.145,0.395,
4834,0.135,0.41,
4835,0.165,0.44,
4836,0.17,0.465,
4837,0.185,0.445,
4838,0.18,0.415,
4839,0.185,0.4,
4840,0.18,0.42,
4841,0.19,0.445,
4842,0.195,0.465,
4843,0.175,0.445,
4844,0.185,0.425,
4845,0.19,0.4,
4846,0.2,0.41,
4847,0.2,0.44,
4848,0.215,0.455,
4849,0.215,0.47,
4850,0.22,0.43,
4851,0.215,0.425,
4852,0.215,0.425,
4853,0.24,0.44,
4854,0.25,0.47,
4855,0.26,0.47,
4856,0.265,0.45,
4857,0.255,0.42,
4858,0.25,0.425,
4859,0.245,0.435,
4860,0.24,0.445,
4861,0.225,0.425,
4862,0.2,0.385,
4863,0.17,0.36,
4864,0.165,0.35,
4865,0.155,0.355,
4866,0.15,0.34,
4867,0.14,0.31,
4868,0.13,0.27,
4869,0.105,0.24,
4870,0.1,0.245,
4871,0.08,0.265,
4872,0.06,0.26,
4873,0.05,0.25,
4874,0.04,0.22,
4875,0.02,0.2,
4876,0.025,0.205,
4877,0.02,0.23,
4878,-0.015,0.24,
4879,-0.1,0.245,
4880,-0.21,0.24,
4881,-0.285,0.27,
4882,-0.375,0.345,
4883,-0.445,0.4,
4884,-0.505,0.455,
4885,-0.62,0.455,
4886,-0.73,0.4,
4887,-0.83,0.315,
4888,-0.91,0.265,
4889,-0.96,0.225,V
4890,-0.97,0.195,
4891,-0.975,0.16,
4892,-0.95,0.13,
4893,-0.925,0.125,
4894,-0.895,0.14,
4895,-0.82,0.16,
4896,-0.76,0.205,
4897,-0.71,0.215,
4898,-0.7,0.205,
4899,-0.7,0.175,
4900,-0.7,0.185,
4901,-0.69,0.18,
4902,-0.71,0.17,
4903,-0.725,0.105,
4904,-0.765,0.005,
4905,-0.8,-0.08,
4906,-0.81,-0.165,
4907,-0.805,-0.255,
4908,-0.81,-0.36,
4909,-0.82,-0.495,
4910,-0.825,-0.645,
4911,-0.84,-0.76,
4912,-0.84,-0.825,
4913,-0.83,-0.87,
4914,-0.81,-0.875,
4915,-0.805,-0.92,
4916,-0.815,-0.945,
4917,-0.82,-0.975,
4918,-0.82,-0.98,
4919,-0.815,-0.97,
4920,-0.83,-0.95,
4921,-0.825,-0.96,
4922,-0.83,-1.005,
4923,-0.84,-1.03,
4924,-0.85,-1.015,
4925,-0.84,-1.005,
4926,-0.82,-1.01,
4927,-0.82,-1.02,
4928,-0.82,-1.04,
4929,-0.825,-1.07,
4930,-0.825,-1.05,
4931,-0.815,-1.03,
4932,-0.805,-1.02,
4933,-0.8,-1.05,
4934,-0.8,-1.065,
4935,-0.805,-1.075,
4936,-0.795,-1.045,
4937,-0.795,-1.04,
4938,-0.78,-1.03,
4939,-0.77,-1.05,
4940,-0.785,-1.075,
4941,-0.795,-1.065,
4942,-0.8,-1.055,
4943,-0.78,-1.03,
4944,-0.775,-1.025,
4945,-0.76,-1.045,
4946,-0.76,-1.055,
4947,-0.76,-1.05,
4948,-0.77,-1.025,
4949,-0.74,-1.005,
4950,-0.725,-0.995,
4951,-0.72,-1.0,
4952,-0.715,-1.015,
4953,-0.715,-0.995,
4954,-0.72,-0.97,
4955,-0.69,-0.955,
4956,-0.67,-0.96,
4957,-0.67,-0.965,
4958,-0.665,-0.97,
4959,-0.67,-0.945,
4960,-0.675,-0.93,
4961,-0.655,-0.905,
4962,-0.64,-0.895,
4963,-0.625,-0.905,
4964,-0.615,-0.905,
4965,-0.635,-0.885,
4966,-0.625,-0.85,
4967,-0.605,-0.845,
4968,-0.585,-0.83,
4969,-0.58,-0.825,
4970,-0.57,-0.82,
4971,-0.58,-0.8,
4972,-0.57,-0.78,
4973,-0.555,-0.765,
4974,-0.54,-0.76,
4975,-0.525,-0.76,
4976,-0.52,-0.745,
4977,-0.52,-0.73,
4978,-0.515,-0.725,
4979,-0.495,-0.715,
4980,-0.475,-0.705,
4981,-0.465,-0.69,
4982,-0.465,-0.68,
4983,-0.485,-0.66,
4984,-0.48,-0.65,
4985,-0.455,-0.645,
4986,-0.435,-0.64,
4987,-0.43,-0.625,
4988,-0.425,-0.6,
4989,-0.42,-0.59,
4990,-0.42,-0.58,
4991,-0.4,-0.585,
4992,-0.365,-0.55,
4993,-0.365,-0.53,
4994,-0.35,-0.525,
4995,-0.35,-0.515,
4996,-0.35,-0.51,
4997,-0.33,-0.49,
4998,-0.31,-0.465,
4999,-0.295,-0.45,
5000,-0.295,-0.445,
5001,-0.305,-0.455,
5002,-0.29,-0.445,
5003,-0.28,-0.425,
5004,-0.27,-0.395,
5005,-0.27,-0.38,
5006,-0.285,-0.385,
5007,-0.285,-0.395,
5008,-0.265,-0.385,
5009,-0.255,-0.355,
5010,-0.23,-0.34,
5011,-0.22,-0.33,
5012,-0.205,-0.345,
5013,-0.2,-0.34,
5014,-0.185,-0.355,
5015,-0.18,-0.325,
5016,-0.155,-0.3,
5017,-0.15,-0.29,
5018,-0.16,-0.295,
5019,-0.175,-0.315,
5020,-0.185,-0.3,
5021,-0.18,-0.285,
5022,-0.16,-0.25,
5023,-0.155,-0.245,
5024,-0.15,-0.25,
5025,-0.16,-0.26,
5026,-0.175,-0.245,
5027,-0.145,-0.235,
5028,-0.135,-0.2,
5029,-0.135,-0.19,
5030,-0.145,-0.205,
5031,-0.155,-0.21,
5032,-0.16,-0.21,
5033,-0.15,-0.18,
5034,-0.135,-0.16,
5035,-0.125,-0.13,
5036,-0.135,-0.145,
5037,-0.135,-0.145,
5038,-0.15,-0.13,
5039,-0.135,-0.1,
5040,-0.125,-0.065,
5041,-0.13,-0.05,
5042,-0.145,-0.065,
5043,-0.16,-0.07,
5044,-0.165,-0.075,
5045,-0.145,-0.035,
5046,-0.14,-0.015,
5047,-0.13,-0.01,
5048,-0.145,-0.025,
5049,-0.15,-0.04,
5050,-0.145,-0.025,
5051,-0.135,0.01,
5052,-0.12,0.025,
5053,-0.115,0.025,
5054,-0.115,-0.01,
5055,-0.13,-0.02,
5056,-0.125,0.0,
5057,-0.115,0.015,
5058,-0.115,0.03,
5059,-0.115,0.035,
5060,-0.135,0.005,
5061,-0.16,0.0,
5062,-0.155,0.02,
5063,-0.16,0.03,
5064,-0.14,0.05,
5065,-0.125,0.05,
5066,-0.14,0.025,
5067,-0.145,0.01,
5068,-0.15,0.02,
5069,-0.13,0.04,
5070,-0.125,0.07,
5071,-0.12,0.055,
5072,-0.135,0.035,
5073,-0.135,0.015,
5074,-0.135,0.025,
5075,-0.12,0.045,
5076,-0.115,0.065,
5077,-0.1,0.05,
5078,-0.125,0.03,
5079,-0.125,0.02,
5080,-0.135,0.035,
5081,-0.115,0.055,
5082,-0.11,0.075,
5083,-0.12,0.065,
5084,-0.115,0.02,
5085,-0.145,0.035,
5086,-0.14,0.04,
5087,-0.115,0.065,
5088,-0.105,0.085,
5089,-0.115,0.07,
5090,-0.12,0.045,
5091,-0.125,0.03,
5092,-0.125,0.04,
5093,-0.115,0.075,
5094,-0.11,0.085,
5095,-0.115,0.07,
5096,-0.12,0.04,
5097,-0.105,0.035,
5098,-0.12,0.045,
5099,-0.115,0.07,
5100,-0.1,0.085,
5101,-0.1,0.065,
5102,-0.12,0.045,
5103,-0.125,0.035,
5104,-0.13,0.04,
5105,-0.12,0.06,
5106,-0.125,0.08,
5107,-0.095,0.075,
5108,-0.1,0.055,
5109,-0.11,0.03,
5110,-0.12,0.04,
5111,-0.105,0.07,
5112,-0.09,0.08,
5113,-0.09,0.08,
5114,-0.1,0.05,
5115,-0.1,0.045,
5116,-0.11,0.045,
5117,-0.09,0.055,
5118,-0.08,0.085,
5119,-0.085,0.08,
5120,-0.095,0.06,
5121,-0.11,0.04,
5122,-0.11,0.05,
5123,-0.1,0.075,
5124,-0.09,0.08,
5125,-0.09,0.09,
5126,-0.105,0.07,
5127,-0.095,0.04,
5128,-0.105,0.055,
5129,-0.1,0.065,
5130,-0.095,0.085,
5131,-0.085,0.09,
5132,-0.1,0.07,
5133,-0.095,0.05,
5134,-0.11,0.05,
5135,-0.09,0.065,
5136,-0.08,0.075,
5137,-0.075,0.095,
5138,-0.1,0.075,
5139,-0.1,0.05,
5140,-0.12,0.03,
5141,-0.1,0.055,
5142,-0.08,0.085,
5143,-0.085,0.095,
5144,-0.095,0.075,
5145,-0.105,0.055,
5146,-0.115,0.045,
5147,-0.1,0.05,
5148,-0.08,0.08,
5149,-0.08,0.075,
5150,-0.085,0.07,
5151,-0.095,0.055,
5152,-0.095,0.035,
5153,-0.09,0.04,
5154,-0.075,0.075,
5155,-0.08,0.07,
5156,-0.105,0.075,
5157,-0.09,0.05,
5158,-0.09,0.04,
5159,-0.075,0.05,
5160,-0.055,0.075,
5161,-0.055,0.07,
5162,-0.07,0.065,
5163,-0.075,0.04,
5164,-0.09,0.035,
5165,-0.08,0.05,
5166,-0.07,0.06,
5167,-0.085,0.07,
5168,-0.075,0.065,
5169,-0.095,0.045,
5170,-0.1,0.035,
5171,-0.095,0.045,
5172,-0.085,0.05,
5173,-0.07,0.07,
5174,-0.085,0.055,
5175,-0.09,0.045,
5176,-0.105,0.03,
5177,-0.09,0.05,
5178,-0.075,0.065,
5179,-0.065,0.075,
5180,-0.075,0.055,
5181,-0.08,0.035,
5182,-0.08,0.03,
5183,-0.08,0.04,
5184,-0.065,0.055,
5185,-0.075,0.07,
5186,-0.08,0.055,
5187,-0.095,0.035,
5188,-0.085,0.025,
5189,-0.08,0.05,
5190,-0.075,0.05,
5191,-0.07,0.07,
5192,-0.09,0.055,
5193,-0.08,0.05,
5194,-0.085,0.03,
5195,-0.08,0.035,
5196,-0.06,0.055,
5197,-0.07,0.065,
5198,-0.08,0.055,
5199,-0.085,0.035,
5200,-0.08,0.03,
5201,-0.08,0.035,
5202,-0.055,0.035,
5203,-0.055,0.065,
5204,-0.07,0.05,
5205,-0.08,0.045,
5206,-0.1,0.03,
5207,-0.08,0.04,
5208,-0.07,0.05,
5209,-0.075,0.05,
5210,-0.09,0.04,
5211,-0.095,0.035,
5212,-0.11,0.025,
5213,-0.095,0.02,
5214,-0.07,0.04,
5215,-0.065,0.05,
5216,-0.085,0.045,
5217,-0.09,0.045,
5218,-0.1,0.035,
5219,-0.075,0.03,
5220,-0.065,0.05,
5221,-0.065,0.055,
5222,-0.075,0.04,
5223,-0.075,0.025,
5224,-0.08,0.025,
5225,-0.085,0.03,
5226,-0.07,0.05,
5227,-0.07,0.04,
5228,-0.085,0.04,
5229,-0.1,0.015,
5230,-0.095,0.01,
5231,-0.09,0.035,
5232,-0.08,0.055,
5233,-0.08,0.06,
5234,-0.085,0.03,
5235,-0.09,0.005,
5236,-0.105,0.01,
5237,-0.09,0.03,
5238,-0.085,0.055,
5239,-0.075,0.05,
5240,-0.09,0.02,
5241,-0.09,0.015,
5242,-0.1,0.005,
5243,-0.085,0.04,
5244,-0.06,0.04,
5245,-0.065,0.04,
5246,-0.09,0.03,
5247,-0.085,0.005,
5248,-0.1,0.01,
5249,-0.085,0.03,
5250,-0.06,0.045,
5251,-0.07,0.045,
5252,-0.08,0.025,
5253,-0.09,0.01,
5254,-0.095,0.015,
5255,-0.075,0.04,
5256,-0.07,0.05,
5257,-0.07,0.055,
5258,-0.07,0.025,
5259,-0.085,0.0,
5260,-0.075,0.005,
5261,-0.07,0.03,
5262,-0.07,0.045,
5263,-0.055,0.035,
5264,-0.075,0.015,
5265,-0.075,-0.01,
5266,-0.1,0.015,
5267,-0.085,0.035,
5268,-0.07,0.04,
5269,-0.08,0.02,
5270,-0.09,0.005,
5271,-0.09,-0.01,
5272,-0.085,0.01,
5273,-0.085,0.035,
5274,-0.07,0.035,
5275,-0.075,0.025,
5276,-0.1,0.005,
5277,-0.085,-0.01,
5278,-0.09,0.015,
5279,-0.075,0.03,
5280,-0.07,0.05,
5281,-0.065,0.025,
5282,-0.06,0.0,
5283,-0.065,-0.005,
5284,-0.08,0.005,
5285,-0.06,0.035,
5286,-0.06,0.025,
5287,-0.07,0.01,
5288,-0.08,-0.01,
5289,-0.085,0.0,
5290,-0.11,0.025,
5291,-0.08,0.03,
5292,-0.065,0.04,
5293,-0.08,0.01,
5294,-0.09,0.005,
5295,-0.08,0.0,
5296,-0.095,0.025,
5297,-0.09,0.035,
5298,-0.065,0.025,
5299,-0.065,0.005,
5300,-0.065,-0.01,
5301,-0.07,0.0,
5302,-0.075,0.025,
5303,-0.06,0.02,
5304,-0.055,0.035,
5305,-0.06,0.0,
5306,-0.075,0.005,
5307,-0.075,0.01,
5308,-0.09,0.02,
5309,-0.075,0.025,
5310,-0.065,0.01,
5311,-0.06,0.0,
5312,-0.075,-0.01,
5313,-0.085,0.005,
5314,-0.09,0.02,
5315,-0.075,0.025,
5316,-0.06,0.015,
5317,-0.065,0.0,
5318,-0.08,-0.01,
5319,-0.07,-0.005,
5320,-0.07,0.02,
5321,-0.06,0.035,
5322,-0.04,0.02,
5323,-0.05,-0.005,
5324,-0.065,-0.005,
5325,-0.07,0.0,
5326,-0.075,0.015,
5327,-0.065,0.025,
5328,-0.065,0.02,
5329,-0.06,0.005,
5330,-0.06,0.0,
5331,-0.09,0.01,
5332,-0.08,0.015,
5333,-0.07,0.025,
5334,-0.055,0.02,
5335,-0.05,-0.01,
5336,-0.065,-0.005,
5337,-0.065,0.005,
5338,-0.07,0.02,
5339,-0.065,0.025,
5340,-0.045,0.02,
5341,-0.045,0.0,
5342,-0.05,0.0,
5343,-0.05,0.01,
5344,-0.055,0.015,
5345,-0.05,0.015,
5346,-0.04,0.01,
5347,-0.055,-0.005,
5348,-0.055,-0.005,
5349,-0.075,0.0,
5350,-0.075,0.02,
5351,-0.07,0.015,
5352,-0.075,0.005,
5353,-0.07,-0.005,
5354,-0.075,-0.01,
5355,-0.075,0.0,
5356,-0.075,0.015,
5357,-0.07,0.02,
5358,-0.055,0.0,
5359,-0.055,0.005,
5360,-0.06,-0.01,
5361,-0.085,0.0,
5362,-0.075,0.005,
5363,-0.06,0.015,
5364,-0.05,-0.01,
5365,-0.05,-0.01,
5366,-0.065,-0.01,
5367,-0.075,0.0,
5368,-0.08,0.015,
5369,-0.085,0.005,
5370,-0.065,0.0,
5371,-0.06,0.0,
5372,-0.08,-0.005,
5373,-0.09,0.0,
5374,-0.09,0.01,
5375,-0.065,0.0,
5376,-0.05,-0.005,
5377,-0.06,0.0,
5378,-0.065,-0.01,
5379,-0.065,-0.01,
5380,-0.075,0.005,
5381,-0.065,0.005,
5382,-0.055,0.0,
5383,-0.045,-0.01,
5384,-0.05,-0.01,
5385,-0.055,-0.01,
5386,-0.08,0.015,
5387,-0.07,0.01,
5388,-0.04,-0.005,
5389,-0.055,-0.005,
5390,-0.07,-0.03,
5391,-0.08,-0.02,
5392,-0.11,-0.035,
5393,-0.115,-0.05,
5394,-0.095,-0.09,
5395,-0.085,-0.13,
5396,-0.09,-0.17,
5397,-0.09,-0.18,
5398,-0.05,-0.195,
5399,0.065,-0.2,
5400,0.18,-0.2,
5401,0.285,-0.225,
5402,0.35,-0.215,
5403,0.385,-0.215,
5404,0.41,-0.185,
5405,0.475,-0.13,
5406,0.595,0.0,
5407,0.745,0.265,
5408,0.805,0.575,
5409,0.8,0.82,R
5410,0.755,0.93,
5411,0.705,0.975,
5412,0.66,0.995,
5413,0.595,1.05,
5414,0.485,1.095,
5415,0.35,1.11,
5416,0.175,1.095,
5417,0.025,1.005,
5418,-0.06,0.915,
5419,-0.1,0.815,
5420,-0.14,0.735,
5421,-0.16,0.705,
5422,-0.19,0.7,
5423,-0.215,0.69,
5424,-0.235,0.67,
5425,-0.25,0.67,
5426,-0.235,0.715,
5427,-0.215,0.77,
5428,-0.195,0.815,
5429,-0.14,0.84,
5430,-0.09,0.845,
5431,-0.045,0.85,
5432,-0.02,0.84,
5433,-0.025,0.815,
5434,-0.045,0.745,
5435,-0.065,0.625,
5436,-0.095,0.515,
5437,-0.11,0.38,
5438,-0.13,0.26,
5439,-0.155,0.17,
5440,-0.16,0.13,
5441,-0.12,0.07,
5442,-0.11,0.04,
5443,-0.1,0.015,
5444,-0.12,0.01,
5445,-0.13,0.0,
5446,-0.145,-0.01,
5447,-0.13,-0.025,
5448,-0.115,-0.035,
5449,-0.125,-0.03,
5450,-0.145,-0.025,
5451,-0.145,-0.035,
5452,-0.14,-0.03,
5453,-0.135,-0.045,
5454,-0.125,-0.05,
5455,-0.125,-0.04,
5456,-0.135,-0.045,
5457,-0.16,-0.05,
5458,-0.16,-0.06,
5459,-0.135,-0.06,
5460,-0.13,-0.05,
5461,-0.12,-0.06,
5462,-0.125,-0.055,
5463,-0.125,-0.06,
5464,-0.145,-0.055,
5465,-0.125,-0.06,
5466,-0.115,-0.06,
5467,-0.12,-0.05,
5468,-0.12,-0.05,
5469,-0.14,-0.07,
5470,-0.145,-0.055,
5471,-0.135,-0.06,
5472,-0.12,-0.055,
5473,-0.11,-0.05,
5474,-0.11,-0.05,
5475,-0.13,-0.055,
5476,-0.14,-0.055,
5477,-0.115,-0.06,
5478,-0.095,-0.055,
5479,-0.09,-0.04,
5480,-0.1,-0.03,
5481,-0.11,-0.05,
5482,-0.11,-0.05,
5483,-0.09,-0.04,
5484,-0.075,-0.03,
5485,-0.075,-0.025,
5486,-0.09,-0.025,
5487,-0.08,-0.045,
5488,-0.085,-0.045,
5489,-0.08,-0.05,
5490,-0.065,-0.03,
5491,-0.055,-0.02,
5492,-0.06,-0.02,
5493,-0.075,-0.02,
5494,-0.075,-0.02,
5495,-0.065,-0.02,
5496,-0.04,-0.005,
5497,-0.03,0.01,
5498,-0.055,0.005,
5499,-0.04,0.0,
5500,-0.045,0.0,
5501,-0.04,0.005,
5502,-0.015,0.02,
5503,-0.015,0.04,
5504,-0.01,0.03,
5505,-0.02,0.02,
5506,-0.02,0.025,
5507,-0.015,0.035,
5508,0.005,0.05,
5509,0.02,0.07,
5510,0.0,0.05,
5511,-0.005,0.07,
5512,-0.01,0.055,
5513,0.01,0.07,
5514,0.025,0.09,
5515,0.03,0.1,
5516,0.02,0.095,
5517,0.015,0.085,
5518,0.03,0.085,
5519,0.05,0.11,
5520,0.06,0.135,
5521,0.065,0.135,
5522,0.05,0.13,
5523,0.055,0.115,
5524,0.06,0.125,
5525,0.075,0.15,
5526,0.1,0.165,
5527,0.085,0.165,
5528,0.09,0.155,
5529,0.08,0.14,
5530,0.075,0.145,
5531,0.085,0.18,
5532,0.1,0.19,
5533,0.095,0.195,
5534,0.095,0.185,
5535,0.095,0.155,
5536,0.085,0.17,
5537,0.1,0.19,
5538,0.115,0.22,
5539,0.12,0.215,
5540,0.095,0.19,
5541,0.085,0.185,
5542,0.1,0.195,
5543,0.12,0.225,
5544,0.14,0.235,
5545,0.135,0.235,
5546,0.135,0.22,
5547,0.115,0.195,
5548,0.105,0.22,
5549,0.135,0.245,
5550,0.125,0.255,
5551,0.13,0.245,
5552,0.12,0.23,
5553,0.1,0.21,
5554,0.11,0.235,
5555,0.12,0.26,
5556,0.125,0.29,
5557,0.12,0.27,
5558,0.11,0.245,
5559,0.095,0.255,
5560,0.1,0.275,
5561,0.12,0.3,
5562,0.12,0.315,
5563,0.125,0.305,
5564,0.12,0.275,
5565,0.11,0.28,
5566,0.11,0.305,
5567,0.11,0.335,
5568,0.125,0.345,
5569,0.115,0.325,
5570,0.1,0.31,
5571,0.085,0.315,
5572,0.075,0.35,
5573,0.095,0.365,
5574,0.115,0.365,
5575,0.1,0.35,
5576,0.095,0.34,
5577,0.095,0.34,
5578,0.09,0.365,
5579,0.11,0.39,
5580,0.12,0.38,
5581,0.115,0.37,
5582,0.11,0.35,
5583,0.105,0.37,
5584,0.105,0.385,
5585,0.115,0.405,
5586,0.125,0.39,
5587,0.13,0.375,
5588,0.12,0.365,
5589,0.1,0.375,
5590,0.1,0.39,
5591,0.125,0.39,
5592,0.13,0.38,
5593,0.135,0.375,
5594,0.135,0.375,
5595,0.14,0.38,
5596,0.135,0.4,
5597,0.16,0.395,
5598,0.17,0.385,
5599,0.17,0.395,
5600,0.175,0.4,
5601,0.165,0.41,
5602,0.165,0.415,
5603,0.185,0.405,
5604,0.2,0.395,
5605,0.195,0.415,
5606,0.205,0.415,
5607,0.19,0.425,
5608,0.2,0.415,
5609,0.22,0.42,
5610,0.23,0.415,
5611,0.225,0.425,
5612,0.215,0.435,
5613,0.22,0.43,
5614,0.22,0.425,
5615,0.24,0.435,
5616,0.26,0.45,
5617,0.255,0.45,
5618,0.26,0.44,
5619,0.245,0.425,
5620,0.225,0.415,
5621,0.225,0.4,
5622,0.22,0.4,
5623,0.205,0.395,
5624,0.185,0.385,
5625,0.145,0.34,
5626,0.14,0.29,
5627,0.13,0.265,
5628,0.14,0.255,
5629,0.125,0.26,
5630,0.08,0.245,
5631,0.055,0.215,
5632,0.035,0.205,
5633,0.06,0.22,
5634,0.075,0.25,
5635,0.06,0.255,
5636,0.04,0.235,
5637,-0.01,0.23,
5638,-0.09,0.26,
5639,-0.17,0.315,
5640,-0.235,0.4,
5641,-0.315,0.445,
5642,-0.395,0.465,
5643,-0.505,0.45,
5644,-0.625,0.435,
5645,-0.715,0.415,
5646,-0.785,0.375,
5647,-0.845,0.305,
5648,-0.875,0.235,V
5649,-0.865,0.175,
5650,-0.855,0.19,
5651,-0.83,0.19,
5652,-0.79,0.17,
5653,-0.745,0.13,
5654,-0.7,0.115,
5655,-0.67,0.14,
5656,-0.64,0.17,
5657,-0.615,0.18,
5658,-0.61,0.165,
5659,-0.64,0.115,
5660,-0.675,0.035,
5661,-0.705,-0.055,
5662,-0.745,-0.155,
5663,-0.75,-0.25,
5664,-0.76,-0.405,
5665,-0.775,-0.58,
5666,-0.8,-0.72,
5667,-0.835,-0.82,
5668,-0.83,-0.875,
5669,-0.825,-0.91,
5670,-0.82,-0.975,
5671,-0.82,-1.01,
5672,-0.825,-1.03,
5673,-0.83,-1.035,
5674,-0.83,-1.04,
5675,-0.825,-1.04,
5676,-0.805,-1.045,
5677,-0.815,-1.085,
5678,-0.825,-1.085,
5679,-0.825,-1.075,
5680,-0.83,-1.065,
5681,-0.81,-1.07,
5682,-0.795,-1.08,
5683,-0.79,-1.105,
5684,-0.815,-1.12,
5685,-0.815,-1.11,
5686,-0.815,-1.09,
5687,-0.81,-1.1,
5688,-0.8,-1.11,
5689,-0.795,-1.13,
5690,-0.8,-1.135,
5691,-0.81,-1.115,
5692,-0.8,-1.115,
5693,-0.79,-1.1,
5694,-0.775,-1.12,
5695,-0.775,-1.135,
5696,-0.775,-1.115,
5697,-0.775,-1.115,
5698,-0.775,-1.1,
5699,-0.755,-1.1,
5700,-0.73,-1.105,
5701,-0.72,-1.125,
5702,-0.73,-1.11,
5703,-0.755,-1.095,
5704,-0.76,-1.085,
5705,-0.725,-1.085,
5706,-0.715,-1.085,
5707,-0.71,-1.075,
5708,-0.71,-1.07,
5709,-0.715,-1.05,
5710,-0.725,-1.045,
5711,-0.69,-1.03,
5712,-0.68,-1.035,
5713,-0.665,-1.015,
5714,-0.66,-1.015,
5715,-0.68,-0.995,
5716,-0.67,-0.985,
5717,-0.65,-0.985,
5718,-0.635,-0.975,
5719,-0.63,-0.955,
5720,-0.63,-0.945,
5721,-0.625,-0.93,
5722,-0.625,-0.935,
5723,-0.6,-0.9,
5724,-0.575,-0.9,
5725,-0.57,-0.89,
5726,-0.6,-0.875,
5727,-0.585,-0.86,
5728,-0.58,-0.855,
5729,-0.565,-0.84,
5730,-0.545,-0.83,
5731,-0.54,-0.805,
5732,-0.535,-0.8,
5733,-0.54,-0.8,
5734,-0.515,-0.79,
5735,-0.515,-0.77,
5736,-0.48,-0.755,
5737,-0.485,-0.745,
5738,-0.49,-0.72,
5739,-0.48,-0.725,
5740,-0.46,-0.715,
5741,-0.445,-0.7,
5742,-0.415,-0.68,
5743,-0.415,-0.67,
5744,-0.43,-0.655,
5745,-0.425,-0.655,
5746,-0.42,-0.665,
5747,-0.4,-0.63,
5748,-0.38,-0.61,
5749,-0.38,-0.605,
5750,-0.375,-0.595,
5751,-0.375,-0.585,
5752,-0.375,-0.57,
5753,-0.35,-0.575,
5754,-0.325,-0.545,
5755,-0.31,-0.525,
5756,-0.315,-0.52,
5757,-0.32,-0.52,
5758,-0.315,-0.515,
5759,-0.3,-0.495,
5760,-0.28,-0.475,
5761,-0.275,-0.465,
5762,-0.29,-0.46,
5763,-0.29,-0.46,
5764,-0.265,-0.44,
5765,-0.24,-0.44,
5766,-0.215,-0.42,
5767,-0.22,-0.41,
5768,-0.22,-0.415,
5769,-0.215,-0.42,
5770,-0.215,-0.4,
5771,-0.195,-0.385,
5772,-0.185,-0.38,
5773,-0.175,-0.365,
5774,-0.19,-0.375,
5775,-0.205,-0.37,
5776,-0.205,-0.37,
5777,-0.185,-0.35,
5778,-0.16,-0.32,
5779,-0.16,-0.315,
5780,-0.145,-0.31,
5781,-0.16,-0.305,
5782,-0.165,-0.31,
5783,-0.145,-0.295,
5784,-0.135,-0.275,
5785,-0.13,-0.27,
5786,-0.155,-0.27,
5787,-0.175,-0.27,
5788,-0.17,-0.265,
5789,-0.16,-0.255,
5790,-0.145,-0.225,
5791,-0.15,-0.21,
5792,-0.155,-0.2,
5793,-0.165,-0.2,
5794,-0.155,-0.175,
5795,-0.145,-0.165,
5796,-0.125,-0.14,
5797,-0.14,-0.14,
5798,-0.15,-0.12,
5799,-0.16,-0.13,
5800,-0.15,-0.125,
5801,-0.14,-0.105,
5802,-0.115,-0.08,
5803,-0.11,-0.07,
5804,-0.125,-0.065,
5805,-0.13,-0.065,
5806,-0.125,-0.07,
5807,-0.12,-0.055,
5808,-0.12,-0.045,
5809,-0.125,-0.025,
5810,-0.125,-0.04,
5811,-0.14,-0.055,
5812,-0.13,-0.04,
5813,-0.12,-0.03,
5814,-0.115,-0.02,
5815,-0.115,-0.015,
5816,-0.13,-0.01,
5817,-0.13,-0.03,
5818,-0.13,-0.03,
5819,-0.12,-0.025,
5820,-0.115,-0.005,
5821,-0.09,0.005,
5822,-0.11,-0.015,
5823,-0.105,-0.015,
5824,-0.11,-0.025,
5825,-0.09,-0.01,
5826,-0.085,0.0,
5827,-0.085,0.005,
5828,-0.105,-0.005,
5829,-0.115,-0.01,
5830,-0.125,-0.015,
5831,-0.11,-0.005,
5832,-0.09,0.015,
5833,-0.1,0.02,
5834,-0.12,0.0,
5835,-0.135,-0.005,
5836,-0.12,-0.01,
5837,-0.11,0.01,
5838,-0.1,0.025,
5839,-0.11,0.025,
5840,-0.105,0.0,
5841,-0.115,-0.015,
5842,-0.11,-0.015,
5843,-0.1,0.015,
5844,-0.085,0.035,
5845,-0.085,0.03,
5846,-0.1,0.01,
5847,-0.12,-0.005,
5848,-0.12,-0.005,
5849,-0.1,0.025,
5850,-0.08,0.02,
5851,-0.105,0.03,
5852,-0.11,0.005,
5853,-0.12,0.0,
5854,-0.11,0.01,
5855,-0.1,0.02,
5856,-0.09,0.03,
5857,-0.095,0.025,
5858,-0.105,0.01,
5859,-0.105,0.005,
5860,-0.105,0.005,
5861,-0.095,0.015,
5862,-0.075,0.02,
5863,-0.08,0.03,
5864,-0.085,0.02,
5865,-0.09,0.005,
5866,-0.09,0.005,
5867,-0.085,0.02,
5868,-0.085,0.04,
5869,-0.085,0.03,
5870,-0.085,0.015,
5871,-0.095,-0.005,
5872,-0.105,0.005,
5873,-0.095,0.035,
5874,-0.065,0.03,
5875,-0.08,0.035,
5876,-0.085,0.015,
5877,-0.09,0.0,
5878,-0.105,0.0,
5879,-0.09,0.045,
5880,-0.08,0.045,
5881,-0.075,0.025,
5882,-0.08,0.01,
5883,-0.095,0.0,
5884,-0.08,0.015,
5885,-0.07,0.045,
5886,-0.055,0.055,
5887,-0.07,0.035,
5888,-0.075,-0.005,
5889,-0.085,-0.005,
5890,-0.1,0.01,
5891,-0.1,0.05,
5892,-0.075,0.055,
5893,-0.085,0.04,
5894,-0.085,0.01,
5895,-0.1,-0.005,
5896,-0.1,0.025,
5897,-0.08,0.045,
5898,-0.07,0.045,
5899,-0.075,0.025,
5900,-0.08,0.005,
5901,-0.095,0.01,
5902,-0.095,0.03,
5903,-0.08,0.045,
5904,-0.065,0.05,
5905,-0.07,0.025,
5906,-0.08,0.01,
5907,-0.09,0.025,
5908,-0.09,0.04,
5909,-0.075,0.065,
5910,-0.065,0.04,
5911,-0.075,0.03,
5912,-0.09,0.01,
5913,-0.09,0.02,
5914,-0.085,0.045,
5915,-0.075,0.05,
5916,-0.07,0.045,
5917,-0.07,0.02,
5918,-0.08,0.015,
5919,-0.09,0.03,
5920,-0.08,0.045,
5921,-0.075,0.05,
5922,-0.06,0.025,
5923,-0.065,0.025,
5924,-0.07,0.015,
5925,-0.08,0.035,
5926,-0.075,0.04,
5927,-0.075,0.06,
5928,-0.06,0.03,
5929,-0.07,0.025,
5930,-0.08,0.015,
5931,-0.09,0.035,
5932,-0.09,0.045,
5933,-0.07,0.06,
5934,-0.06,0.03,
5935,-0.06,0.02,
5936,-0.07,0.005,
5937,-0.08,0.03,
5938,-0.085,0.045,
5939,-0.075,0.045,
5940,-0.055,0.025,
5941,-0.055,0.02,
5942,-0.07,0.025,
5943,-0.095,0.025,
5944,-0.085,0.045,
5945,-0.07,0.03,
5946,-0.06,0.025,
5947,-0.07,0.01,
5948,-0.09,0.02,
5949,-0.09,0.035,
5950,-0.09,0.03,
5951,-0.08,0.025,
5952,-0.06,0.01,
5953,-0.07,0.02,
5954,-0.085,0.025,
5955,-0.105,0.02,
5956,-0.1,0.02,
5957,-0.09,0.02,
5958,-0.08,0.015,
5959,-0.075,0.015,
5960,-0.075,0.015,
5961,-0.09,0.03,
5962,-0.08,0.02,
5963,-0.07,0.025,
5964,-0.055,0.015,
5965,-0.075,0.015,
5966,-0.075,0.03,
5967,-0.09,0.025,
5968,-0.085,0.025,
5969,-0.085,0.015,
5970,-0.075,0.025,
5971,-0.085,0.02,
5972,-0.095,0.025,
5973,-0.1,0.015,
5974,-0.105,0.005,
5975,-0.075,0.015,
5976,-0.07,0.01,
5977,-0.075,0.015,
5978,-0.09,0.005,
5979,-0.095,0.01,
5980,-0.085,0.015,
5981,-0.08,0.01,
5982,-0.05,0.01,
5983,-0.07,0.015,
5984,-0.075,0.015,
5985,-0.095,0.01,
5986,-0.09,0.015,
5987,-0.085,0.025,
5988,-0.07,0.03,
5989,-0.075,0.02,
5990,-0.075,0.015,
5991,-0.09,0.005,
5992,-0.075,0.0,
5993,-0.075,0.005,
5994,-0.07,0.015,
5995,-0.065,0.025,
5996,-0.07,0.02,
5997,-0.095,0.0,
5998,-0.075,0.01,
5999,-0.07,0.015,
6000,-0.05,0.025,
6001,-0.055,0.035,
6002,-0.07,0.02,
6003,-0.075,0.005,
6004,-0.07,0.01,
6005,-0.055,0.015,
6006,-0.04,0.03,
6007,-0.06,0.025,
6008,-0.065,0.02,
6009,-0.1,0.005,
6010,-0.09,-0.005,
6011,-0.07,0.01,
6012,-0.065,0.04,
6013,-0.065,0.035,
6014,-0.075,0.015,
6015,-0.095,-0.005,
6016,-0.09,0.01,
6017,-0.085,0.025,
6018,-0.08,0.04,
6019,-0.07,0.02,
6020,-0.07,-0.015,
6021,-0.08,-0.01,
6022,-0.09,0.02,
6023,-0.065,0.045,
6024,-0.055,0.03,
6025,-0.065,-0.005,
6026,-0.08,-0.005,
6027,-0.105,0.005,
6028,-0.1,0.02,
6029,-0.08,0.005,
6030,-0.07,0.005,
6031,-0.075,0.0,
6032,-0.09,0.015,
6033,-0.095,0.015,
6034,-0.095,0.0,
6035,-0.085,0.005,
6036,-0.07,0.02,
6037,-0.065,0.03,
6038,-0.07,0.015,
6039,-0.08,0.0,
6040,-0.075,-0.005,
6041,-0.065,0.01,
6042,-0.06,0.025,
6043,-0.055,0.015,
6044,-0.075,-0.005,
6045,-0.08,-0.005,
6046,-0.08,0.0,
6047,-0.075,0.02,
6048,-0.06,0.025,
6049,-0.07,0.015,
6050,-0.07,0.0,
6051,-0.08,-0.005,
6052,-0.08,-0.01,
6053,-0.07,0.0,
6054,-0.07,0.015,
6055,-0.065,0.015,
6056,-0.07,-0.015,
6057,-0.075,-0.02,
6058,-0.065,-0.015,
6059,-0.06,0.01,
6060,-0.055,0.025,
6061,-0.045,0.015,
6062,-0.07,-0.005,
6063,-0.085,-0.015,
6064,-0.085,0.0,
6065,-0.07,0.015,
6066,-0.06,0.015,
6067,-0.07,0.005,
6068,-0.075,-0.015,
6069,-0.09,-0.02,
6070,-0.095,-0.01,
6071,-0.08,0.015,
6072,-0.07,0.015,
6073,-0.055,0.015,
6074,-0.075,-0.015,
6075,-0.08,-0.025,
6076,-0.075,-0.005,
6077,-0.055,0.005,
6078,-0.045,0.025,
6079,-0.045,0.0,
6080,-0.065,-0.01,
6081,-0.065,-0.025,
6082,-0.075,-0.02,
6083,-0.055,0.005,
6084,-0.06,0.02,
6085,-0.085,0.015,
6086,-0.08,-0.02,
6087,-0.085,-0.025,
6088,-0.08,-0.02,
6089,-0.06,0.01,
6090,-0.05,0.025,
6091,-0.075,0.005,
6092,-0.07,-0.015,
6093,-0.075,-0.025,
6094,-0.075,-0.005,
6095,-0.07,0.025,
6096,-0.065,0.025,
6097,-0.06,0.0,
6098,-0.07,-0.015,
6099,-0.075,-0.03,
6100,-0.07,0.0,
6101,-0.06,0.01,
6102,-0.055,0.02,
6103,-0.055,0.01,
6104,-0.07,-0.025,
6105,-0.08,-0.015,
6106,-0.075,0.0,
6107,-0.065,0.01,
6108,-0.065,0.035,
6109,-0.065,0.0,
6110,-0.07,-0.015,
6111,-0.085,-0.015,
6112,-0.08,0.0,
6113,-0.06,0.02,
6114,-0.065,0.025,
6115,-0.06,0.015,
6116,-0.075,-0.005,
6117,-0.075,-0.03,
6118,-0.065,-0.005,
6119,-0.05,0.02,
6120,-0.055,0.03,
6121,-0.05,0.01,
6122,-0.075,-0.015,
6123,-0.075,-0.01,
6124,-0.07,-0.005,
6125,-0.06,0.02,
6126,-0.065,0.02,
6127,-0.07,0.015,
6128,-0.07,-0.01,
6129,-0.08,-0.02,
6130,-0.085,-0.01,
6131,-0.065,0.015,
6132,-0.055,0.03,
6133,-0.045,0.01,
6134,-0.05,-0.01,
6135,-0.055,-0.015,
6136,-0.045,0.0,
6137,-0.04,0.025,
6138,-0.015,0.025,
6139,-0.035,0.01,
6140,-0.055,-0.01,
6141,-0.07,-0.03,
6142,-0.1,-0.02,
6143,-0.11,-0.03,
6144,-0.115,-0.065,
6145,-0.11,-0.115,
6146,-0.12,-0.17,
6147,-0.12,-0.22,
6148,-0.06,-0.23,
6149,0.025,-0.23,
6150,0.13,-0.23,
6151,0.24,-0.235,
6152,0.315,-0.255,
6153,0.355,-0.255,
6154,0.395,-0.225,
6155,0.435,-0.2,
6156,0.49,-0.125,
6157,0.59,-0.005,
6158,0.705,0.195,
6159,0.795,0.47,
6160,0.815,0.71,R
6161,0.79,0.86,
6162,0.755,0.915,
6163,0.695,0.94,
6164,0.635,0.955,
6165,0.535,0.995,
6166,0.425,1.02,
6167,0.26,1.035,
6168,0.085,0.99,
6169,-0.065,0.9,
6170,-0.145,0.77,
6171,-0.18,0.68,
6172,-0.19,0.645,
6173,-0.19,0.67,
6174,-0.2,0.67,
6175,-0.24,0.67,
6176,-0.275,0.645,
6177,-0.265,0.67,
6178,-0.23,0.745,
6179,-0.2,0.795,
6180,-0.145,0.82,
6181,-0.125,0.815,
6182,-0.07,0.805,
6183,-0.04,0.77,
6184,-0.02,0.765,
6185,-0.025,0.73,
6186,-0.05,0.64,
6187,-0.095,0.52,
6188,-0.125,0.375,
6189,-0.16,0.255,
6190,-0.155,0.175,
6191,-0.15,0.13,
6192,-0.135,0.085,
6193,-0.135,0.035,
6194,-0.155,0.005,
6195,-0.15,-0.015,
6196,-0.14,-0.02,
6197,-0.125,-0.005,
6198,-0.14,-0.005,
6199,-0.14,-0.025,
6200,-0.145,-0.06,
6201,-0.14,-0.065,
6202,-0.135,-0.055,
6203,-0.12,-0.035,
6204,-0.11,-0.035,
6205,-0.115,-0.055,
6206,-0.13,-0.075,
6207,-0.16,-0.08,
6208,-0.14,-0.07,
6209,-0.13,-0.045,
6210,-0.12,-0.05,
6211,-0.135,-0.055,
6212,-0.13,-0.09,
6213,-0.14,-0.095,
6214,-0.14,-0.075,
6215,-0.125,-0.055,
6216,-0.125,-0.06,
6217,-0.12,-0.08,
6218,-0.135,-0.095,
6219,-0.13,-0.105,
6220,-0.115,-0.085,
6221,-0.105,-0.07,
6222,-0.095,-0.07,
6223,-0.1,-0.075,
6224,-0.12,-0.085,
6225,-0.115,-0.105,
6226,-0.11,-0.09,
6227,-0.095,-0.065,
6228,-0.095,-0.05,
6229,-0.1,-0.065,
6230,-0.115,-0.085,
6231,-0.105,-0.095,
6232,-0.1,-0.085,
6233,-0.085,-0.055,
6234,-0.095,-0.045,
6235,-0.085,-0.06,
6236,-0.095,-0.075,
6237,-0.09,-0.08,
6238,-0.085,-0.07,
6239,-0.065,-0.03,
6240,-0.055,-0.04,
6241,-0.05,-0.055,
6242,-0.06,-0.06,
6243,-0.055,-0.07,
6244,-0.06,-0.055,
6245,-0.03,-0.025,
6246,-0.035,-0.015,
6247,-0.03,-0.03,
6248,-0.03,-0.045,
6249,-0.045,-0.05,
6250,-0.035,-0.03,
6251,-0.03,0.0,
6252,-0.01,0.005,
6253,-0.01,-0.015,
6254,-0.02,-0.03,
6255,-0.02,-0.03,
6256,-0.01,0.005,
6257,0.005,0.035,
6258,0.01,0.03,
6259,0.025,0.0,
6260,0.015,0.0,
6261,0.02,-0.005,
6262,0.015,0.035,
6263,0.025,0.06,
6264,0.04,0.05,
6265,0.035,0.045,
6266,0.025,0.04,
6267,0.015,0.035,
6268,0.04,0.065,
6269,0.035,0.075,
6270,0.055,0.09,
6271,0.065,0.08,
6272,0.045,0.06,
6273,0.055,0.06,
6274,0.055,0.08,
6275,0.065,0.11,
6276,0.07,0.11,
6277,0.09,0.1,
6278,0.085,0.085,
6279,0.075,0.085,
6280,0.085,0.115,
6281,0.1,0.135,
6282,0.12,0.145,
6283,0.105,0.125,
6284,0.1,0.11,
6285,0.1,0.105,
6286,0.11,0.15,
6287,0.12,0.165,
6288,0.125,0.165,
6289,0.11,0.14,
6290,0.1,0.135,
6291,0.105,0.14,
6292,0.095,0.165,
6293,0.105,0.185,
6294,0.13,0.185,
6295,0.135,0.165,
6296,0.12,0.155,
6297,0.125,0.165,
6298,0.13,0.185,
6299,0.13,0.205,
6300,0.135,0.21,
6301,0.14,0.185,
6302,0.135,0.17,
6303,0.145,0.175,
6304,0.14,0.19,
6305,0.15,0.215,
6306,0.165,0.225,
6307,0.155,0.205,
6308,0.135,0.19,
6309,0.125,0.195,
6310,0.13,0.22,
6311,0.135,0.24,
6312,0.14,0.24,
6313,0.14,0.23,
6314,0.12,0.21,
6315,0.115,0.225,
6316,0.12,0.245,
6317,0.125,0.275,
6318,0.135,0.265,
6319,0.13,0.255,
6320,0.125,0.245,
6321,0.115,0.255,
6322,0.115,0.285,
6323,0.115,0.31,
6324,0.125,0.3,
6325,0.125,0.28,
6326,0.11,0.275,
6327,0.1,0.29,
6328,0.11,0.32,
6329,0.11,0.33,
6330,0.105,0.33,
6331,0.105,0.305,
6332,0.1,0.3,
6333,0.095,0.325,
6334,0.1,0.34,
6335,0.1,0.355,
6336,0.125,0.345,
6337,0.12,0.325,
6338,0.105,0.305,
6339,0.1,0.325,
6340,0.105,0.34,
6341,0.12,0.36,
6342,0.14,0.35,
6343,0.14,0.33,
6344,0.125,0.305,
6345,0.125,0.305,
6346,0.135,0.335,
6347,0.13,0.345,
6348,0.14,0.35,
6349,0.13,0.315,
6350,0.12,0.315,
6351,0.13,0.3,
6352,0.135,0.335,
6353,0.145,0.35,
6354,0.155,0.35,
6355,0.17,0.33,
6356,0.16,0.3,
6357,0.16,0.315,
6358,0.17,0.345,
6359,0.185,0.365,
6360,0.205,0.34,
6361,0.2,0.33,
6362,0.2,0.32,
6363,0.195,0.335,
6364,0.205,0.355,
6365,0.22,0.385,
6366,0.235,0.365,
6367,0.235,0.34,
6368,0.22,0.33,
6369,0.205,0.35,
6370,0.215,0.36,
6371,0.24,0.38,
6372,0.25,0.37,
6373,0.26,0.36,
6374,0.25,0.355,
6375,0.26,0.345,
6376,0.255,0.36,
6377,0.275,0.375,
6378,0.275,0.34,
6379,0.26,0.315,
6380,0.24,0.29,
6381,0.21,0.3,
6382,0.21,0.315,
6383,0.195,0.295,
6384,0.19,0.25,
6385,0.19,0.185,
6386,0.2,0.155,
6387,0.21,0.135,
6388,0.205,0.16,
6389,0.185,0.18,
6390,0.165,0.155,
6391,0.135,0.15,
6392,0.15,0.15,
6393,0.14,0.165,
6394,0.125,0.2,
6395,0.1,0.215,
6396,0.07,0.21,
6397,0.0,0.2,
6398,-0.09,0.215,
6399,-0.175,0.265,
6400,-0.245,0.31,
6401,-0.325,0.355,
6402,-0.39,0.35,
6403,-0.505,0.31,
6404,-0.64,0.27,
6405,-0.73,0.235,
6406,-0.79,0.22,
6407,-0.795,0.19,
6408,-0.815,0.165,V
6409,-0.83,0.145,
6410,-0.84,0.115,
6411,-0.845,0.095,
6412,-0.825,0.1,
6413,-0.785,0.105,
6414,-0.73,0.095,
6415,-0.68,0.085,
6416,-0.645,0.09,
6417,-0.615,0.1,
6418,-0.595,0.135,
6419,-0.595,0.135,
6420,-0.615,0.09,
6421,-0.65,0.035,
6422,-0.7,-0.035,
6423,-0.72,-0.095,
6424,-0.755,-0.165,
6425,-0.77,-0.23,
6426,-0.795,-0.365,
6427,-0.815,-0.525,
6428,-0.84,-0.645,
6429,-0.835,-0.75,
6430,-0.83,-0.8,
6431,-0.82,-0.86,
6432,-0.81,-0.915,
6433,-0.82,-0.97,
6434,-0.84,-1.025,
6435,-0.85,-1.03,
6436,-0.845,-1.025,
6437,-0.835,-1.01,
6438,-0.83,-1.04,
6439,-0.835,-1.06,
6440,-0.85,-1.09,
6441,-0.855,-1.08,
6442,-0.845,-1.055,
6443,-0.835,-1.065,
6444,-0.82,-1.07,
6445,-0.83,-1.09,
6446,-0.84,-1.12,
6447,-0.845,-1.11,
6448,-0.84,-1.09,
6449,-0.815,-1.075,
6450,-0.815,-1.08,
6451,-0.825,-1.105,
6452,-0.83,-1.13,
6453,-0.825,-1.135,
6454,-0.815,-1.125,
6455,-0.805,-1.09,
6456,-0.805,-1.115,
6457,-0.805,-1.12,
6458,-0.82,-1.14,
6459,-0.82,-1.14,
6460,-0.805,-1.115,
6461,-0.795,-1.095,
6462,-0.78,-1.09,
6463,-0.78,-1.115,
6464,-0.795,-1.135,
6465,-0.785,-1.13,
6466,-0.77,-1.105,
6467,-0.77,-1.08,
6468,-0.755,-1.08,
6469,-0.76,-1.085,
6470,-0.775,-1.095,
6471,-0.76,-1.085,
6472,-0.735,-1.07,
6473,-0.715,-1.05,
6474,-0.71,-1.03,
6475,-0.71,-1.045,
6476,-0.725,-1.05,
6477,-0.725,-1.06,
6478,-0.71,-1.03,
6479,-0.69,-1.005,
6480,-0.69,-0.98,
6481,-0.67,-1.0,
6482,-0.68,-0.99,
6483,-0.66,-0.985,
6484,-0.645,-0.965,
6485,-0.615,-0.925,
6486,-0.605,-0.905,
6487,-0.595,-0.905,
6488,-0.615,-0.92,
6489,-0.61,-0.91,
6490,-0.585,-0.885,
6491,-0.56,-0.865,
6492,-0.545,-0.85,
6493,-0.55,-0.84,
6494,-0.55,-0.845,
6495,-0.565,-0.845,
6496,-0.535,-0.835,
6497,-0.53,-0.805,
6498,-0.515,-0.8,
6499,-0.51,-0.79,
6500,-0.505,-0.79,
6501,-0.515,-0.795,
6502,-0.51,-0.785,
6503,-0.51,-0.765,
6504,-0.505,-0.75,
6505,-0.5,-0.74,
6506,-0.49,-0.745,
6507,-0.49,-0.75,
6508,-0.465,-0.73,
6509,-0.445,-0.705,
6510,-0.435,-0.69,
6511,-0.415,-0.675,
6512,-0.425,-0.685,
6513,-0.42,-0.68,
6514,-0.425,-0.675,
6515,-0.4,-0.66,
6516,-0.4,-0.65,
6517,-0.405,-0.64,
6518,-0.41,-0.64,
6519,-0.4,-0.63,
6520,-0.385,-0.61,
6521,-0.375,-0.6,
6522,-0.37,-0.585,
6523,-0.37,-0.58,
6524,-0.38,-0.57,
6525,-0.385,-0.565,
6526,-0.355,-0.55,
6527,-0.33,-0.535,
6528,-0.315,-0.54,
6529,-0.31,-0.52,
6530,-0.315,-0.515,
6531,-0.31,-0.515,
6532,-0.3,-0.495,
6533,-0.3,-0.48,
6534,-0.28,-0.48,
6535,-0.275,-0.47,
6536,-0.27,-0.47,
6537,-0.275,-0.465,
6538,-0.27,-0.45,
6539,-0.245,-0.44,
6540,-0.23,-0.435,
6541,-0.23,-0.425,
6542,-0.245,-0.42,
6543,-0.245,-0.41,
6544,-0.245,-0.39,
6545,-0.235,-0.39,
6546,-0.22,-0.385,
6547,-0.215,-0.37,
6548,-0.215,-0.365,
6549,-0.225,-0.345,
6550,-0.205,-0.34,
6551,-0.185,-0.325,
6552,-0.18,-0.315,
6553,-0.17,-0.31,
6554,-0.19,-0.295,
6555,-0.2,-0.285,
6556,-0.18,-0.26,
6557,-0.17,-0.25,
6558,-0.165,-0.235,
6559,-0.155,-0.235,
6560,-0.155,-0.22,
6561,-0.17,-0.2,
6562,-0.155,-0.19,
6563,-0.15,-0.18,
6564,-0.135,-0.18,
6565,-0.145,-0.17,
6566,-0.145,-0.155,
6567,-0.15,-0.135,
6568,-0.14,-0.12,
6569,-0.125,-0.11,
6570,-0.13,-0.11,
6571,-0.125,-0.12,
6572,-0.125,-0.11,
6573,-0.145,-0.095,
6574,-0.125,-0.075,
6575,-0.11,-0.075,
6576,-0.09,-0.075,
6577,-0.105,-0.085,
6578,-0.115,-0.07,
6579,-0.12,-0.06,
6580,-0.105,-0.04,
6581,-0.105,-0.035,
6582,-0.1,-0.05,
6583,-0.11,-0.05,
6584,-0.1,-0.055,
6585,-0.115,-0.035,
6586,-0.115,-0.025,
6587,-0.095,-0.025,
6588,-0.1,-0.03,
6589,-0.105,-0.05,
6590,-0.11,-0.05,
6591,-0.1,-0.035,
6592,-0.095,-0.02,
6593,-0.09,0.005,
6594,-0.075,-0.015,
6595,-0.08,-0.03,
6596,-0.095,-0.04,
6597,-0.095,-0.04,
6598,-0.085,-0.01,
6599,-0.075,0.005,
6600,-0.07,-0.005,
6601,-0.07,-0.02,
6602,-0.085,-0.04,
6603,-0.085,-0.015,
6604,-0.1,-0.015,
6605,-0.095,0.005,
6606,-0.09,-0.005,
6607,-0.08,-0.02,
6608,-0.1,-0.035,
6609,-0.1,-0.01,
6610,-0.09,0.0,
6611,-0.08,0.015,
6612,-0.075,0.005,
6613,-0.075,-0.005,
6614,-0.075,-0.02,
6615,-0.085,-0.01,
6616,-0.09,0.005,
6617,-0.08,0.025,
6618,-0.07,0.01,
6619,-0.06,-0.015,
6620,-0.08,-0.02,
6621,-0.09,-0.01,
6622,-0.08,0.015,
6623,-0.07,0.03,
6624,-0.065,0.015,
6625,-0.07,0.01,
6626,-0.07,-0.02,
6627,-0.09,0.005,
6628,-0.085,0.02,
6629,-0.08,0.035,
6630,-0.075,0.01,
6631,-0.08,-0.005,
6632,-0.085,-0.01,
6633,-0.085,0.005,
6634,-0.08,0.015,
6635,-0.065,0.035,
6636,-0.06,0.025,
6637,-0.065,0.0,
6638,-0.065,-0.01,
6639,-0.075,0.005,
6640,-0.06,0.015,
6641,-0.055,0.04,
6642,-0.055,0.025,
6643,-0.055,0.01,
6644,-0.06,-0.01,
6645,-0.08,0.0,
6646,-0.065,0.025,
6647,-0.06,0.035,
6648,-0.06,0.035,
6649,-0.08,0.005,
6650,-0.075,-0.005,
6651,-0.085,0.0,
6652,-0.07,0.03,
6653,-0.065,0.04,
6654,-0.065,0.035,
6655,-0.07,0.01,
6656,-0.075,-0.005,
6657,-0.07,0.015,
6658,-0.06,0.02,
6659,-0.055,0.035,
6660,-0.055,0.04,
6661,-0.05,0.02,
6662,-0.07,0.0,
6663,-0.075,0.005,
