,MLII,V1,symbol
0,-0.02,0.16,
1,-0.02,0.16,
2,-0.02,0.16,
3,-0.02,0.16,
4,-0.02,0.16,
5,-0.02,0.16,
6,-0.02,0.16,
7,-0.02,0.16,
8,-0.02,0.16,
9,0.005,0.14,
10,0.02,0.14,
11,0.025,0.155,
12,0.04,0.145,
13,0.04,0.16,
14,0.045,0.175,
15,0.075,0.155,
16,0.09,0.135,
17,0.09,0.13,
18,0.095,0.13,
19,0.09,0.155,
20,0.11,0.175,
21,0.13,0.17,
22,0.13,0.16,
23,0.14,0.145,
24,0.13,0.12,
25,0.12,0.13,
26,0.125,0.135,
27,0.13,0.165,
28,0.15,0.175,
29,0.14,0.195,
30,0.12,0.2,
31,0.135,0.17,
32,0.135,0.17,
33,0.155,0.165,
34,0.165,0.155,
35,0.165,0.13,
36,0.135,0.115,
37,0.125,0.135,
38,0.13,0.145,
39,0.125,0.16,
40,0.11,0.18,
41,0.1,0.185,
42,0.08,0.175,
43,0.06,0.155,
44,0.075,0.16,
45,0.085,0.155,
46,0.09,0.13,
47,0.07,0.105,
48,0.045,0.1,
49,0.02,0.1,
50,0.01,0.125,
51,0.005,0.14,
52,-0.01,0.14,
53,-0.045,0.11,
54,-0.065,0.095,
55,-0.07,0.1,
56,-0.08,0.11,
57,-0.07,0.13,
58,-0.055,0.125,
59,-0.08,0.145,
60,-0.115,0.14,
61,-0.13,0.155,
62,-0.105,0.14,
63,-0.08,0.13,
64,-0.07,0.12,
65,-0.085,0.105,
66,-0.11,0.105,
67,-0.12,0.115,
68,-0.12,0.14,
69,-0.105,0.125,
70,-0.09,0.115,
71,-0.1,0.095,
72,-0.11,0.09,
73,-0.125,0.105,
74,-0.125,0.11,
75,-0.105,0.125,
76,-0.12,0.11,
77,-0.085,0.09,
78,-0.1,0.05,
79,-0.1,0.045,
80,-0.105,0.055,
81,-0.105,0.085,
82,-0.115,0.11,
83,-0.115,0.1,
84,-0.11,0.11,+
85,-0.135,0.095,
86,-0.135,0.09,
87,-0.12,0.1,
88,-0.12,0.115,
89,-0.12,0.105,
90,-0.115,0.105,
91,-0.125,0.105,
92,-0.125,0.12,
93,-0.12,0.14,
94,-0.1,0.12,
95,-0.1,0.11,
96,-0.11,0.095,
97,-0.12,0.09,
98,-0.115,0.09,
99,-0.115,0.085,
100,-0.105,0.075,
101,-0.095,0.075,
102,-0.125,0.065,
103,-0.14,0.07,
104,-0.125,0.09,
105,-0.11,0.105,
106,-0.09,0.12,
107,-0.1,0.105,
108,-0.12,0.105,
109,-0.13,0.145,
110,-0.14,0.175,
111,-0.14,0.19,
112,-0.115,0.175,
113,-0.1,0.14,
114,-0.11,0.1,
115,-0.11,0.09,
116,-0.085,0.105,
117,-0.065,0.12,
118,-0.04,0.11,
119,-0.035,0.095,
120,-0.055,0.065,
121,-0.075,0.075,
122,-0.055,0.105,
123,-0.03,0.14,
124,0.0,0.135,
125,-0.02,0.125,
126,-0.045,0.11,
127,-0.06,0.11,
128,-0.045,0.115,
129,-0.03,0.105,
130,-0.025,0.075,
131,-0.02,0.05,
132,-0.025,0.02,
133,-0.06,0.04,
134,-0.07,0.06,
135,-0.05,0.09,
136,-0.045,0.09,
137,-0.055,0.065,
138,-0.09,0.06,
139,-0.105,0.055,
140,-0.11,0.05,
141,-0.11,0.055,
142,-0.09,0.05,
143,-0.095,0.045,
144,-0.09,0.06,
145,-0.09,0.08,
146,-0.07,0.095,
147,-0.06,0.09,
148,-0.065,0.075,
149,-0.08,0.06,
150,-0.1,0.035,
151,-0.115,0.05,
152,-0.125,0.055,
153,-0.13,0.055,
154,-0.14,0.055,
155,-0.16,0.05,
156,-0.16,0.055,
157,-0.165,0.06,
158,-0.185,0.075,
159,-0.175,0.12,
160,-0.185,0.13,
161,-0.185,0.14,
162,-0.195,0.17,
163,-0.2,0.175,
164,-0.19,0.18,
165,-0.19,0.15,
166,-0.185,0.125,
167,-0.18,0.095,
168,-0.185,0.08,
169,-0.19,0.05,
170,-0.19,0.045,
171,-0.185,0.05,
172,-0.175,0.065,
173,-0.19,0.075,
174,-0.19,0.09,
175,-0.2,0.09,
176,-0.195,0.09,
177,-0.2,0.12,
178,-0.21,0.135,
179,-0.24,0.165,
180,-0.26,0.17,
181,-0.25,0.18,
182,-0.215,0.205,
183,-0.115,0.21,
184,0.01,0.215,
185,0.17,0.21,
186,0.375,0.215,
187,0.6,0.235,
188,0.85,0.235,
189,1.08,0.205,N
190,1.195,0.12,
191,1.15,-0.005,
192,0.9,-0.12,
193,0.55,-0.155,
194,0.115,-0.12,
195,-0.34,-0.095,
196,-0.71,-0.08,
197,-0.85,-0.085,
198,-0.8,-0.085,
199,-0.68,-0.07,
200,-0.555,-0.055,
201,-0.445,-0.035,
202,-0.375,-0.02,
203,-0.32,-0.01,
204,-0.285,-0.01,
205,-0.255,0.005,
206,-0.235,0.01,
207,-0.215,0.05,
208,-0.22,0.08,
209,-0.22,0.07,
210,-0.235,0.05,
211,-0.21,0.05,
212,-0.2,0.07,
213,-0.205,0.09,
214,-0.2,0.105,
215,-0.205,0.09,
216,-0.21,0.095,
217,-0.225,0.1,
218,-0.21,0.12,
219,-0.19,0.125,
220,-0.18,0.115,
221,-0.195,0.1,
222,-0.205,0.095,
223,-0.21,0.11,
224,-0.21,0.105,
225,-0.2,0.125,
226,-0.195,0.115,
227,-0.205,0.115,
228,-0.215,0.11,
229,-0.205,0.105,
230,-0.205,0.125,
231,-0.175,0.155,
232,-0.175,0.145,
233,-0.16,0.115,
234,-0.16,0.075,
235,-0.14,0.065,
236,-0.15,0.08,
237,-0.125,0.115,
238,-0.12,0.135,
239,-0.125,0.15,
240,-0.145,0.185,
241,-0.145,0.205,
242,-0.125,0.205,
243,-0.09,0.17,
244,-0.06,0.1,
245,-0.07,0.07,
246,-0.07,0.075,
247,-0.075,0.105,
248,-0.06,0.12,
249,-0.04,0.12,
250,-0.015,0.095,
251,-0.02,0.08,
252,-0.02,0.09,
253,0.005,0.11,
254,0.025,0.12,
255,0.04,0.125,
256,0.04,0.13,
257,0.05,0.135,
258,0.025,0.125,
259,0.025,0.115,
260,0.035,0.13,
261,0.06,0.14,
262,0.085,0.125,
263,0.09,0.11,
264,0.07,0.13,
265,0.065,0.125,
266,0.07,0.135,
267,0.095,0.155,
268,0.11,0.15,
269,0.105,0.145,
270,0.09,0.135,
271,0.075,0.145,
272,0.075,0.16,
273,0.08,0.175,
274,0.09,0.16,
275,0.085,0.16,
276,0.055,0.15,
277,0.035,0.155,
278,0.055,0.175,
279,0.055,0.185,
280,0.045,0.22,
281,0.025,0.235,
282,0.0,0.225,
283,-0.005,0.2,
284,-0.02,0.185,
285,-0.035,0.175,
286,-0.045,0.16,
287,-0.06,0.145,
288,-0.085,0.105,
289,-0.105,0.095,
290,-0.115,0.07,
291,-0.125,0.075,
292,-0.12,0.065,
293,-0.13,0.06,
294,-0.155,0.055,
295,-0.16,0.08,
296,-0.17,0.09,
297,-0.165,0.105,
298,-0.175,0.095,
299,-0.165,0.08,
300,-0.19,0.09,
301,-0.205,0.08,
302,-0.205,0.1,
303,-0.2,0.115,
304,-0.205,0.12,
305,-0.21,0.125,
306,-0.22,0.125,
307,-0.235,0.14,
308,-0.225,0.14,
309,-0.205,0.16,
310,-0.195,0.165,
311,-0.2,0.155,
312,-0.21,0.11,
313,-0.23,0.105,
314,-0.215,0.105,
315,-0.205,0.105,
316,-0.2,0.1,
317,-0.19,0.08,
318,-0.21,0.05,
319,-0.22,0.07,
320,-0.215,0.1,
321,-0.215,0.135,
322,-0.195,0.13,
323,-0.195,0.115,
324,-0.195,0.095,
325,-0.21,0.075,
326,-0.21,0.09,
327,-0.205,0.1,
328,-0.195,0.105,
329,-0.2,0.095,
330,-0.2,0.095,
331,-0.205,0.11,
332,-0.205,0.125,
333,-0.195,0.145,
334,-0.18,0.135,
335,-0.185,0.115,
336,-0.2,0.075,
337,-0.2,0.055,
338,-0.165,0.055,
339,-0.165,0.08,
340,-0.145,0.11,
341,-0.155,0.125,
342,-0.165,0.115,
343,-0.15,0.105,
344,-0.145,0.095,
345,-0.145,0.105,
346,-0.15,0.1,
347,-0.165,0.095,
348,-0.165,0.095,
349,-0.17,0.12,
350,-0.15,0.125,
351,-0.145,0.135,
352,-0.13,0.13,
353,-0.14,0.12,
354,-0.145,0.105,
355,-0.145,0.125,
356,-0.135,0.16,
357,-0.13,0.17,
358,-0.115,0.145,
359,-0.11,0.115,
360,-0.115,0.07,
361,-0.12,0.04,
362,-0.11,0.03,
363,-0.12,0.045,
364,-0.12,0.045,
365,-0.13,0.05,
366,-0.135,0.03,
367,-0.14,0.05,
368,-0.145,0.05,
369,-0.14,0.055,
370,-0.125,0.065,
371,-0.12,0.05,
372,-0.14,0.05,
373,-0.17,0.04,
374,-0.18,0.03,
375,-0.18,0.05,
376,-0.175,0.04,
377,-0.185,0.025,
378,-0.19,0.025,
379,-0.205,0.025,
380,-0.185,0.04,
381,-0.165,0.06,
382,-0.145,0.07,
383,-0.16,0.08,
384,-0.19,0.1,
385,-0.215,0.115,
386,-0.225,0.13,
387,-0.235,0.12,
388,-0.245,0.095,
389,-0.275,0.075,
390,-0.28,0.07,
391,-0.275,0.08,
392,-0.27,0.09,
393,-0.235,0.1,
394,-0.24,0.075,
395,-0.255,0.075,
396,-0.265,0.095,
397,-0.265,0.1,
398,-0.255,0.09,
399,-0.26,0.095,
400,-0.25,0.085,
401,-0.25,0.065,
402,-0.25,0.03,
403,-0.25,0.03,
404,-0.255,0.065,
405,-0.25,0.09,
406,-0.24,0.105,
407,-0.24,0.095,
408,-0.24,0.07,
409,-0.26,0.055,
410,-0.255,0.065,
411,-0.255,0.085,
412,-0.285,0.11,
413,-0.32,0.115,
414,-0.335,0.135,
415,-0.36,0.14,
416,-0.31,0.17,
417,-0.25,0.205,
418,-0.16,0.2,
419,-0.035,0.19,
420,0.1,0.185,
421,0.28,0.21,
422,0.52,0.215,
423,0.76,0.22,
424,0.96,0.175,
425,1.08,0.11,N
426,1.055,0.0,
427,0.905,-0.09,
428,0.635,-0.14,
429,0.325,-0.13,
430,-0.06,-0.115,
431,-0.5,-0.11,
432,-0.81,-0.115,
433,-0.88,-0.115,
434,-0.825,-0.09,
435,-0.74,-0.07,
436,-0.65,-0.07,
437,-0.55,-0.1,
438,-0.475,-0.085,
439,-0.41,-0.06,
440,-0.37,-0.005,
441,-0.335,0.03,
442,-0.32,0.04,
443,-0.3,0.065,
444,-0.305,0.07,
445,-0.3,0.07,
446,-0.28,0.095,
447,-0.275,0.08,
448,-0.275,0.06,
449,-0.29,0.03,
450,-0.285,0.035,
451,-0.28,0.02,
452,-0.265,0.04,
453,-0.26,0.035,
454,-0.25,0.05,
455,-0.255,0.045,
456,-0.27,0.035,
457,-0.265,0.04,
458,-0.255,0.045,
459,-0.245,0.085,
460,-0.245,0.07,
461,-0.285,0.055,
462,-0.275,0.05,
463,-0.26,0.04,
464,-0.25,0.055,
465,-0.235,0.07,
466,-0.24,0.07,
467,-0.255,0.07,
468,-0.225,0.06,
469,-0.235,0.055,
470,-0.225,0.065,
471,-0.21,0.075,
472,-0.2,0.055,
473,-0.195,0.045,
474,-0.205,0.025,
475,-0.205,0.035,
476,-0.19,0.06,
477,-0.16,0.075,
478,-0.13,0.08,
479,-0.135,0.065,
480,-0.155,0.045,
481,-0.165,0.055,
482,-0.16,0.065,
483,-0.145,0.085,
484,-0.14,0.08,
485,-0.135,0.085,
486,-0.13,0.095,
487,-0.12,0.105,
488,-0.105,0.13,
489,-0.075,0.12,
490,-0.06,0.125,
491,-0.035,0.1,
492,-0.04,0.085,
493,-0.04,0.065,
494,-0.005,0.06,
495,0.01,0.065,
496,0.015,0.065,
497,0.015,0.065,
498,0.005,0.065,
499,0.01,0.065,
500,0.035,0.05,
501,0.04,0.04,
502,0.06,0.03,
503,0.06,0.045,
504,0.05,0.055,
505,0.03,0.07,
506,0.045,0.085,
507,0.04,0.105,
508,0.05,0.09,
509,0.05,0.08,
510,0.05,0.06,
511,0.045,0.055,
512,0.055,0.06,
513,0.06,0.075,
514,0.06,0.07,
515,0.055,0.065,
516,0.035,0.065,
517,0.015,0.075,
518,0.005,0.1,
519,0.005,0.11,
520,-0.01,0.135,
521,-0.035,0.13,
522,-0.08,0.125,
523,-0.095,0.14,
524,-0.085,0.125,
525,-0.08,0.115,
526,-0.085,0.055,
527,-0.1,0.02,
528,-0.125,-0.025,
529,-0.145,-0.02,
530,-0.15,0.01,
531,-0.16,0.03,
532,-0.18,0.05,
533,-0.185,0.05,
534,-0.195,0.05,
535,-0.2,0.035,
536,-0.205,0.04,
537,-0.195,0.06,
538,-0.19,0.075,
539,-0.19,0.08,
540,-0.2,0.065,
541,-0.23,0.055,
542,-0.215,0.06,
543,-0.205,0.05,
544,-0.205,0.06,
545,-0.22,0.055,
546,-0.21,0.06,
547,-0.23,0.07,
548,-0.24,0.105,
549,-0.235,0.125,
550,-0.245,0.135,
551,-0.235,0.08,
552,-0.25,0.02,
553,-0.25,-0.03,
554,-0.23,-0.025,
555,-0.225,-0.01,
556,-0.22,-0.005,
557,-0.235,-0.005,
558,-0.24,-0.005,
559,-0.25,0.0,
560,-0.25,0.015,
561,-0.23,0.025,
562,-0.215,0.04,
563,-0.22,0.03,
564,-0.225,0.015,
565,-0.225,0.02,
566,-0.215,0.025,
567,-0.2,0.04,
568,-0.2,0.04,
569,-0.215,0.04,
570,-0.23,0.04,
571,-0.24,0.05,
572,-0.23,0.085,
573,-0.205,0.09,
574,-0.2,0.105,
575,-0.205,0.07,
576,-0.235,0.04,
577,-0.265,0.05,
578,-0.25,0.04,
579,-0.23,0.055,
580,-0.205,0.05,
581,-0.205,0.04,
582,-0.23,0.025,
583,-0.235,0.015,
584,-0.225,0.0,
585,-0.195,0.02,
586,-0.185,0.025,
587,-0.165,0.015,
588,-0.17,0.005,
589,-0.17,0.01,
590,-0.185,0.04,
591,-0.185,0.065,
592,-0.185,0.07,
593,-0.175,0.07,
594,-0.165,0.05,
595,-0.155,0.055,
596,-0.16,0.065,
597,-0.15,0.07,
598,-0.14,0.05,
599,-0.155,0.015,
600,-0.165,0.005,
601,-0.185,0.01,
602,-0.195,0.045,
603,-0.19,0.065,
604,-0.21,0.08,
605,-0.215,0.07,
606,-0.22,0.045,
607,-0.19,0.02,
608,-0.18,-0.015,
609,-0.185,-0.025,
610,-0.185,-0.055,
611,-0.195,-0.045,
612,-0.22,-0.05,
613,-0.23,-0.025,
614,-0.23,-0.025,
615,-0.235,-0.04,
616,-0.23,-0.03,
617,-0.24,-0.015,
618,-0.255,0.005,
619,-0.255,0.01,
620,-0.235,0.03,
621,-0.24,0.03,
622,-0.25,0.02,
623,-0.29,0.005,
624,-0.315,-0.005,
625,-0.325,-0.005,
626,-0.315,0.0,
627,-0.3,0.015,
628,-0.3,0.03,
629,-0.295,0.035,
630,-0.315,0.04,
631,-0.31,0.04,
632,-0.31,0.03,
633,-0.3,0.03,
634,-0.295,0.02,
635,-0.305,0.015,
636,-0.335,0.005,
637,-0.35,0.025,
638,-0.34,0.04,
639,-0.32,0.035,
640,-0.31,0.045,
641,-0.295,0.045,
642,-0.305,0.025,
643,-0.31,0.01,
644,-0.305,0.02,
645,-0.3,0.015,
646,-0.31,0.035,
647,-0.335,0.065,
648,-0.375,0.105,
649,-0.405,0.135,
650,-0.415,0.165,
651,-0.375,0.175,
652,-0.325,0.155,
653,-0.22,0.13,
654,-0.09,0.095,
655,0.065,0.085,
656,0.285,0.13,
657,0.515,0.155,
658,0.755,0.155,
659,0.94,0.13,N
660,0.995,0.05,
661,0.92,-0.04,
662,0.725,-0.11,
663,0.445,-0.105,
664,0.095,-0.1,
665,-0.34,-0.11,
666,-0.705,-0.12,
667,-0.885,-0.105,
668,-0.885,-0.095,
669,-0.805,-0.1,
670,-0.75,-0.105,
671,-0.7,-0.115,
672,-0.6,-0.12,
673,-0.515,-0.13,
674,-0.44,-0.12,
675,-0.415,-0.09,
676,-0.41,-0.05,
677,-0.395,-0.045,
678,-0.385,-0.035,
679,-0.375,-0.01,
680,-0.365,0.02,
681,-0.33,0.035,
682,-0.315,0.03,
683,-0.32,0.015,
684,-0.34,0.0,
685,-0.345,0.03,
686,-0.335,0.03,
687,-0.315,0.06,
688,-0.3,0.035,
689,-0.31,0.01,
690,-0.33,0.0,
691,-0.355,0.01,
692,-0.335,0.04,
693,-0.305,0.05,
694,-0.295,0.015,
695,-0.305,0.015,
696,-0.32,-0.005,
697,-0.325,0.0,
698,-0.315,0.03,
699,-0.29,0.035,
700,-0.285,0.04,
701,-0.285,0.04,
702,-0.285,0.03,
703,-0.275,0.025,
704,-0.26,0.01,
705,-0.25,0.01,
706,-0.245,0.0,
707,-0.245,0.005,
708,-0.24,-0.01,
709,-0.23,-0.005,
710,-0.22,0.0,
711,-0.2,0.02,
712,-0.195,0.035,
713,-0.185,0.04,
714,-0.2,0.04,
715,-0.19,0.015,
716,-0.175,0.03,
717,-0.16,0.03,
718,-0.135,0.015,
719,-0.11,0.005,
720,-0.1,-0.005,
721,-0.1,0.005,
722,-0.09,0.045,
723,-0.095,0.045,
724,-0.095,0.035,
725,-0.08,0.015,
726,-0.07,0.01,
727,-0.06,0.025,
728,-0.045,0.045,
729,-0.025,0.05,
730,-0.01,0.02,
731,0.01,-0.005,
732,-0.005,-0.005,
733,-0.025,0.015,
734,-0.035,0.035,
735,-0.02,0.07,
736,0.0,0.07,
737,-0.015,0.045,
738,-0.025,0.02,
739,0.005,0.02,
740,0.01,0.04,
741,0.035,0.055,
742,0.03,0.04,
743,0.015,0.03,
744,-0.015,0.005,
745,-0.035,0.005,
746,-0.035,0.045,
747,-0.05,0.055,
748,-0.075,0.07,
749,-0.1,0.06,
750,-0.12,0.065,
751,-0.13,0.045,
752,-0.14,0.05,
753,-0.115,0.045,
754,-0.11,0.05,
755,-0.135,0.025,
756,-0.165,0.01,
757,-0.18,-0.015,
758,-0.19,0.0,
759,-0.2,0.01,
760,-0.205,0.02,
761,-0.22,0.005,
762,-0.24,-0.01,
763,-0.28,0.0,
764,-0.305,0.01,
765,-0.315,0.025,
766,-0.305,0.045,
767,-0.3,0.055,
768,-0.29,0.045,
769,-0.315,0.055,
770,-0.305,0.045,
771,-0.305,0.05,
772,-0.305,0.03,
773,-0.315,0.01,
774,-0.335,-0.02,
775,-0.34,-0.015,
776,-0.33,0.0,
777,-0.32,0.025,
778,-0.305,0.035,
779,-0.315,0.015,
780,-0.31,0.015,
781,-0.31,0.025,
782,-0.29,0.045,
783,-0.28,0.075,
784,-0.275,0.065,
785,-0.295,0.045,
786,-0.305,0.025,
787,-0.315,0.03,
788,-0.295,0.04,
789,-0.3,0.04,
790,-0.275,0.01,
791,-0.28,0.01,
792,-0.26,0.01,
793,-0.27,0.035,
794,-0.255,0.04,
795,-0.26,0.03,
796,-0.25,0.0,
797,-0.265,-0.01,
798,-0.275,-0.015,
799,-0.295,0.01,
800,-0.275,0.025,
801,-0.265,0.02,
802,-0.235,0.025,
803,-0.27,0.02,
804,-0.29,0.01,
805,-0.29,0.035,
806,-0.28,0.045,
807,-0.25,0.04,
808,-0.21,0.04,
809,-0.215,0.02,
810,-0.24,0.015,
811,-0.275,0.01,
812,-0.285,0.01,
813,-0.26,0.04,
814,-0.24,0.035,
815,-0.225,0.03,
816,-0.25,0.015,
817,-0.265,0.025,
818,-0.25,0.045,
819,-0.235,0.05,
820,-0.23,0.045,
821,-0.235,0.045,
822,-0.25,0.04,
823,-0.23,0.04,
824,-0.23,0.055,
825,-0.215,0.06,
826,-0.195,0.065,
827,-0.2,0.065,
828,-0.21,0.04,
829,-0.205,-0.01,
830,-0.23,-0.045,
831,-0.225,-0.04,
832,-0.21,-0.045,
833,-0.2,-0.02,
834,-0.235,-0.01,
835,-0.265,-0.015,
836,-0.27,-0.005,
837,-0.26,-0.02,
838,-0.24,-0.02,
839,-0.225,-0.02,
840,-0.235,-0.03,
841,-0.24,-0.015,
842,-0.24,-0.02,
843,-0.23,-0.025,
844,-0.245,-0.05,
845,-0.28,-0.055,
846,-0.31,-0.06,
847,-0.285,-0.05,
848,-0.255,-0.01,
849,-0.235,0.005,
850,-0.255,0.02,
851,-0.28,0.03,
852,-0.285,0.02,
853,-0.305,0.005,
854,-0.32,0.0,
855,-0.355,0.02,
856,-0.36,0.025,
857,-0.355,0.015,
858,-0.345,0.01,
859,-0.345,0.0,
860,-0.355,0.025,
861,-0.34,0.04,
862,-0.33,0.04,
863,-0.315,0.05,
864,-0.33,0.03,
865,-0.355,0.045,
866,-0.375,0.07,
867,-0.365,0.085,
868,-0.345,0.045,
869,-0.34,0.005,
870,-0.35,-0.015,
871,-0.35,-0.04,
872,-0.35,-0.03,
873,-0.34,-0.01,
874,-0.34,-0.02,
875,-0.345,-0.025,
876,-0.38,-0.01,
877,-0.39,0.0,
878,-0.42,0.05,
879,-0.45,0.085,
880,-0.43,0.1,
881,-0.405,0.105,
882,-0.35,0.085,
883,-0.265,0.09,
884,-0.12,0.095,
885,0.08,0.11,
886,0.325,0.125,
887,0.57,0.155,
888,0.78,0.14,
889,0.94,0.12,N
890,1.035,0.05,
891,0.96,-0.02,
892,0.77,-0.1,
893,0.46,-0.125,
894,0.065,-0.14,
895,-0.415,-0.12,
896,-0.765,-0.08,
897,-0.9,-0.065,
898,-0.865,-0.095,
899,-0.805,-0.135,
900,-0.74,-0.18,
901,-0.66,-0.155,
902,-0.555,-0.12,
903,-0.47,-0.08,
904,-0.43,-0.055,
905,-0.44,-0.05,
906,-0.445,-0.035,
907,-0.45,-0.035,
908,-0.42,-0.005,
909,-0.38,0.01,
910,-0.375,0.01,
911,-0.39,-0.005,
912,-0.395,-0.035,
913,-0.41,-0.025,
914,-0.42,0.02,
915,-0.41,0.05,
916,-0.385,0.05,
917,-0.37,0.01,
918,-0.355,-0.03,
919,-0.385,-0.04,
920,-0.4,-0.025,
921,-0.405,-0.005,
922,-0.38,-0.015,
923,-0.375,0.01,
924,-0.355,-0.005,
925,-0.34,0.0,
926,-0.335,0.03,
927,-0.36,0.04,
928,-0.37,0.045,
929,-0.365,0.01,
930,-0.35,-0.025,
931,-0.34,-0.02,
932,-0.355,-0.005,
933,-0.345,0.02,
934,-0.315,0.02,
935,-0.295,0.02,
936,-0.29,0.025,
937,-0.295,0.025,
938,-0.295,0.01,
939,-0.285,0.0,
940,-0.29,0.015,
941,-0.29,0.03,
942,-0.295,0.04,
943,-0.28,0.06,
944,-0.255,0.02,
945,-0.23,-0.025,
946,-0.185,-0.035,
947,-0.17,-0.04,
948,-0.185,-0.02,
949,-0.23,-0.01,
950,-0.255,-0.005,
951,-0.225,0.015,
952,-0.17,0.03,
953,-0.15,0.045,
954,-0.175,0.035,
955,-0.185,0.035,
956,-0.175,0.015,
957,-0.145,0.025,
958,-0.11,0.02,
959,-0.09,0.01,
960,-0.085,0.01,
961,-0.09,0.03,
962,-0.055,0.035,
963,-0.03,0.04,
964,0.005,0.01,
965,-0.03,0.0,
966,-0.07,-0.015,
967,-0.11,0.01,
968,-0.105,0.045,
969,-0.08,0.095,
970,-0.06,0.08,
971,-0.065,0.055,
972,-0.105,0.045,
973,-0.1,0.05,
974,-0.045,0.05,
975,-0.02,0.05,
976,-0.045,0.035,
977,-0.08,0.035,
978,-0.11,0.03,
979,-0.085,0.01,
980,-0.085,0.015,
981,-0.13,0.025,
982,-0.17,0.045,
983,-0.185,0.055,
984,-0.17,0.045,
985,-0.15,0.03,
986,-0.145,0.02,
987,-0.175,-0.005,
988,-0.225,-0.025,
989,-0.23,-0.025,
990,-0.18,-0.005,
991,-0.18,0.005,
992,-0.22,0.005,
993,-0.315,-0.015,
994,-0.355,-0.015,
995,-0.35,-0.02,
996,-0.335,-0.025,
997,-0.325,-0.01,
998,-0.29,0.005,
999,-0.28,0.03,
1000,-0.285,0.015,
1001,-0.31,-0.015,
1002,-0.345,-0.01,
1003,-0.38,0.02,
1004,-0.38,0.045,
1005,-0.36,0.06,
1006,-0.35,0.065,
1007,-0.33,0.075,
1008,-0.33,0.075,
1009,-0.315,0.08,
1010,-0.32,0.07,
1011,-0.335,0.01,
1012,-0.355,-0.04,
1013,-0.365,-0.085,
1014,-0.34,-0.095,
1015,-0.33,-0.065,
1016,-0.305,-0.03,
1017,-0.32,-0.025,
1018,-0.355,-0.035,
1019,-0.39,-0.045,
1020,-0.395,-0.02,
1021,-0.365,0.0,
1022,-0.325,0.03,
1023,-0.315,0.02,
1024,-0.325,0.015,
1025,-0.355,-0.01,
1026,-0.39,-0.015,
1027,-0.395,-0.015,
1028,-0.36,-0.01,
1029,-0.325,-0.025,
1030,-0.32,-0.025,
1031,-0.335,-0.035,
1032,-0.33,-0.02,
1033,-0.315,0.0,
1034,-0.285,0.02,
1035,-0.28,0.015,
1036,-0.3,0.0,
1037,-0.305,-0.005,
1038,-0.3,-0.01,
1039,-0.29,-0.015,
1040,-0.29,0.005,
1041,-0.305,0.015,
1042,-0.315,0.015,
1043,-0.32,0.0,
1044,-0.29,-0.005,
1045,-0.25,0.02,
1046,-0.2,0.05,
1047,-0.19,0.045,
1048,-0.215,0.04,
1049,-0.235,0.045,
1050,-0.25,0.035,
1051,-0.225,0.025,
1052,-0.185,0.02,
1053,-0.17,0.01,
1054,-0.19,-0.02,
1055,-0.245,-0.025,
1056,-0.25,-0.03,
1057,-0.24,-0.015,
1058,-0.24,-0.015,
1059,-0.265,-0.025,
1060,-0.31,-0.015,
1061,-0.335,-0.02,
1062,-0.34,-0.01,
1063,-0.315,-0.01,
1064,-0.31,0.015,
1065,-0.295,0.015,
1066,-0.3,-0.035,
1067,-0.3,-0.085,
1068,-0.29,-0.1,
1069,-0.28,-0.085,
1070,-0.295,-0.04,
1071,-0.325,-0.045,
1072,-0.325,-0.065,
1073,-0.32,-0.055,
1074,-0.3,-0.05,
1075,-0.29,-0.03,
1076,-0.275,-0.015,
1077,-0.275,-0.015,
1078,-0.3,-0.025,
1079,-0.335,-0.035,
1080,-0.375,-0.06,
1081,-0.365,-0.05,
1082,-0.365,-0.04,
1083,-0.36,-0.035,
1084,-0.355,-0.035,
1085,-0.39,-0.04,
1086,-0.405,-0.025,
1087,-0.37,0.005,
1088,-0.305,0.02,
1089,-0.305,0.035,
1090,-0.37,0.04,
1091,-0.435,0.035,
1092,-0.44,0.015,
1093,-0.41,-0.02,
1094,-0.365,-0.03,
1095,-0.355,-0.025,
1096,-0.37,0.0,
1097,-0.39,-0.01,
1098,-0.405,-0.005,
1099,-0.35,-0.04,
1100,-0.31,-0.05,
1101,-0.295,-0.055,
1102,-0.33,-0.04,
1103,-0.38,-0.015,
1104,-0.43,0.02,
1105,-0.4,0.05,
1106,-0.35,0.08,
1107,-0.25,0.09,
1108,-0.14,0.1,
1109,0.0,0.11,
1110,0.195,0.105,
1111,0.44,0.14,
1112,0.705,0.175,
1113,0.945,0.18,N
1114,1.105,0.145,
1115,1.11,0.045,
1116,0.895,-0.055,
1117,0.505,-0.105,
1118,0.06,-0.12,
1119,-0.405,-0.135,
1120,-0.795,-0.15,
1121,-0.97,-0.16,
1122,-0.985,-0.14,
1123,-0.935,-0.115,
1124,-0.865,-0.145,
1125,-0.785,-0.175,
1126,-0.7,-0.16,
1127,-0.635,-0.14,
1128,-0.595,-0.12,
1129,-0.545,-0.08,
1130,-0.48,-0.06,
1131,-0.42,-0.045,
1132,-0.42,-0.035,
1133,-0.445,0.0,
1134,-0.45,0.025,
1135,-0.455,0.035,
1136,-0.45,0.0,
1137,-0.445,-0.025,
1138,-0.455,-0.04,
1139,-0.45,-0.045,
1140,-0.435,-0.04,
1141,-0.415,-0.005,
1142,-0.41,0.03,
1143,-0.385,0.045,
1144,-0.37,0.025,
1145,-0.36,-0.025,
1146,-0.375,-0.065,
1147,-0.39,-0.08,
1148,-0.37,-0.07,
1149,-0.36,-0.075,
1150,-0.345,-0.06,
1151,-0.34,-0.055,
1152,-0.335,-0.045,
1153,-0.355,-0.02,
1154,-0.38,0.01,
1155,-0.405,0.015,
1156,-0.42,0.005,
1157,-0.395,-0.005,
1158,-0.38,0.0,
1159,-0.36,0.005,
1160,-0.36,-0.005,
1161,-0.355,0.01,
1162,-0.37,0.015,
1163,-0.355,0.01,
1164,-0.36,-0.02,
1165,-0.355,-0.055,
1166,-0.37,-0.055,
1167,-0.33,-0.01,
1168,-0.29,-0.015,
1169,-0.285,-0.025,
1170,-0.28,-0.005,
1171,-0.29,0.025,
1172,-0.29,0.05,
1173,-0.27,0.045,
1174,-0.24,0.005,
1175,-0.195,-0.015,
1176,-0.18,-0.015,
1177,-0.195,0.005,
1178,-0.23,0.01,
1179,-0.235,0.005,
1180,-0.2,0.015,
1181,-0.175,-0.01,
1182,-0.15,-0.02,
1183,-0.135,-0.01,
1184,-0.125,0.01,
1185,-0.14,0.02,
1186,-0.16,0.01,
1187,-0.17,-0.005,
1188,-0.18,0.0,
1189,-0.165,-0.005,
1190,-0.135,0.005,
1191,-0.1,0.0,
1192,-0.105,-0.02,
1193,-0.11,-0.025,
1194,-0.09,-0.005,
1195,-0.085,0.02,
1196,-0.07,0.045,
1197,-0.05,0.055,
1198,-0.025,0.04,
1199,-0.02,0.035,
1200,-0.03,0.025,
1201,-0.07,0.025,
1202,-0.085,0.035,
1203,-0.105,0.04,
1204,-0.115,0.04,
1205,-0.135,0.03,
1206,-0.145,0.04,
1207,-0.155,0.025,
1208,-0.165,0.03,
1209,-0.205,0.01,
1210,-0.25,0.0,
1211,-0.28,-0.01,
1212,-0.27,-0.005,
1213,-0.265,-0.01,
1214,-0.27,0.0,
1215,-0.31,0.01,
1216,-0.325,0.005,
1217,-0.33,0.01,
1218,-0.325,-0.005,
1219,-0.32,0.005,
1220,-0.33,0.02,
1221,-0.335,0.05,
1222,-0.335,0.05,
1223,-0.375,0.05,
1224,-0.365,0.075,
1225,-0.355,0.09,
1226,-0.34,0.09,
1227,-0.31,0.055,
1228,-0.3,0.025,
1229,-0.33,0.02,
1230,-0.345,0.04,
1231,-0.34,0.04,
1232,-0.33,0.025,
1233,-0.3,0.0,
1234,-0.275,-0.01,
1235,-0.3,-0.02,
1236,-0.325,-0.05,
1237,-0.335,-0.065,
1238,-0.315,-0.06,
1239,-0.285,-0.04,
1240,-0.27,-0.04,
1241,-0.285,-0.025,
1242,-0.3,-0.025,
1243,-0.295,0.0,
1244,-0.285,0.01,
1245,-0.28,0.0,
1246,-0.275,-0.005,
1247,-0.295,-0.01,
1248,-0.295,-0.01,
1249,-0.305,0.005,
1250,-0.29,0.03,
1251,-0.285,0.02,
1252,-0.285,0.02,
1253,-0.28,-0.005,
1254,-0.28,0.0,
1255,-0.295,0.015,
1256,-0.305,0.04,
1257,-0.3,0.04,
1258,-0.29,0.02,
1259,-0.29,0.02,
1260,-0.315,0.03,
1261,-0.295,0.025,
1262,-0.27,0.05,
1263,-0.25,0.06,
1264,-0.255,0.045,
1265,-0.27,0.03,
1266,-0.27,0.045,
1267,-0.26,0.07,
1268,-0.225,0.115,
1269,-0.215,0.125,
1270,-0.205,0.14,
1271,-0.19,0.11,
1272,-0.195,0.08,
1273,-0.205,0.045,
1274,-0.185,0.01,
1275,-0.17,-0.005,
1276,-0.165,-0.01,
1277,-0.17,-0.01,
1278,-0.185,-0.025,
1279,-0.185,-0.03,
1280,-0.18,-0.025,
1281,-0.165,0.005,
1282,-0.19,0.02,
1283,-0.205,0.025,
1284,-0.2,0.03,
1285,-0.2,0.005,
1286,-0.195,-0.015,
1287,-0.205,-0.02,
1288,-0.245,-0.03,
1289,-0.25,-0.035,
1290,-0.26,-0.03,
1291,-0.25,-0.02,
1292,-0.245,0.015,
1293,-0.235,0.02,
1294,-0.235,0.01,
1295,-0.23,-0.015,
1296,-0.245,-0.02,
1297,-0.23,-0.005,
1298,-0.22,0.03,
1299,-0.205,0.03,
1300,-0.21,0.015,
1301,-0.245,-0.01,
1302,-0.27,-0.005,
1303,-0.3,0.015,
1304,-0.3,0.055,
1305,-0.3,0.05,
1306,-0.305,0.035,
1307,-0.305,0.025,
1308,-0.3,0.025,
1309,-0.305,0.075,
1310,-0.285,0.095,
1311,-0.28,0.065,
1312,-0.265,0.03,
1313,-0.28,-0.01,
1314,-0.28,-0.03,
1315,-0.27,-0.025,
1316,-0.26,0.0,
1317,-0.265,0.01,
1318,-0.275,0.02,
1319,-0.28,0.02,
1320,-0.29,0.02,
1321,-0.28,0.025,
1322,-0.27,0.03,
1323,-0.255,0.025,
1324,-0.27,0.005,
1325,-0.295,0.01,
1326,-0.335,0.035,
1327,-0.35,0.085,
1328,-0.335,0.13,
1329,-0.27,0.17,
1330,-0.17,0.16,
1331,-0.025,0.115,
1332,0.165,0.105,
1333,0.415,0.13,
1334,0.695,0.195,
1335,0.965,0.21,
1336,1.145,0.185,N
1337,1.175,0.1,
1338,1.005,0.01,
1339,0.685,-0.075,
1340,0.255,-0.105,
1341,-0.225,-0.1,
1342,-0.67,-0.105,
1343,-0.86,-0.1,
1344,-0.845,-0.105,
1345,-0.78,-0.115,
1346,-0.695,-0.135,
1347,-0.6,-0.13,
1348,-0.5,-0.095,
1349,-0.44,-0.07,
1350,-0.405,-0.045,
1351,-0.375,-0.015,
1352,-0.36,0.025,
1353,-0.32,0.055,
1354,-0.305,0.055,
1355,-0.31,0.05,
1356,-0.325,0.05,
1357,-0.31,0.035,
1358,-0.295,0.005,
1359,-0.29,0.01,
1360,-0.295,0.025,
1361,-0.31,0.05,
1362,-0.305,0.045,
1363,-0.3,0.005,
1364,-0.295,0.0,
1365,-0.275,-0.005,
1366,-0.26,-0.005,
1367,-0.255,-0.005,
1368,-0.25,0.0,
1369,-0.25,0.03,
1370,-0.24,0.06,
1371,-0.22,0.07,
1372,-0.235,0.06,
1373,-0.24,0.055,
1374,-0.245,0.035,
1375,-0.24,0.045,
1376,-0.205,0.075,
1377,-0.195,0.07,
1378,-0.19,0.06,
1379,-0.195,0.06,
1380,-0.195,0.035,
1381,-0.19,0.01,
1382,-0.17,0.035,
1383,-0.17,0.045,
1384,-0.155,0.07,
1385,-0.17,0.07,
1386,-0.16,0.07,
1387,-0.14,0.07,
1388,-0.115,0.08,
1389,-0.1,0.06,
1390,-0.1,0.07,
1391,-0.085,0.07,
1392,-0.08,0.065,
1393,-0.06,0.06,
1394,-0.03,0.045,
1395,-0.01,0.05,
1396,-0.01,0.035,
1397,-0.025,0.04,
1398,-0.04,0.06,
1399,-0.025,0.08,
1400,0.01,0.095,
1401,0.04,0.09,
1402,0.06,0.075,
1403,0.06,0.06,
1404,0.055,0.08,
1405,0.055,0.095,
1406,0.065,0.09,
1407,0.07,0.09,
1408,0.08,0.085,
1409,0.075,0.075,
1410,0.075,0.08,
1411,0.09,0.105,
1412,0.11,0.13,
1413,0.115,0.115,
1414,0.12,0.13,
1415,0.11,0.13,
1416,0.095,0.105,
1417,0.08,0.075,
1418,0.07,0.07,
1419,0.055,0.09,
1420,0.055,0.09,
1421,0.055,0.085,
1422,0.045,0.075,
1423,0.045,0.08,
1424,0.04,0.085,
1425,0.025,0.08,
1426,-0.005,0.075,
1427,-0.035,0.055,
1428,-0.05,0.065,
1429,-0.07,0.07,
1430,-0.08,0.095,
1431,-0.095,0.1,
1432,-0.115,0.1,
1433,-0.135,0.09,
1434,-0.145,0.085,
1435,-0.135,0.1,
1436,-0.12,0.12,
1437,-0.125,0.115,
1438,-0.12,0.1,
1439,-0.155,0.075,
1440,-0.145,0.065,
1441,-0.16,0.095,
1442,-0.16,0.115,
1443,-0.155,0.125,
1444,-0.165,0.115,
1445,-0.17,0.105,
1446,-0.17,0.11,
1447,-0.18,0.145,
1448,-0.165,0.155,
1449,-0.14,0.16,
1450,-0.135,0.09,
1451,-0.12,0.02,
1452,-0.135,0.005,
1453,-0.135,0.02,
1454,-0.13,0.055,
1455,-0.11,0.07,
1456,-0.12,0.055,
1457,-0.135,0.05,
1458,-0.16,0.065,
1459,-0.16,0.075,
1460,-0.155,0.085,
1461,-0.15,0.085,
1462,-0.14,0.09,
1463,-0.145,0.09,
1464,-0.155,0.115,
1465,-0.155,0.125,
1466,-0.145,0.15,
1467,-0.135,0.12,
1468,-0.135,0.12,
1469,-0.13,0.09,
1470,-0.125,0.075,
1471,-0.135,0.095,
1472,-0.12,0.135,
1473,-0.105,0.135,
1474,-0.11,0.085,
1475,-0.13,0.055,
1476,-0.145,0.075,
1477,-0.15,0.085,
1478,-0.125,0.125,
1479,-0.11,0.14,
1480,-0.115,0.15,
1481,-0.125,0.15,
1482,-0.12,0.145,
1483,-0.11,0.125,
1484,-0.105,0.09,
1485,-0.095,0.095,
1486,-0.08,0.115,
1487,-0.075,0.125,
1488,-0.06,0.12,
1489,-0.065,0.12,
1490,-0.045,0.13,
1491,-0.03,0.145,
1492,-0.045,0.145,
1493,-0.035,0.13,
1494,-0.055,0.11,
1495,-0.06,0.08,
1496,-0.065,0.06,
1497,-0.07,0.05,
1498,-0.08,0.05,
1499,-0.07,0.045,
1500,-0.1,0.06,
1501,-0.095,0.06,
1502,-0.09,0.095,
1503,-0.085,0.085,
1504,-0.085,0.095,
1505,-0.1,0.09,
1506,-0.12,0.08,
1507,-0.13,0.105,
1508,-0.12,0.105,
1509,-0.105,0.095,
1510,-0.115,0.08,
1511,-0.12,0.075,
1512,-0.13,0.09,
1513,-0.14,0.1,
1514,-0.125,0.115,
1515,-0.095,0.12,
1516,-0.095,0.115,
1517,-0.105,0.09,
1518,-0.12,0.06,
1519,-0.145,0.085,
1520,-0.15,0.08,
1521,-0.155,0.1,
1522,-0.165,0.1,
1523,-0.18,0.105,
1524,-0.2,0.105,
1525,-0.19,0.11,
1526,-0.18,0.125,
1527,-0.18,0.125,
1528,-0.175,0.135,
1529,-0.185,0.125,
1530,-0.19,0.105,
1531,-0.19,0.135,
1532,-0.185,0.14,
1533,-0.18,0.145,
1534,-0.175,0.14,
1535,-0.19,0.12,
1536,-0.205,0.11,
1537,-0.2,0.11,
1538,-0.19,0.135,
1539,-0.18,0.155,
1540,-0.185,0.14,
1541,-0.205,0.105,
1542,-0.225,0.095,
1543,-0.26,0.14,
1544,-0.245,0.205,
1545,-0.215,0.235,
1546,-0.155,0.25,
1547,-0.05,0.235,
1548,0.095,0.23,
1549,0.295,0.245,
1550,0.56,0.285,
1551,0.83,0.285,
1552,1.09,0.255,
1553,1.255,0.195,N
1554,1.3,0.08,
1555,1.15,-0.03,
1556,0.83,-0.085,
1557,0.41,-0.08,
1558,-0.105,-0.065,
1559,-0.59,-0.06,
1560,-0.83,-0.07,
1561,-0.825,-0.075,
1562,-0.71,-0.055,
1563,-0.6,-0.05,
1564,-0.495,-0.045,
1565,-0.41,-0.02,
1566,-0.335,0.01,
1567,-0.28,0.055,
1568,-0.235,0.08,
1569,-0.215,0.09,
1570,-0.215,0.095,
1571,-0.22,0.1,
1572,-0.23,0.115,
1573,-0.22,0.13,
1574,-0.205,0.135,
1575,-0.18,0.14,
1576,-0.2,0.15,
1577,-0.21,0.16,
1578,-0.235,0.17,
1579,-0.22,0.155,
1580,-0.205,0.145,
1581,-0.205,0.125,
1582,-0.195,0.12,
1583,-0.185,0.08,
1584,-0.19,0.075,
1585,-0.19,0.075,
1586,-0.17,0.11,
1587,-0.155,0.115,
1588,-0.16,0.105,
1589,-0.16,0.08,
1590,-0.16,0.09,
1591,-0.175,0.105,
1592,-0.155,0.115,
1593,-0.15,0.135,
1594,-0.155,0.14,
1595,-0.15,0.115,
1596,-0.16,0.105,
1597,-0.15,0.12,
1598,-0.145,0.135,
1599,-0.105,0.135,
1600,-0.115,0.13,
1601,-0.12,0.12,
1602,-0.105,0.14,
1603,-0.085,0.14,
1604,-0.06,0.135,
1605,-0.055,0.17,
1606,-0.045,0.18,
1607,-0.045,0.175,
1608,-0.035,0.16,
1609,-0.015,0.135,
1610,0.005,0.15,
1611,0.03,0.155,
1612,0.025,0.145,
1613,0.025,0.135,
1614,0.01,0.115,
1615,0.045,0.16,
1616,0.075,0.18,
1617,0.09,0.16,
1618,0.105,0.14,
1619,0.085,0.12,
1620,0.095,0.13,
1621,0.11,0.135,
1622,0.12,0.15,
1623,0.145,0.15,
1624,0.13,0.15,
1625,0.14,0.14,
1626,0.145,0.155,
1627,0.135,0.175,
1628,0.155,0.19,
1629,0.17,0.195,
1630,0.165,0.21,
1631,0.145,0.215,
1632,0.13,0.22,
1633,0.135,0.22,
1634,0.155,0.21,
1635,0.155,0.19,
1636,0.155,0.2,
1637,0.15,0.215,
1638,0.14,0.225,
1639,0.15,0.18,
1640,0.16,0.135,
1641,0.165,0.09,
1642,0.145,0.085,
1643,0.11,0.1,
1644,0.09,0.115,
1645,0.075,0.14,
1646,0.065,0.15,
1647,0.065,0.16,
1648,0.045,0.15,
1649,0.02,0.145,
1650,-0.015,0.145,
1651,-0.04,0.14,
1652,-0.035,0.145,
1653,-0.025,0.135,
1654,-0.04,0.145,
1655,-0.065,0.14,
1656,-0.095,0.125,
1657,-0.09,0.135,
1658,-0.055,0.14,
1659,-0.05,0.16,
1660,-0.07,0.145,
1661,-0.08,0.135,
1662,-0.08,0.135,
1663,-0.08,0.17,
1664,-0.08,0.19,
1665,-0.065,0.195,
1666,-0.06,0.175,
1667,-0.07,0.135,
1668,-0.09,0.115,
1669,-0.085,0.105,
1670,-0.08,0.11,
1671,-0.065,0.11,
1672,-0.07,0.115,
1673,-0.08,0.135,
1674,-0.09,0.13,
1675,-0.1,0.14,
1676,-0.1,0.155,
1677,-0.085,0.13,
1678,-0.09,0.115,
1679,-0.085,0.1,
1680,-0.105,0.1,
1681,-0.11,0.13,
1682,-0.085,0.155,
1683,-0.07,0.155,
1684,-0.075,0.15,
1685,-0.09,0.155,
1686,-0.1,0.155,
1687,-0.09,0.16,
1688,-0.08,0.145,
1689,-0.065,0.135,
1690,-0.08,0.135,
1691,-0.075,0.14,
1692,-0.085,0.16,
1693,-0.085,0.17,
1694,-0.07,0.175,
1695,-0.07,0.16,
1696,-0.09,0.145,
1697,-0.095,0.16,
1698,-0.09,0.18,
1699,-0.08,0.18,
1700,-0.065,0.17,
1701,-0.055,0.145,
1702,-0.08,0.11,
1703,-0.08,0.125,
1704,-0.085,0.125,
1705,-0.065,0.135,
1706,-0.045,0.135,
1707,-0.035,0.135,
1708,-0.03,0.15,
1709,-0.025,0.17,
1710,-0.03,0.17,
1711,-0.015,0.17,
1712,0.0,0.165,
1713,0.015,0.185,
1714,0.01,0.165,
1715,0.015,0.14,
1716,0.02,0.115,
1717,-0.005,0.115,
1718,-0.015,0.13,
1719,-0.015,0.125,
1720,-0.025,0.12,
1721,-0.04,0.1,
1722,-0.055,0.105,
1723,-0.025,0.105,
1724,-0.015,0.12,
1725,-0.03,0.125,
1726,-0.035,0.125,
1727,-0.05,0.125,
1728,-0.045,0.11,
1729,-0.07,0.12,
1730,-0.075,0.115,
1731,-0.055,0.135,
1732,-0.065,0.15,
1733,-0.08,0.125,
1734,-0.09,0.11,
1735,-0.1,0.135,
1736,-0.055,0.16,
1737,-0.045,0.175,
1738,-0.055,0.12,
1739,-0.06,0.095,
1740,-0.065,0.075,
1741,-0.075,0.08,
1742,-0.07,0.085,
1743,-0.095,0.07,
1744,-0.11,0.075,
1745,-0.15,0.08,
1746,-0.155,0.1,
1747,-0.155,0.125,
1748,-0.13,0.145,
1749,-0.125,0.125,
1750,-0.125,0.135,
1751,-0.13,0.145,
1752,-0.135,0.13,
1753,-0.145,0.16,
1754,-0.13,0.16,
1755,-0.105,0.165,
1756,-0.11,0.14,
1757,-0.135,0.13,
1758,-0.145,0.155,
1759,-0.135,0.2,
1760,-0.115,0.185,
1761,-0.1,0.15,
1762,-0.12,0.125,
1763,-0.155,0.115,
1764,-0.185,0.135,
1765,-0.215,0.185,
1766,-0.195,0.24,
1767,-0.155,0.25,
1768,-0.065,0.255,
1769,0.075,0.275,
1770,0.26,0.31,
1771,0.535,0.345,
1772,0.855,0.35,
1773,1.165,0.285,N
1774,1.395,0.165,
1775,1.37,0.02,
1776,1.045,-0.06,
1777,0.51,-0.08,
1778,-0.11,-0.05,
1779,-0.595,-0.055,
1780,-0.765,-0.085,
1781,-0.665,-0.085,
1782,-0.475,-0.075,
1783,-0.325,-0.035,
1784,-0.245,0.015,
1785,-0.2,0.065,
1786,-0.17,0.085,
1787,-0.17,0.09,
1788,-0.165,0.125,
1789,-0.17,0.145,
1790,-0.17,0.16,
1791,-0.155,0.13,
1792,-0.15,0.13,
1793,-0.16,0.14,
1794,-0.165,0.125,
1795,-0.16,0.13,
1796,-0.155,0.145,
1797,-0.125,0.155,
1798,-0.12,0.15,
1799,-0.125,0.12,
1800,-0.15,0.145,
1801,-0.165,0.16,
1802,-0.135,0.165,
1803,-0.125,0.14,
1804,-0.115,0.1,
1805,-0.125,0.085,
1806,-0.135,0.095,
1807,-0.14,0.12,
1808,-0.125,0.14,
1809,-0.12,0.14,
1810,-0.125,0.125,
1811,-0.13,0.11,
1812,-0.13,0.13,
1813,-0.12,0.145,
1814,-0.11,0.165,
1815,-0.08,0.165,
1816,-0.08,0.16,
1817,-0.08,0.15,
1818,-0.075,0.155,
1819,-0.065,0.15,
1820,-0.065,0.155,
1821,-0.04,0.15,
1822,-0.04,0.165,
1823,-0.04,0.15,
1824,-0.04,0.14,
1825,-0.03,0.175,
1826,0.005,0.205,
1827,0.035,0.22,
1828,0.035,0.2,
1829,0.05,0.16,
1830,0.045,0.155,
1831,0.065,0.155,
1832,0.095,0.145,
1833,0.105,0.15,
1834,0.105,0.16,
1835,0.105,0.155,
1836,0.105,0.16,
1837,0.115,0.16,
1838,0.145,0.16,
1839,0.155,0.165,
1840,0.16,0.16,
1841,0.155,0.155,
1842,0.14,0.155,
1843,0.14,0.185,
1844,0.15,0.215,
1845,0.18,0.21,
1846,0.185,0.19,
1847,0.18,0.16,
1848,0.16,0.17,
1849,0.165,0.175,
1850,0.185,0.205,
1851,0.2,0.22,
1852,0.195,0.195,
1853,0.19,0.185,
1854,0.18,0.175,
1855,0.165,0.19,
1856,0.16,0.2,
1857,0.16,0.185,
1858,0.155,0.15,
1859,0.125,0.13,
1860,0.115,0.125,
1861,0.11,0.165,
1862,0.115,0.165,
1863,0.105,0.165,
1864,0.07,0.16,
1865,0.04,0.165,
1866,0.025,0.165,
1867,0.005,0.175,
1868,0.0,0.175,
1869,-0.005,0.165,
1870,-0.01,0.155,
1871,-0.05,0.145,
1872,-0.05,0.14,
1873,-0.055,0.15,
1874,-0.05,0.155,
1875,-0.06,0.165,
1876,-0.065,0.17,
1877,-0.09,0.145,
1878,-0.09,0.135,
1879,-0.08,0.14,
1880,-0.065,0.15,
1881,-0.07,0.15,
1882,-0.065,0.155,
1883,-0.09,0.145,
1884,-0.105,0.145,
1885,-0.115,0.165,
1886,-0.1,0.18,
1887,-0.09,0.17,
1888,-0.095,0.15,
1889,-0.11,0.12,
1890,-0.115,0.12,
1891,-0.115,0.13,
1892,-0.105,0.125,
1893,-0.095,0.13,
1894,-0.09,0.125,
1895,-0.095,0.11,
1896,-0.105,0.105,
1897,-0.11,0.1,
1898,-0.105,0.125,
1899,-0.1,0.13,
1900,-0.1,0.135,
1901,-0.11,0.125,
1902,-0.125,0.115,
1903,-0.125,0.115,
1904,-0.125,0.125,
1905,-0.105,0.13,
1906,-0.11,0.145,
1907,-0.13,0.145,
1908,-0.145,0.135,
1909,-0.135,0.135,
1910,-0.13,0.14,
1911,-0.12,0.165,
1912,-0.125,0.16,
1913,-0.14,0.175,
1914,-0.14,0.185,
1915,-0.125,0.205,
1916,-0.1,0.18,
1917,-0.1,0.155,
1918,-0.115,0.14,
1919,-0.115,0.155,
1920,-0.11,0.135,
1921,-0.11,0.12,
1922,-0.1,0.12,
1923,-0.08,0.11,
1924,-0.085,0.12,
1925,-0.09,0.11,
1926,-0.085,0.105,
1927,-0.075,0.125,
1928,-0.06,0.14,
1929,-0.05,0.16,
1930,-0.04,0.165,
1931,-0.05,0.165,
1932,-0.065,0.145,
1933,-0.05,0.14,
1934,-0.03,0.14,
1935,-0.015,0.14,
1936,-0.015,0.14,
1937,-0.04,0.135,
1938,-0.045,0.12,
1939,-0.045,0.115,
1940,-0.05,0.125,
1941,-0.04,0.13,
1942,-0.06,0.115,
1943,-0.055,0.105,
1944,-0.07,0.1,
1945,-0.07,0.1,
1946,-0.055,0.095,
1947,-0.055,0.075,
1948,-0.06,0.07,
1949,-0.09,0.06,
1950,-0.11,0.06,
1951,-0.115,0.07,
1952,-0.115,0.105,
1953,-0.105,0.125,
1954,-0.095,0.135,
1955,-0.11,0.125,
1956,-0.115,0.11,
1957,-0.095,0.085,
1958,-0.065,0.08,
1959,-0.06,0.065,
1960,-0.075,0.065,
1961,-0.1,0.08,
1962,-0.115,0.075,
1963,-0.145,0.1,
1964,-0.155,0.115,
1965,-0.16,0.12,
1966,-0.165,0.12,
1967,-0.19,0.1,
1968,-0.2,0.125,
1969,-0.185,0.14,
1970,-0.185,0.17,
1971,-0.16,0.18,
1972,-0.17,0.145,
1973,-0.175,0.11,
1974,-0.175,0.11,
1975,-0.2,0.115,
1976,-0.17,0.135,
1977,-0.165,0.13,
1978,-0.17,0.125,
1979,-0.17,0.105,
1980,-0.18,0.1,
1981,-0.19,0.12,
1982,-0.165,0.145,
1983,-0.16,0.145,
1984,-0.18,0.13,
1985,-0.195,0.125,
1986,-0.205,0.115,
1987,-0.22,0.12,
1988,-0.255,0.135,
1989,-0.28,0.18,
1990,-0.27,0.215,
1991,-0.245,0.215,
1992,-0.185,0.225,
1993,-0.06,0.245,
1994,0.12,0.28,
1995,0.345,0.295,
1996,0.58,0.315,
1997,0.83,0.3,
1998,1.075,0.25,
1999,1.235,0.195,N
2000,1.285,0.105,
2001,1.15,0.01,
2002,0.88,-0.075,
2003,0.515,-0.105,
2004,0.12,-0.1,
2005,-0.32,-0.09,
2006,-0.68,-0.1,
2007,-0.81,-0.11,
2008,-0.76,-0.11,
2009,-0.655,-0.105,
2010,-0.565,-0.095,
2011,-0.485,-0.045,
2012,-0.395,0.025,
2013,-0.325,0.05,
2014,-0.285,0.06,
2015,-0.265,0.055,
2016,-0.24,0.085,
2017,-0.215,0.115,
2018,-0.2,0.15,
2019,-0.215,0.15,
2020,-0.225,0.14,
2021,-0.235,0.115,
2022,-0.235,0.125,
2023,-0.245,0.12,
2024,-0.24,0.145,
2025,-0.215,0.125,
2026,-0.215,0.1,
2027,-0.225,0.06,
2028,-0.225,0.06,
2029,-0.23,0.09,
2030,-0.215,0.115,
2031,-0.195,0.13,
2032,-0.21,0.115,
2033,-0.21,0.1,
2034,-0.21,0.1,
2035,-0.215,0.11,
2036,-0.2,0.135,
2037,-0.18,0.14,
2038,-0.19,0.125,
2039,-0.2,0.11,
2040,-0.205,0.11,
2041,-0.21,0.12,
2042,-0.19,0.125,
2043,-0.165,0.13,
2044,-0.16,0.11,
2045,-0.175,0.11,
2046,-0.19,0.115,
2047,-0.165,0.13,
2048,-0.145,0.13,
2049,-0.13,0.16,
2050,-0.125,0.135,
2051,-0.145,0.11,
2052,-0.15,0.1,
2053,-0.14,0.125,
2054,-0.12,0.135,
2055,-0.1,0.15,
2056,-0.1,0.14,
2057,-0.1,0.13,
2058,-0.105,0.15,
2059,-0.1,0.175,
2060,-0.08,0.215,
2061,-0.06,0.245,
2062,-0.05,0.225,
2063,-0.05,0.19,
2064,-0.03,0.18,
2065,-0.015,0.17,
2066,0.005,0.17,
2067,-0.01,0.17,
2068,0.02,0.17,
2069,0.02,0.155,
2070,0.025,0.165,
2071,0.045,0.165,
2072,0.075,0.16,
2073,0.09,0.15,
2074,0.1,0.135,
2075,0.095,0.12,
2076,0.09,0.13,
2077,0.095,0.145,
2078,0.11,0.16,
2079,0.115,0.165,
2080,0.115,0.15,
2081,0.115,0.145,
2082,0.1,0.17,
2083,0.115,0.165,
2084,0.125,0.17,
2085,0.145,0.155,
2086,0.125,0.15,
2087,0.115,0.135,
2088,0.105,0.145,
2089,0.095,0.16,
2090,0.1,0.175,
2091,0.11,0.185,
2092,0.1,0.18,
2093,0.09,0.17,
2094,0.075,0.185,
2095,0.065,0.205,
2096,0.045,0.21,
2097,0.045,0.215,
2098,0.025,0.195,
2099,0.01,0.165,
2100,-0.02,0.145,
2101,-0.03,0.155,
2102,-0.04,0.155,
2103,-0.05,0.18,
2104,-0.07,0.18,
2105,-0.085,0.175,
2106,-0.09,0.155,
2107,-0.095,0.135,
2108,-0.1,0.12,
2109,-0.09,0.115,
2110,-0.13,0.12,
2111,-0.15,0.12,
2112,-0.14,0.115,
2113,-0.14,0.13,
2114,-0.125,0.135,
2115,-0.135,0.135,
2116,-0.155,0.115,
2117,-0.155,0.105,
2118,-0.165,0.115,
2119,-0.16,0.13,
2120,-0.16,0.165,
2121,-0.15,0.175,
2122,-0.17,0.155,
2123,-0.165,0.15,
2124,-0.18,0.145,
2125,-0.175,0.17,
2126,-0.175,0.17,
2127,-0.135,0.14,
2128,-0.14,0.1,
2129,-0.165,0.08,
2130,-0.175,0.085,
2131,-0.185,0.105,
2132,-0.16,0.11,
2133,-0.165,0.12,
2134,-0.155,0.14,
2135,-0.175,0.13,
2136,-0.2,0.135,
2137,-0.19,0.14,
2138,-0.175,0.155,
2139,-0.16,0.155,
2140,-0.155,0.13,
2141,-0.155,0.105,
2142,-0.165,0.105,
2143,-0.165,0.095,
2144,-0.16,0.12,
2145,-0.16,0.125,
2146,-0.15,0.125,
2147,-0.17,0.11,
2148,-0.17,0.1,
2149,-0.165,0.115,
2150,-0.17,0.125,
2151,-0.17,0.13,
2152,-0.165,0.11,
2153,-0.175,0.105,
2154,-0.165,0.11,
2155,-0.16,0.125,
2156,-0.15,0.13,
2157,-0.14,0.12,
2158,-0.13,0.1,
2159,-0.145,0.095,
2160,-0.165,0.1,
2161,-0.155,0.115,
2162,-0.135,0.12,
2163,-0.14,0.115,
2164,-0.13,0.11,
2165,-0.135,0.11,
2166,-0.13,0.12,
2167,-0.12,0.13,
2168,-0.105,0.135,
2169,-0.115,0.16,
2170,-0.115,0.165,
2171,-0.12,0.165,
2172,-0.115,0.165,
2173,-0.1,0.175,
2174,-0.09,0.18,
2175,-0.085,0.16,
2176,-0.1,0.12,
2177,-0.115,0.085,
2178,-0.12,0.075,
2179,-0.12,0.08,
2180,-0.1,0.115,
2181,-0.1,0.145,
2182,-0.11,0.135,
2183,-0.13,0.13,
2184,-0.135,0.125,
2185,-0.135,0.07,
2186,-0.12,0.035,
2187,-0.12,0.025,
2188,-0.14,0.02,
2189,-0.155,0.0,
2190,-0.165,0.01,
2191,-0.17,0.025,
2192,-0.155,0.04,
2193,-0.155,0.06,
2194,-0.16,0.065,
2195,-0.155,0.045,
2196,-0.155,0.055,
2197,-0.16,0.08,
2198,-0.15,0.095,
2199,-0.16,0.095,
2200,-0.185,0.085,
2201,-0.22,0.085,
2202,-0.24,0.08,
2203,-0.24,0.1,
2204,-0.235,0.105,
2205,-0.225,0.12,
2206,-0.23,0.125,
2207,-0.235,0.12,
2208,-0.245,0.12,
2209,-0.245,0.13,
2210,-0.22,0.16,
2211,-0.21,0.15,
2212,-0.215,0.135,
2213,-0.23,0.1,
2214,-0.255,0.1,
2215,-0.25,0.135,
2216,-0.255,0.175,
2217,-0.235,0.18,
2218,-0.23,0.15,
2219,-0.255,0.12,
2220,-0.24,0.105,
2221,-0.235,0.1,
2222,-0.23,0.1,
2223,-0.24,0.09,
2224,-0.255,0.105,
2225,-0.285,0.125,
2226,-0.32,0.17,
2227,-0.325,0.225,
2228,-0.285,0.26,
2229,-0.2,0.275,
2230,-0.105,0.26,
2231,0.025,0.22,
2232,0.195,0.205,
2233,0.445,0.205,
2234,0.71,0.245,
2235,0.97,0.24,
2236,1.145,0.185,N
2237,1.215,0.11,
2238,1.095,0.005,
2239,0.815,-0.09,
2240,0.45,-0.11,
2241,0.045,-0.105,
2242,-0.4,-0.115,
2243,-0.765,-0.13,
2244,-0.9,-0.145,
2245,-0.835,-0.12,
2246,-0.72,-0.105,
2247,-0.615,-0.065,
2248,-0.515,-0.055,
2249,-0.42,-0.045,
2250,-0.375,-0.025,
2251,-0.35,0.015,
2252,-0.31,0.06,
2253,-0.295,0.09,
2254,-0.27,0.095,
2255,-0.28,0.115,
2256,-0.29,0.13,
2257,-0.295,0.14,
2258,-0.265,0.135,
2259,-0.25,0.105,
2260,-0.25,0.09,
2261,-0.25,0.075,
2262,-0.26,0.08,
2263,-0.26,0.12,
2264,-0.245,0.14,
2265,-0.245,0.135,
2266,-0.26,0.13,
2267,-0.25,0.105,
2268,-0.265,0.1,
2269,-0.255,0.1,
2270,-0.255,0.095,
2271,-0.25,0.105,
2272,-0.255,0.115,
2273,-0.245,0.115,
2274,-0.225,0.115,
2275,-0.21,0.115,
2276,-0.215,0.115,
2277,-0.195,0.11,
2278,-0.2,0.115,
2279,-0.2,0.105,
2280,-0.2,0.105,
2281,-0.2,0.12,
2282,-0.19,0.135,
2283,-0.185,0.13,
2284,-0.195,0.145,
2285,-0.19,0.165,
2286,-0.185,0.185,
2287,-0.165,0.175,
2288,-0.165,0.21,
2289,-0.155,0.18,
2290,-0.135,0.155,
2291,-0.125,0.125,
2292,-0.115,0.11,
2293,-0.095,0.1,
2294,-0.08,0.12,
2295,-0.07,0.125,
2296,-0.065,0.125,
2297,-0.065,0.12,
2298,-0.075,0.135,
2299,-0.06,0.165,
2300,-0.03,0.18,
2301,-0.02,0.2,
2302,-0.015,0.21,
2303,-0.005,0.185,
2304,0.0,0.16,
2305,0.015,0.165,
2306,0.025,0.155,
2307,0.04,0.175,
2308,0.04,0.185,
2309,0.045,0.185,
2310,0.055,0.175,
2311,0.065,0.16,
2312,0.075,0.14,
2313,0.095,0.13,
2314,0.085,0.135,
2315,0.075,0.125,
2316,0.06,0.155,
2317,0.07,0.17,
2318,0.09,0.195,
2319,0.09,0.165,
2320,0.1,0.155,
2321,0.08,0.15,
2322,0.065,0.16,
2323,0.075,0.18,
2324,0.075,0.19,
2325,0.095,0.18,
2326,0.055,0.155,
2327,0.04,0.145,
2328,0.045,0.15,
2329,0.04,0.16,
2330,0.045,0.175,
2331,0.035,0.17,
2332,0.01,0.16,
2333,-0.015,0.14,
2334,-0.03,0.15,
2335,-0.04,0.155,
2336,-0.04,0.16,
2337,-0.04,0.15,
2338,-0.065,0.135,
2339,-0.1,0.12,
2340,-0.12,0.115,
2341,-0.11,0.12,
2342,-0.115,0.12,
2343,-0.135,0.11,
2344,-0.135,0.105,
2345,-0.155,0.095,
2346,-0.17,0.125,
2347,-0.18,0.145,
2348,-0.16,0.155,
2349,-0.17,0.135,
2350,-0.18,0.135,
2351,-0.185,0.125,
2352,-0.205,0.135,
2353,-0.195,0.135,
2354,-0.175,0.16,
2355,-0.175,0.15,
2356,-0.17,0.155,
2357,-0.19,0.13,
2358,-0.19,0.145,
2359,-0.2,0.165,
2360,-0.19,0.17,
2361,-0.18,0.14,
2362,-0.17,0.095,
2363,-0.175,0.065,
2364,-0.185,0.07,
2365,-0.185,0.075,
2366,-0.16,0.095,
2367,-0.155,0.075,
2368,-0.18,0.075,
2369,-0.21,0.075,
2370,-0.235,0.1,
2371,-0.21,0.11,
2372,-0.2,0.115,
2373,-0.18,0.115,
2374,-0.2,0.115,
2375,-0.205,0.11,
2376,-0.215,0.14,
2377,-0.21,0.125,
2378,-0.18,0.115,
2379,-0.17,0.13,
2380,-0.18,0.09,
2381,-0.205,0.08,
2382,-0.205,0.095,
2383,-0.19,0.105,
2384,-0.2,0.13,
2385,-0.19,0.14,
2386,-0.2,0.15,
2387,-0.195,0.13,
2388,-0.21,0.13,
2389,-0.22,0.135,
2390,-0.195,0.15,
2391,-0.195,0.165,
2392,-0.195,0.155,
2393,-0.205,0.135,
2394,-0.235,0.115,
2395,-0.22,0.105,
2396,-0.195,0.105,
2397,-0.18,0.095,
2398,-0.175,0.085,
2399,-0.19,0.08,
2400,-0.2,0.065,
2401,-0.195,0.075,
2402,-0.185,0.1,
2403,-0.175,0.11,
2404,-0.165,0.14,
2405,-0.16,0.155,
2406,-0.155,0.165,
2407,-0.175,0.175,
2408,-0.15,0.17,
2409,-0.14,0.15,
2410,-0.155,0.115,
2411,-0.145,0.105,
2412,-0.165,0.115,
2413,-0.135,0.095,
2414,-0.13,0.09,
2415,-0.12,0.055,
2416,-0.135,0.03,
2417,-0.155,0.035,
2418,-0.165,0.04,
2419,-0.165,0.065,
2420,-0.15,0.055,
2421,-0.17,0.05,
2422,-0.165,0.04,
2423,-0.175,0.035,
2424,-0.195,0.055,
2425,-0.195,0.06,
2426,-0.195,0.045,
2427,-0.205,0.015,
2428,-0.195,-0.005,
2429,-0.205,-0.005,
2430,-0.21,0.0,
2431,-0.215,0.0,
2432,-0.215,0.035,
2433,-0.195,0.035,
2434,-0.195,0.08,
2435,-0.215,0.085,
2436,-0.225,0.1,
2437,-0.245,0.12,
2438,-0.225,0.14,
2439,-0.235,0.145,
2440,-0.25,0.125,
2441,-0.275,0.09,
2442,-0.3,0.075,
2443,-0.3,0.075,
2444,-0.28,0.085,
2445,-0.265,0.085,
2446,-0.275,0.09,
2447,-0.285,0.085,
2448,-0.295,0.085,
2449,-0.295,0.1,
2450,-0.275,0.12,
2451,-0.265,0.11,
2452,-0.265,0.11,
2453,-0.285,0.105,
2454,-0.305,0.09,
2455,-0.29,0.07,
2456,-0.285,0.075,
2457,-0.27,0.07,
2458,-0.265,0.085,
2459,-0.285,0.065,
2460,-0.285,0.065,
2461,-0.275,0.075,
2462,-0.26,0.085,
2463,-0.27,0.085,
2464,-0.295,0.1,
2465,-0.33,0.11,
2466,-0.37,0.145,
2467,-0.37,0.19,
2468,-0.33,0.21,
2469,-0.265,0.21,
2470,-0.18,0.215,
2471,-0.04,0.205,
2472,0.12,0.205,
2473,0.35,0.22,
2474,0.61,0.23,
2475,0.825,0.22,
2476,1.025,0.16,N
2477,1.105,0.075,
2478,1.015,-0.01,
2479,0.79,-0.105,
2480,0.485,-0.145,
2481,0.115,-0.145,
2482,-0.335,-0.125,
2483,-0.75,-0.13,
2484,-0.94,-0.145,
2485,-0.905,-0.155,
2486,-0.8,-0.145,
2487,-0.68,-0.135,
2488,-0.57,-0.11,
2489,-0.475,-0.08,
2490,-0.435,-0.045,
2491,-0.385,0.0,
2492,-0.35,0.03,
2493,-0.32,0.035,
2494,-0.305,0.03,
2495,-0.315,0.045,
2496,-0.335,0.035,
2497,-0.33,0.055,
2498,-0.32,0.075,
2499,-0.32,0.07,
2500,-0.32,0.065,
2501,-0.33,0.07,
2502,-0.325,0.075,
2503,-0.32,0.09,
2504,-0.315,0.105,
2505,-0.305,0.1,
2506,-0.285,0.115,
2507,-0.29,0.12,
2508,-0.3,0.11,
2509,-0.315,0.11,
2510,-0.315,0.105,
2511,-0.29,0.12,
2512,-0.27,0.105,
2513,-0.265,0.075,
2514,-0.27,0.06,
2515,-0.26,0.07,
2516,-0.25,0.065,
2517,-0.245,0.09,
2518,-0.235,0.09,
2519,-0.25,0.085,
2520,-0.25,0.095,
2521,-0.255,0.075,
2522,-0.24,0.085,
2523,-0.225,0.09,
2524,-0.23,0.11,
2525,-0.22,0.115,
2526,-0.24,0.105,
2527,-0.235,0.095,
2528,-0.215,0.08,
2529,-0.2,0.065,
2530,-0.205,0.055,
2531,-0.185,0.045,
2532,-0.18,0.06,
2533,-0.165,0.06,
2534,-0.14,0.07,
2535,-0.135,0.095,
2536,-0.145,0.095,
2537,-0.145,0.095,
2538,-0.135,0.095,
2539,-0.11,0.095,
2540,-0.08,0.1,
2541,-0.065,0.115,
2542,-0.06,0.125,
2543,-0.045,0.125,
2544,-0.04,0.115,
2545,-0.035,0.12,
2546,-0.02,0.145,
2547,0.0,0.13,
2548,-0.005,0.12,
2549,0.005,0.08,
2550,0.0,0.065,
2551,-0.005,0.095,
2552,0.005,0.105,
2553,0.03,0.115,
2554,0.05,0.105,
2555,0.045,0.09,
2556,0.04,0.105,
2557,0.04,0.12,
2558,0.06,0.155,
2559,0.05,0.17,
2560,0.035,0.18,
2561,0.035,0.16,
2562,0.035,0.125,
2563,0.06,0.105,
2564,0.07,0.09,
2565,0.075,0.09,
2566,0.055,0.1,
2567,0.05,0.115,
2568,0.035,0.12,
2569,0.02,0.115,
2570,0.02,0.115,
2571,0.02,0.105,
2572,-0.005,0.105,
2573,-0.025,0.115,
2574,-0.045,0.1,
2575,-0.095,0.095,
2576,-0.12,0.105,
2577,-0.115,0.11,
2578,-0.13,0.12,
2579,-0.14,0.09,
2580,-0.16,0.075,
2581,-0.19,0.055,
2582,-0.2,0.06,
2583,-0.2,0.07,
2584,-0.205,0.07,
2585,-0.215,0.1,
2586,-0.22,0.105,
2587,-0.24,0.12,
2588,-0.225,0.105,
2589,-0.225,0.09,
2590,-0.23,0.075,
2591,-0.255,0.075,
2592,-0.25,0.075,
2593,-0.25,0.085,
2594,-0.26,0.095,
2595,-0.255,0.095,
2596,-0.245,0.09,
2597,-0.24,0.085,
2598,-0.27,0.1,
2599,-0.255,0.135,
2600,-0.245,0.145,
2601,-0.235,0.13,
2602,-0.23,0.09,
2603,-0.24,0.075,
2604,-0.26,0.085,
2605,-0.275,0.07,
2606,-0.27,0.055,
2607,-0.265,0.05,
2608,-0.24,0.02,
2609,-0.26,0.015,
2610,-0.275,0.015,
2611,-0.265,0.035,
2612,-0.26,0.06,
2613,-0.26,0.075,
2614,-0.27,0.075,
2615,-0.25,0.08,
2616,-0.25,0.09,
2617,-0.245,0.09,
2618,-0.26,0.11,
2619,-0.25,0.105,
2620,-0.26,0.085,
2621,-0.28,0.055,
2622,-0.275,0.05,
2623,-0.275,0.06,
2624,-0.275,0.065,
2625,-0.25,0.07,
2626,-0.255,0.07,
2627,-0.26,0.085,
2628,-0.265,0.095,
2629,-0.25,0.105,
2630,-0.235,0.09,
2631,-0.215,0.075,
2632,-0.225,0.04,
2633,-0.235,0.02,
2634,-0.25,0.025,
2635,-0.24,0.045,
2636,-0.215,0.09,
2637,-0.19,0.095,
2638,-0.175,0.085,
2639,-0.19,0.09,
2640,-0.2,0.1,
2641,-0.195,0.11,
2642,-0.17,0.105,
2643,-0.16,0.095,
2644,-0.17,0.085,
2645,-0.17,0.095,
2646,-0.18,0.095,
2647,-0.17,0.11,
2648,-0.175,0.1,
2649,-0.165,0.075,
2650,-0.16,0.05,
2651,-0.175,0.03,
2652,-0.19,0.02,
2653,-0.195,0.02,
2654,-0.195,0.035,
2655,-0.175,0.035,
2656,-0.195,0.025,
2657,-0.195,0.01,
2658,-0.22,0.005,
2659,-0.225,0.01,
2660,-0.225,0.035,
2661,-0.21,0.045,
2662,-0.205,0.025,
2663,-0.215,0.0,
2664,-0.225,0.005,
2665,-0.22,0.025,
2666,-0.215,0.05,
2667,-0.19,0.045,
2668,-0.2,0.045,
2669,-0.215,0.04,
2670,-0.25,0.045,
2671,-0.275,0.07,
2672,-0.285,0.075,
2673,-0.3,0.065,
2674,-0.28,0.06,
2675,-0.295,0.06,
2676,-0.295,0.06,
2677,-0.295,0.085,
2678,-0.29,0.105,
2679,-0.275,0.1,
2680,-0.285,0.07,
2681,-0.295,0.055,
2682,-0.3,0.07,
2683,-0.305,0.08,
2684,-0.285,0.08,
2685,-0.27,0.04,
2686,-0.27,0.045,
2687,-0.3,0.045,
2688,-0.305,0.035,
2689,-0.3,0.055,
2690,-0.285,0.08,
2691,-0.27,0.095,
2692,-0.28,0.08,
2693,-0.29,0.07,
2694,-0.32,0.07,
2695,-0.355,0.095,
2696,-0.365,0.13,
2697,-0.34,0.16,
2698,-0.305,0.155,
2699,-0.25,0.15,
2700,-0.155,0.15,
2701,0.02,0.175,
2702,0.255,0.19,
2703,0.49,0.215,
2704,0.765,0.22,
2705,0.975,0.19,N
2706,1.035,0.13,
2707,0.92,0.045,
2708,0.67,-0.05,
2709,0.33,-0.11,
2710,-0.1,-0.13,
2711,-0.565,-0.135,
2712,-0.84,-0.125,
2713,-0.875,-0.105,
2714,-0.815,-0.08,
2715,-0.74,-0.09,
2716,-0.65,-0.085,
2717,-0.57,-0.085,
2718,-0.485,-0.075,
2719,-0.435,-0.03,
2720,-0.385,0.025,
2721,-0.375,0.055,
2722,-0.34,0.065,
2723,-0.33,0.06,
2724,-0.315,0.055,
2725,-0.3,0.055,
2726,-0.3,0.055,
2727,-0.305,0.055,
2728,-0.31,0.05,
2729,-0.295,0.055,
2730,-0.3,0.055,
2731,-0.315,0.06,
2732,-0.305,0.055,
2733,-0.29,0.06,
2734,-0.285,0.07,
2735,-0.295,0.09,
2736,-0.3,0.11,
2737,-0.29,0.095,
2738,-0.265,0.07,
2739,-0.25,0.045,
2740,-0.24,0.02,
2741,-0.25,0.02,
2742,-0.255,0.035,
2743,-0.25,0.05,
2744,-0.24,0.065,
2745,-0.225,0.075,
2746,-0.23,0.075,
2747,-0.22,0.075,
2748,-0.22,0.095,
2749,-0.215,0.13,
2750,-0.205,0.135,
2751,-0.195,0.12,
2752,-0.185,0.095,
2753,-0.175,0.07,
2754,-0.185,0.045,
2755,-0.18,0.05,
2756,-0.155,0.05,
2757,-0.14,0.07,
2758,-0.155,0.07,
2759,-0.145,0.065,
2760,-0.125,0.06,
2761,-0.12,0.055,
2762,-0.12,0.065,
2763,-0.105,0.07,
2764,-0.1,0.1,
2765,-0.095,0.1,
2766,-0.1,0.125,
2767,-0.095,0.12,
2768,-0.07,0.13,
2769,-0.035,0.11,
2770,-0.035,0.095,
2771,-0.035,0.085,
2772,-0.025,0.07,
2773,-0.02,0.055,
2774,0.015,0.075,
2775,0.035,0.07,
2776,0.04,0.07,
2777,0.045,0.065,
2778,0.025,0.09,
2779,0.04,0.105,
2780,0.065,0.125,
2781,0.055,0.125,
2782,0.065,0.125,
2783,0.055,0.125,
2784,0.045,0.115,
2785,0.07,0.13,
2786,0.08,0.13,
2787,0.075,0.135,
2788,0.07,0.145,
2789,0.07,0.165,
2790,0.065,0.165,
2791,0.07,0.155,
2792,0.065,0.13,
2793,0.065,0.105,
2794,0.065,0.1,
2795,0.05,0.105,
2796,0.04,0.09,
2797,0.045,0.085,
2798,0.04,0.1,
2799,0.03,0.095,
2800,0.025,0.115,
2801,0.0,0.13,
2802,-0.025,0.125,
2803,-0.03,0.13,
2804,-0.03,0.145,
2805,-0.04,0.12,
2806,-0.05,0.11,
2807,-0.085,0.08,
2808,-0.095,0.055,
2809,-0.105,0.065,
2810,-0.11,0.09,
2811,-0.115,0.09,
2812,-0.115,0.08,
2813,-0.14,0.08,
2814,-0.165,0.085,
2815,-0.16,0.12,
2816,-0.15,0.14,
2817,-0.15,0.145,
2818,-0.165,0.11,
2819,-0.17,0.07,
2820,-0.175,0.08,
2821,-0.175,0.09,
2822,-0.155,0.11,
2823,-0.15,0.12,
2824,-0.155,0.12,
2825,-0.165,0.075,
2826,-0.18,0.06,
2827,-0.185,0.085,
2828,-0.18,0.1,
2829,-0.16,0.1,
2830,-0.16,0.095,
2831,-0.165,0.075,
2832,-0.175,0.065,
2833,-0.175,0.075,
2834,-0.155,0.095,
2835,-0.14,0.105,
2836,-0.145,0.11,
2837,-0.15,0.095,
2838,-0.155,0.1,
2839,-0.155,0.105,
2840,-0.16,0.11,
2841,-0.15,0.11,
2842,-0.14,0.1,
2843,-0.16,0.095,
2844,-0.175,0.115,
2845,-0.155,0.13,
2846,-0.14,0.145,
2847,-0.125,0.135,
2848,-0.11,0.105,
2849,-0.135,0.08,
2850,-0.15,0.09,
2851,-0.15,0.095,
2852,-0.14,0.12,
2853,-0.135,0.135,
2854,-0.12,0.12,
2855,-0.125,0.09,
2856,-0.13,0.085,
2857,-0.14,0.1,
2858,-0.13,0.1,
2859,-0.13,0.085,
2860,-0.12,0.075,
2861,-0.14,0.095,
2862,-0.135,0.075,
2863,-0.135,0.085,
2864,-0.115,0.115,
2865,-0.1,0.12,
2866,-0.075,0.12,
2867,-0.08,0.085,
2868,-0.08,0.095,
2869,-0.08,0.115,
2870,-0.075,0.14,
2871,-0.07,0.16,
2872,-0.075,0.135,
2873,-0.065,0.11,
2874,-0.07,0.11,
2875,-0.065,0.115,
2876,-0.055,0.125,
2877,-0.055,0.12,
2878,-0.065,0.11,
2879,-0.08,0.095,
2880,-0.095,0.1,
2881,-0.09,0.1,
2882,-0.08,0.095,
2883,-0.075,0.09,
2884,-0.065,0.08,
2885,-0.08,0.085,
2886,-0.095,0.09,
2887,-0.095,0.095,
2888,-0.09,0.085,
2889,-0.1,0.055,
2890,-0.1,0.03,
2891,-0.13,0.03,
2892,-0.13,0.04,
2893,-0.135,0.065,
2894,-0.115,0.09,
2895,-0.095,0.105,
2896,-0.075,0.11,
2897,-0.07,0.1,
2898,-0.085,0.07,
2899,-0.105,0.05,
2900,-0.125,0.065,
2901,-0.145,0.085,
2902,-0.16,0.085,
2903,-0.18,0.095,
2904,-0.185,0.115,
2905,-0.195,0.135,
2906,-0.165,0.165,
2907,-0.16,0.155,
2908,-0.16,0.14,
2909,-0.18,0.11,
2910,-0.175,0.09,
2911,-0.175,0.12,
2912,-0.175,0.115,
2913,-0.16,0.12,
2914,-0.165,0.115,
2915,-0.18,0.105,
2916,-0.2,0.105,
2917,-0.195,0.12,
2918,-0.18,0.145,
2919,-0.17,0.125,
2920,-0.165,0.12,
2921,-0.185,0.12,
2922,-0.2,0.14,
2923,-0.215,0.165,
2924,-0.225,0.19,
2925,-0.225,0.205,
2926,-0.21,0.235,
2927,-0.155,0.26,
2928,-0.045,0.26,
2929,0.135,0.25,
2930,0.335,0.26,
2931,0.595,0.28,
2932,0.87,0.295,
2933,1.12,0.3,
2934,1.31,0.25,N
2935,1.355,0.165,
2936,1.195,0.05,
2937,0.835,-0.04,
2938,0.365,-0.09,
2939,-0.175,-0.09,
2940,-0.63,-0.09,
2941,-0.8,-0.095,
2942,-0.73,-0.11,
2943,-0.595,-0.11,
2944,-0.465,-0.08,
2945,-0.38,-0.045,
2946,-0.335,0.0,
2947,-0.29,0.035,
2948,-0.24,0.085,
2949,-0.22,0.095,
2950,-0.22,0.12,
2951,-0.23,0.13,
2952,-0.245,0.155,
2953,-0.225,0.155,
2954,-0.22,0.15,
2955,-0.21,0.13,
2956,-0.195,0.11,
2957,-0.205,0.095,
2958,-0.215,0.1,
2959,-0.225,0.125,
2960,-0.215,0.13,
2961,-0.2,0.14,
2962,-0.2,0.15,
2963,-0.205,0.15,
2964,-0.205,0.155,
2965,-0.21,0.155,
2966,-0.2,0.135,
2967,-0.175,0.14,
2968,-0.17,0.14,
2969,-0.175,0.14,
2970,-0.165,0.12,
2971,-0.155,0.1,
2972,-0.135,0.08,
2973,-0.13,0.095,
2974,-0.14,0.105,
2975,-0.15,0.105,
2976,-0.14,0.105,
2977,-0.14,0.115,
2978,-0.13,0.135,
2979,-0.12,0.135,
2980,-0.115,0.155,
2981,-0.11,0.14,
2982,-0.11,0.145,
2983,-0.095,0.16,
2984,-0.095,0.185,
2985,-0.085,0.195,
2986,-0.075,0.185,
2987,-0.08,0.165,
2988,-0.07,0.145,
2989,-0.065,0.14,
2990,-0.055,0.155,
2991,-0.035,0.165,
2992,-0.01,0.175,
2993,-0.005,0.17,
2994,-0.005,0.175,
2995,0.005,0.19,
2996,0.03,0.19,
2997,0.06,0.175,
2998,0.065,0.165,
2999,0.055,0.17,
3000,0.045,0.175,
3001,0.05,0.2,
3002,0.085,0.195,
3003,0.1,0.175,
3004,0.11,0.155,
3005,0.105,0.14,
3006,0.1,0.155,
3007,0.105,0.155,
3008,0.105,0.18,
3009,0.11,0.205,
3010,0.115,0.215,
3011,0.115,0.195,
3012,0.115,0.2,
3013,0.115,0.21,
3014,0.12,0.205,
3015,0.135,0.195,
3016,0.14,0.2,
3017,0.135,0.19,
3018,0.12,0.165,
3019,0.105,0.145,
3020,0.12,0.15,
3021,0.115,0.165,
3022,0.12,0.175,
3023,0.075,0.175,
3024,0.055,0.18,
3025,0.045,0.2,
3026,0.055,0.195,
3027,0.06,0.195,
3028,0.035,0.175,
3029,0.0,0.16,
3030,-0.035,0.155,
3031,-0.055,0.17,
3032,-0.035,0.185,
3033,-0.04,0.175,
3034,-0.045,0.17,
3035,-0.065,0.15,
3036,-0.09,0.135,
3037,-0.095,0.13,
3038,-0.105,0.135,
3039,-0.08,0.15,
3040,-0.095,0.16,
3041,-0.12,0.155,
3042,-0.135,0.135,
3043,-0.13,0.155,
3044,-0.115,0.17,
3045,-0.115,0.155,
3046,-0.115,0.14,
3047,-0.12,0.13,
3048,-0.14,0.13,
3049,-0.14,0.135,
3050,-0.12,0.135,
3051,-0.12,0.13,
3052,-0.13,0.135,
3053,-0.13,0.135,
3054,-0.135,0.15,
3055,-0.15,0.165,
3056,-0.135,0.185,
3057,-0.135,0.185,
3058,-0.13,0.16,
3059,-0.135,0.155,
3060,-0.14,0.155,
3061,-0.15,0.155,
3062,-0.145,0.155,
3063,-0.14,0.16,
3064,-0.14,0.155,
3065,-0.15,0.13,
3066,-0.15,0.125,
3067,-0.165,0.135,
3068,-0.15,0.165,
3069,-0.14,0.165,
3070,-0.145,0.16,
3071,-0.135,0.16,
3072,-0.16,0.165,
3073,-0.17,0.175,
3074,-0.14,0.18,
3075,-0.155,0.165,
3076,-0.125,0.155,
3077,-0.135,0.12,
3078,-0.155,0.12,
3079,-0.165,0.13,
3080,-0.145,0.14,
3081,-0.125,0.125,
3082,-0.14,0.12,
3083,-0.15,0.12,
3084,-0.155,0.11,
3085,-0.16,0.14,
3086,-0.15,0.19,
3087,-0.145,0.225,
3088,-0.14,0.22,
3089,-0.135,0.2,
3090,-0.135,0.12,
3091,-0.125,0.08,
3092,-0.135,0.075,
3093,-0.12,0.11,
3094,-0.125,0.13,
3095,-0.11,0.14,
3096,-0.11,0.155,
3097,-0.1,0.19,
3098,-0.09,0.195,
3099,-0.08,0.21,
3100,-0.075,0.205,
3101,-0.07,0.195,
3102,-0.07,0.195,
3103,-0.075,0.16,
3104,-0.055,0.165,
3105,-0.055,0.15,
3106,-0.07,0.13,
3107,-0.08,0.12,
3108,-0.08,0.12,
3109,-0.07,0.125,
3110,-0.07,0.125,
3111,-0.07,0.105,
3112,-0.09,0.09,
3113,-0.1,0.075,
3114,-0.11,0.07,
3115,-0.11,0.07,
3116,-0.14,0.085,
3117,-0.13,0.09,
3118,-0.135,0.115,
3119,-0.155,0.1,
3120,-0.145,0.09,
3121,-0.14,0.085,
3122,-0.135,0.075,
3123,-0.135,0.07,
3124,-0.125,0.08,
3125,-0.145,0.06,
3126,-0.135,0.08,
3127,-0.14,0.1,
3128,-0.13,0.125,
3129,-0.14,0.14,
3130,-0.165,0.14,
3131,-0.185,0.135,
3132,-0.205,0.145,
3133,-0.22,0.17,
3134,-0.22,0.175,
3135,-0.2,0.155,
3136,-0.21,0.13,
3137,-0.215,0.125,
3138,-0.23,0.115,
3139,-0.21,0.125,
3140,-0.21,0.12,
3141,-0.21,0.145,
3142,-0.205,0.15,
3143,-0.205,0.14,
3144,-0.205,0.14,
3145,-0.21,0.11,
3146,-0.2,0.115,
3147,-0.2,0.12,
3148,-0.195,0.13,
3149,-0.215,0.135,
3150,-0.24,0.15,
3151,-0.215,0.145,
3152,-0.215,0.145,
3153,-0.23,0.135,
3154,-0.27,0.155,
3155,-0.29,0.175,
3156,-0.28,0.21,
3157,-0.24,0.24,
3158,-0.125,0.275,
3159,0.015,0.28,
3160,0.185,0.255,
3161,0.385,0.265,
3162,0.63,0.29,
3163,0.89,0.275,
3164,1.135,0.255,N
3165,1.235,0.175,
3166,1.145,0.04,
3167,0.845,-0.07,
3168,0.465,-0.105,
3169,0.05,-0.095,
3170,-0.395,-0.085,
3171,-0.725,-0.1,
3172,-0.825,-0.115,
3173,-0.77,-0.13,
3174,-0.68,-0.115,
3175,-0.57,-0.055,
3176,-0.46,0.0,
3177,-0.38,0.045,
3178,-0.32,0.045,
3179,-0.285,0.04,
3180,-0.265,0.045,
3181,-0.255,0.07,
3182,-0.24,0.105,
3183,-0.23,0.13,
3184,-0.22,0.135,
3185,-0.23,0.12,
3186,-0.245,0.125,
3187,-0.245,0.115,
3188,-0.24,0.115,
3189,-0.245,0.125,
3190,-0.245,0.13,
3191,-0.23,0.13,
3192,-0.23,0.135,
3193,-0.215,0.135,
3194,-0.21,0.135,
3195,-0.215,0.135,
3196,-0.215,0.14,
3197,-0.225,0.15,
3198,-0.225,0.125,
3199,-0.215,0.125,
3200,-0.195,0.145,
3201,-0.195,0.16,
3202,-0.195,0.16,
3203,-0.205,0.145,
3204,-0.2,0.14,
3205,-0.19,0.165,
3206,-0.18,0.17,
3207,-0.16,0.155,
3208,-0.155,0.1,
3209,-0.17,0.075,
3210,-0.155,0.095,
3211,-0.16,0.125,
3212,-0.155,0.155,
3213,-0.14,0.18,
3214,-0.12,0.175,
3215,-0.135,0.14,
3216,-0.12,0.13,
3217,-0.11,0.14,
3218,-0.105,0.175,
3219,-0.085,0.205,
3220,-0.09,0.17,
3221,-0.07,0.145,
3222,-0.065,0.13,
3223,-0.05,0.16,
3224,-0.035,0.18,
3225,-0.005,0.205,
3226,-0.005,0.2,
3227,-0.01,0.19,
3228,-0.01,0.185,
3229,0.015,0.17,
3230,0.03,0.165,
3231,0.05,0.18,
3232,0.07,0.19,
3233,0.065,0.205,
3234,0.06,0.205,
3235,0.065,0.21,
3236,0.09,0.21,
3237,0.095,0.18,
3238,0.1,0.165,
3239,0.1,0.16,
3240,0.08,0.19,
3241,0.095,0.2,
3242,0.115,0.215,
3243,0.12,0.24,
3244,0.125,0.235,
3245,0.12,0.21,
3246,0.105,0.215,
3247,0.105,0.22,
3248,0.12,0.215,
3249,0.11,0.205,
3250,0.125,0.2,
3251,0.09,0.18,
3252,0.09,0.165,
3253,0.085,0.16,
3254,0.075,0.165,
3255,0.085,0.19,
3256,0.065,0.19,
3257,0.045,0.195,
3258,0.01,0.19,
3259,-0.005,0.19,
3260,-0.015,0.2,
3261,-0.02,0.18,
3262,-0.045,0.16,
3263,-0.055,0.15,
3264,-0.09,0.155,
3265,-0.09,0.17,
3266,-0.1,0.19,
3267,-0.085,0.195,
3268,-0.1,0.175,
3269,-0.13,0.15,
3270,-0.145,0.14,
3271,-0.155,0.155,
3272,-0.15,0.185,
3273,-0.135,0.19,
3274,-0.13,0.17,
3275,-0.14,0.145,
3276,-0.15,0.14,
3277,-0.155,0.165,
3278,-0.155,0.18,
3279,-0.14,0.165,
3280,-0.135,0.135,
3281,-0.15,0.13,
3282,-0.165,0.135,
3283,-0.17,0.135,
3284,-0.155,0.15,
3285,-0.15,0.15,
3286,-0.15,0.14,
3287,-0.165,0.165,
3288,-0.165,0.155,
3289,-0.155,0.17,
3290,-0.15,0.165,
3291,-0.145,0.145,
3292,-0.15,0.115,
3293,-0.17,0.11,
3294,-0.17,0.12,
3295,-0.18,0.15,
3296,-0.165,0.15,
3297,-0.155,0.145,
3298,-0.15,0.145,
3299,-0.165,0.135,
3300,-0.165,0.15,
3301,-0.175,0.145,
3302,-0.165,0.14,
3303,-0.145,0.15,
3304,-0.155,0.155,
3305,-0.165,0.145,
3306,-0.17,0.14,
3307,-0.16,0.155,
3308,-0.145,0.165,
3309,-0.15,0.18,
3310,-0.14,0.15,
3311,-0.15,0.13,
3312,-0.17,0.125,
3313,-0.165,0.135,
3314,-0.155,0.14,
3315,-0.13,0.18,
3316,-0.145,0.17,
3317,-0.145,0.175,
3318,-0.14,0.11,
3319,-0.145,0.055,
3320,-0.115,0.065,
3321,-0.1,0.1,
3322,-0.09,0.155,
3323,-0.095,0.165,
3324,-0.105,0.175,
3325,-0.11,0.17,
3326,-0.09,0.185,
3327,-0.07,0.185,
3328,-0.06,0.17,
3329,-0.055,0.145,
3330,-0.075,0.115,
3331,-0.075,0.115,
3332,-0.075,0.12,
3333,-0.08,0.125,
3334,-0.065,0.105,
3335,-0.075,0.09,
3336,-0.08,0.07,
3337,-0.085,0.09,
3338,-0.075,0.105,
3339,-0.09,0.09,
3340,-0.11,0.085,
3341,-0.125,0.09,
3342,-0.12,0.11,
3343,-0.135,0.115,
3344,-0.135,0.125,
3345,-0.13,0.135,
3346,-0.13,0.11,
3347,-0.145,0.07,
3348,-0.16,0.055,
3349,-0.16,0.065,
3350,-0.135,0.075,
3351,-0.12,0.105,
3352,-0.125,0.125,
3353,-0.15,0.15,
3354,-0.18,0.16,
3355,-0.18,0.16,
3356,-0.185,0.145,
3357,-0.19,0.11,
3358,-0.205,0.095,
3359,-0.22,0.11,
3360,-0.22,0.13,
3361,-0.22,0.14,
3362,-0.21,0.17,
3363,-0.205,0.17,
3364,-0.2,0.12,
3365,-0.22,0.095,
3366,-0.22,0.08,
3367,-0.205,0.095,
3368,-0.205,0.11,
3369,-0.21,0.13,
3370,-0.2,0.14,
3371,-0.205,0.14,
3372,-0.21,0.135,
3373,-0.2,0.135,
3374,-0.19,0.13,
3375,-0.205,0.15,
3376,-0.215,0.175,
3377,-0.23,0.18,
3378,-0.255,0.195,
3379,-0.29,0.22,
3380,-0.29,0.245,
3381,-0.26,0.245,
3382,-0.19,0.24,
3383,-0.095,0.22,
3384,0.045,0.24,
3385,0.225,0.275,
3386,0.465,0.3,
3387,0.725,0.31,
3388,0.985,0.26,
3389,1.155,0.2,N
3390,1.18,0.1,
3391,0.995,0.005,
3392,0.69,-0.05,
3393,0.31,-0.075,
3394,-0.135,-0.08,
3395,-0.595,-0.1,
3396,-0.855,-0.14,
3397,-0.85,-0.145,
3398,-0.725,-0.13,
3399,-0.575,-0.09,
3400,-0.475,-0.075,
3401,-0.38,-0.04,
3402,-0.34,0.025,
3403,-0.31,0.075,
3404,-0.26,0.13,
3405,-0.225,0.135,
3406,-0.22,0.105,
3407,-0.235,0.115,
3408,-0.24,0.12,
3409,-0.23,0.105,
3410,-0.22,0.12,
3411,-0.22,0.13,
3412,-0.235,0.15,
3413,-0.245,0.145,
3414,-0.24,0.125,
3415,-0.235,0.105,
3416,-0.23,0.115,
3417,-0.21,0.14,
3418,-0.2,0.15,
3419,-0.21,0.125,
3420,-0.225,0.115,
3421,-0.225,0.12,
3422,-0.21,0.145,
3423,-0.195,0.14,
3424,-0.2,0.135,
3425,-0.21,0.125,
3426,-0.2,0.105,
3427,-0.205,0.115,
3428,-0.185,0.145,
3429,-0.18,0.15,
3430,-0.17,0.155,
3431,-0.17,0.135,
3432,-0.175,0.135,
3433,-0.17,0.14,
3434,-0.16,0.16,
3435,-0.145,0.18,
3436,-0.14,0.175,
3437,-0.145,0.175,
3438,-0.14,0.18,
3439,-0.135,0.18,
3440,-0.11,0.175,
3441,-0.085,0.16,
3442,-0.07,0.135,
3443,-0.08,0.115,
3444,-0.065,0.125,
3445,-0.055,0.14,
3446,-0.035,0.16,
3447,-0.025,0.155,
3448,-0.025,0.155,
3449,-0.035,0.135,
3450,-0.005,0.14,
3451,0.0,0.15,
3452,0.015,0.18,
3453,0.035,0.18,
3454,0.03,0.185,
3455,0.05,0.17,
3456,0.035,0.165,
3457,0.05,0.18,
3458,0.06,0.19,
3459,0.08,0.175,
3460,0.075,0.165,
3461,0.08,0.16,
3462,0.075,0.175,
3463,0.065,0.19,
3464,0.095,0.215,
3465,0.11,0.215,
3466,0.12,0.21,
3467,0.115,0.19,
3468,0.1,0.19,
3469,0.1,0.195,
3470,0.11,0.215,
3471,0.125,0.22,
3472,0.13,0.205,
3473,0.12,0.19,
3474,0.105,0.165,
3475,0.11,0.15,
3476,0.12,0.145,
3477,0.115,0.16,
3478,0.095,0.17,
3479,0.085,0.155,
3480,0.055,0.155,
3481,0.04,0.165,
3482,0.04,0.19,
3483,0.045,0.175,
3484,0.025,0.18,
3485,0.005,0.17,
3486,-0.01,0.17,
3487,-0.04,0.17,
3488,-0.04,0.195,
3489,-0.045,0.18,
3490,-0.045,0.175,
3491,-0.07,0.15,
3492,-0.09,0.135,
3493,-0.105,0.155,
3494,-0.095,0.165,
3495,-0.09,0.17,
3496,-0.1,0.15,
3497,-0.125,0.125,
3498,-0.145,0.13,
3499,-0.145,0.14,
3500,-0.145,0.155,
3501,-0.12,0.16,
3502,-0.12,0.14,
3503,-0.155,0.11,
3504,-0.17,0.125,
3505,-0.175,0.145,
3506,-0.17,0.175,
3507,-0.155,0.195,
3508,-0.155,0.185,
3509,-0.15,0.16,
3510,-0.15,0.145,
3511,-0.175,0.14,
3512,-0.155,0.125,
3513,-0.14,0.13,
3514,-0.135,0.12,
3515,-0.14,0.115,
3516,-0.145,0.1,
3517,-0.15,0.12,
3518,-0.15,0.125,
3519,-0.135,0.13,
3520,-0.13,0.135,
3521,-0.15,0.145,
3522,-0.15,0.135,
3523,-0.155,0.135,
3524,-0.15,0.11,
3525,-0.14,0.12,
3526,-0.125,0.135,
3527,-0.135,0.12,
3528,-0.14,0.115,
3529,-0.155,0.105,
3530,-0.155,0.12,
3531,-0.15,0.13,
3532,-0.14,0.125,
3533,-0.16,0.1,
3534,-0.165,0.1,
3535,-0.16,0.095,
3536,-0.15,0.115,
3537,-0.135,0.13,
3538,-0.145,0.11,
3539,-0.155,0.115,
3540,-0.165,0.11,
3541,-0.16,0.105,
3542,-0.15,0.125,
3543,-0.145,0.15,
3544,-0.155,0.135,
3545,-0.15,0.11,
3546,-0.18,0.105,
3547,-0.18,0.11,
3548,-0.155,0.13,
3549,-0.14,0.145,
3550,-0.115,0.165,
3551,-0.115,0.14,
3552,-0.115,0.14,
3553,-0.095,0.165,
3554,-0.09,0.18,
3555,-0.09,0.155,
3556,-0.075,0.135,
3557,-0.075,0.15,
3558,-0.08,0.155,
3559,-0.065,0.15,
3560,-0.05,0.13,
3561,-0.055,0.115,
3562,-0.065,0.08,
3563,-0.07,0.075,
3564,-0.09,0.075,
3565,-0.1,0.07,
3566,-0.09,0.09,
3567,-0.055,0.08,
3568,-0.075,0.065,
3569,-0.105,0.06,
3570,-0.115,0.065,
3571,-0.135,0.08,
3572,-0.13,0.085,
3573,-0.135,0.075,
3574,-0.125,0.04,
3575,-0.14,0.01,
3576,-0.14,0.01,
3577,-0.15,0.04,
3578,-0.16,0.06,
3579,-0.135,0.095,
3580,-0.12,0.1,
3581,-0.13,0.105,
3582,-0.15,0.115,
3583,-0.16,0.14,
3584,-0.175,0.145,
3585,-0.18,0.125,
3586,-0.19,0.11,
3587,-0.215,0.09,
3588,-0.235,0.09,
3589,-0.235,0.115,
3590,-0.215,0.12,
3591,-0.21,0.155,
3592,-0.22,0.17,
3593,-0.235,0.205,
3594,-0.245,0.195,
3595,-0.24,0.165,
3596,-0.22,0.12,
3597,-0.215,0.1,
3598,-0.215,0.095,
3599,-0.215,0.115,
3600,-0.22,0.105,
3601,-0.225,0.095,
3602,-0.225,0.08,
3603,-0.2,0.085,
3604,-0.2,0.095,
3605,-0.225,0.095,
3606,-0.25,0.095,
3607,-0.265,0.125,
3608,-0.28,0.165,
3609,-0.285,0.205,
3610,-0.27,0.22,
3611,-0.25,0.22,
3612,-0.19,0.22,
3613,-0.075,0.215,
3614,0.085,0.235,
3615,0.3,0.265,
3616,0.565,0.275,
3617,0.82,0.265,
3618,1.04,0.215,N
3619,1.145,0.155,
3620,1.07,0.05,
3621,0.8,-0.065,
3622,0.425,-0.135,
3623,-0.02,-0.14,
3624,-0.495,-0.11,
3625,-0.82,-0.105,
3626,-0.89,-0.1,
3627,-0.775,-0.09,
3628,-0.645,-0.08,
3629,-0.535,-0.06,
3630,-0.425,-0.04,
3631,-0.345,-0.02,
3632,-0.3,-0.025,
3633,-0.255,0.0,
3634,-0.24,0.045,
3635,-0.235,0.07,
3636,-0.245,0.09,
3637,-0.245,0.09,
3638,-0.235,0.09,
3639,-0.23,0.085,
3640,-0.23,0.1,
3641,-0.23,0.105,
3642,-0.235,0.11,
3643,-0.235,0.105,
3644,-0.225,0.115,
3645,-0.22,0.13,
3646,-0.21,0.13,
3647,-0.22,0.13,
3648,-0.22,0.115,
3649,-0.21,0.12,
3650,-0.19,0.13,
3651,-0.18,0.125,
3652,-0.175,0.13,
3653,-0.185,0.14,
3654,-0.195,0.135,
3655,-0.195,0.16,
3656,-0.175,0.19,
3657,-0.16,0.205,
3658,-0.165,0.24,
3659,-0.165,0.24,
3660,-0.165,0.23,
3661,-0.155,0.185,
3662,-0.135,0.125,
3663,-0.135,0.095,
3664,-0.14,0.06,
3665,-0.15,0.045,
3666,-0.15,0.07,
3667,-0.15,0.1,
3668,-0.13,0.115,
3669,-0.105,0.11,
3670,-0.115,0.115,
3671,-0.105,0.125,
3672,-0.115,0.12,
3673,-0.085,0.13,
3674,-0.055,0.135,
3675,-0.035,0.13,
3676,-0.015,0.105,
3677,-0.035,0.12,
3678,-0.03,0.13,
3679,-0.025,0.15,
3680,0.0,0.17,
3681,0.01,0.19,
3682,0.03,0.195,
3683,0.03,0.185,
3684,0.035,0.175,
3685,0.045,0.175,
3686,0.035,0.195,
3687,0.065,0.21,
3688,0.08,0.21,
3689,0.075,0.225,
3690,0.085,0.215,
3691,0.09,0.21,
3692,0.105,0.19,
3693,0.115,0.18,
3694,0.095,0.15,
3695,0.12,0.125,
3696,0.105,0.1,
3697,0.1,0.095,
3698,0.105,0.13,
3699,0.105,0.145,
3700,0.1,0.15,
3701,0.095,0.135,
3702,0.1,0.15,
3703,0.085,0.15,
3704,0.085,0.165,
3705,0.085,0.17,
3706,0.08,0.175,
3707,0.055,0.175,
3708,0.045,0.165,
3709,0.025,0.16,
3710,0.02,0.16,
3711,0.01,0.165,
3712,0.0,0.16,
3713,-0.01,0.155,
3714,-0.03,0.155,
3715,-0.04,0.175,
3716,-0.07,0.19,
3717,-0.07,0.21,
3718,-0.09,0.185,
3719,-0.095,0.115,
3720,-0.115,0.085,
3721,-0.11,0.1,
3722,-0.105,0.13,
3723,-0.11,0.13,
3724,-0.12,0.115,
3725,-0.135,0.08,
3726,-0.155,0.06,
3727,-0.16,0.095,
3728,-0.155,0.115,
3729,-0.165,0.115,
3730,-0.165,0.105,
3731,-0.185,0.1,
3732,-0.2,0.1,
3733,-0.205,0.12,
3734,-0.19,0.135,
3735,-0.175,0.14,
3736,-0.175,0.12,
3737,-0.2,0.09,
3738,-0.21,0.095,
3739,-0.205,0.11,
3740,-0.185,0.14,
3741,-0.155,0.14,
3742,-0.145,0.145,
3743,-0.16,0.13,
3744,-0.18,0.145,
3745,-0.175,0.165,
3746,-0.175,0.175,
3747,-0.16,0.17,
3748,-0.155,0.145,
3749,-0.18,0.1,
3750,-0.185,0.07,
3751,-0.165,0.085,
3752,-0.145,0.08,
3753,-0.13,0.07,
3754,-0.135,0.09,
3755,-0.175,0.1,
3756,-0.18,0.085,
3757,-0.19,0.09,
3758,-0.165,0.095,
3759,-0.145,0.095,
3760,-0.15,0.08,
3761,-0.145,0.075,
3762,-0.175,0.065,
3763,-0.18,0.1,
3764,-0.175,0.13,
3765,-0.16,0.14,
3766,-0.14,0.135,
3767,-0.145,0.095,
3768,-0.165,0.085,
3769,-0.175,0.11,
3770,-0.175,0.125,
3771,-0.16,0.115,
3772,-0.17,0.115,
3773,-0.185,0.105,
3774,-0.185,0.11,
3775,-0.165,0.135,
3776,-0.125,0.185,
3777,-0.115,0.215,
3778,-0.11,0.205,
3779,-0.12,0.145,
3780,-0.115,0.1,
3781,-0.12,0.105,
3782,-0.115,0.12,
3783,-0.09,0.13,
3784,-0.09,0.1,
3785,-0.095,0.09,
3786,-0.105,0.075,
3787,-0.105,0.06,
3788,-0.095,0.045,
3789,-0.095,0.04,
3790,-0.105,0.04,
3791,-0.12,0.04,
3792,-0.135,0.04,
3793,-0.135,0.07,
3794,-0.125,0.08,
3795,-0.115,0.07,
3796,-0.135,0.055,
3797,-0.175,0.055,
3798,-0.21,0.055,
3799,-0.205,0.075,
3800,-0.165,0.055,
3801,-0.13,0.065,
3802,-0.14,0.06,
3803,-0.17,0.07,
3804,-0.2,0.085,
3805,-0.185,0.09,
3806,-0.16,0.1,
3807,-0.145,0.085,
3808,-0.155,0.075,
3809,-0.185,0.055,
3810,-0.215,0.065,
3811,-0.23,0.095,
3812,-0.23,0.12,
3813,-0.22,0.115,
3814,-0.23,0.1,
3815,-0.24,0.06,
3816,-0.23,0.035,
3817,-0.23,0.04,
3818,-0.215,0.055,
3819,-0.23,0.07,
3820,-0.23,0.08,
3821,-0.245,0.075,
3822,-0.26,0.065,
3823,-0.255,0.08,
3824,-0.24,0.115,
3825,-0.23,0.13,
3826,-0.225,0.125,
3827,-0.22,0.115,
3828,-0.215,0.12,
3829,-0.235,0.11,
3830,-0.235,0.12,
3831,-0.255,0.115,
3832,-0.275,0.1,
3833,-0.275,0.1,
3834,-0.305,0.105,
3835,-0.33,0.15,
3836,-0.3,0.19,
3837,-0.245,0.225,
3838,-0.175,0.225,
3839,-0.055,0.235,
3840,0.09,0.215,
3841,0.305,0.24,
3842,0.57,0.255,
3843,0.835,0.275,
3844,1.03,0.255,N
3845,1.13,0.18,
3846,1.035,0.1,
3847,0.83,0.01,
3848,0.55,-0.075,
3849,0.215,-0.095,
3850,-0.245,-0.09,
3851,-0.67,-0.085,
3852,-0.86,-0.06,
3853,-0.83,-0.04,
3854,-0.75,-0.04,
3855,-0.675,-0.06,
3856,-0.595,-0.065,
3857,-0.5,-0.055,
3858,-0.43,-0.025,
3859,-0.375,0.01,
3860,-0.33,0.03,
3861,-0.29,0.045,
3862,-0.295,0.05,
3863,-0.285,0.07,
3864,-0.28,0.05,
3865,-0.26,0.06,
3866,-0.26,0.085,
3867,-0.245,0.09,
3868,-0.26,0.105,
3869,-0.275,0.11,
3870,-0.29,0.105,
3871,-0.295,0.115,
3872,-0.29,0.125,
3873,-0.245,0.15,
3874,-0.235,0.135,
3875,-0.235,0.115,
3876,-0.235,0.105,
3877,-0.25,0.095,
3878,-0.255,0.09,
3879,-0.26,0.11,
3880,-0.255,0.115,
3881,-0.245,0.095,
3882,-0.235,0.075,
3883,-0.23,0.075,
3884,-0.215,0.105,
3885,-0.2,0.115,
3886,-0.21,0.13,
3887,-0.22,0.1,
3888,-0.215,0.08,
3889,-0.195,0.07,
3890,-0.185,0.07,
3891,-0.175,0.08,
3892,-0.17,0.075,
3893,-0.18,0.06,
3894,-0.165,0.06,
3895,-0.16,0.09,
3896,-0.14,0.11,
3897,-0.11,0.125,
3898,-0.095,0.135,
3899,-0.105,0.115,
3900,-0.095,0.105,
3901,-0.1,0.1,
3902,-0.08,0.1,
3903,-0.04,0.12,
3904,-0.04,0.115,
3905,-0.045,0.13,
3906,-0.04,0.115,
3907,-0.02,0.15,
3908,-0.015,0.145,
3909,0.01,0.15,
3910,0.015,0.155,
3911,0.015,0.16,
3912,0.01,0.15,
3913,0.015,0.13,
3914,0.04,0.135,
3915,0.06,0.135,
3916,0.065,0.175,
3917,0.05,0.19,
3918,0.035,0.17,
3919,0.05,0.13,
3920,0.07,0.1,
3921,0.085,0.09,
3922,0.065,0.085,
3923,0.05,0.1,
3924,0.04,0.115,
3925,0.055,0.15,
3926,0.065,0.15,
3927,0.085,0.155,
3928,0.07,0.12,
3929,0.065,0.095,
3930,0.05,0.11,
3931,0.04,0.165,
3932,0.04,0.18,
3933,0.045,0.175,
3934,0.04,0.135,
3935,0.01,0.115,
3936,-0.015,0.115,
3937,-0.03,0.13,
3938,-0.04,0.165,
3939,-0.045,0.17,
3940,-0.07,0.16,
3941,-0.09,0.155,
3942,-0.105,0.15,
3943,-0.14,0.155,
3944,-0.155,0.14,
3945,-0.16,0.12,
3946,-0.16,0.115,
3947,-0.18,0.095,
3948,-0.2,0.09,
3949,-0.205,0.13,
3950,-0.2,0.15,
3951,-0.205,0.165,
3952,-0.215,0.145,
3953,-0.205,0.14,
3954,-0.22,0.105,
3955,-0.23,0.105,
3956,-0.225,0.12,
3957,-0.21,0.145,
3958,-0.205,0.165,
3959,-0.225,0.175,
3960,-0.225,0.175,
3961,-0.21,0.15,
3962,-0.195,0.125,
3963,-0.19,0.125,
3964,-0.21,0.14,
3965,-0.215,0.13,
3966,-0.225,0.115,
3967,-0.22,0.12,
3968,-0.21,0.135,
3969,-0.185,0.14,
3970,-0.195,0.15,
3971,-0.205,0.145,
3972,-0.22,0.14,
3973,-0.21,0.145,
3974,-0.18,0.145,
3975,-0.165,0.12,
3976,-0.175,0.11,
3977,-0.18,0.095,
3978,-0.185,0.09,
3979,-0.185,0.105,
3980,-0.185,0.125,
3981,-0.185,0.155,
3982,-0.19,0.16,
3983,-0.195,0.16,
3984,-0.2,0.155,
3985,-0.195,0.185,
3986,-0.18,0.195,
3987,-0.16,0.18,
3988,-0.15,0.145,
3989,-0.16,0.12,
3990,-0.175,0.115,
3991,-0.18,0.12,
3992,-0.165,0.11,
3993,-0.155,0.125,
3994,-0.135,0.155,
3995,-0.13,0.15,
3996,-0.145,0.145,
3997,-0.15,0.15,
3998,-0.135,0.18,
3999,-0.125,0.185,
4000,-0.125,0.18,
4001,-0.145,0.155,
4002,-0.16,0.125,
4003,-0.155,0.125,
4004,-0.145,0.125,
4005,-0.145,0.11,
4006,-0.15,0.09,
4007,-0.175,0.085,
4008,-0.18,0.115,
4009,-0.18,0.125,
4010,-0.165,0.13,
4011,-0.155,0.125,
4012,-0.165,0.105,
4013,-0.195,0.065,
4014,-0.215,0.045,
4015,-0.225,0.07,
4016,-0.23,0.08,
4017,-0.205,0.11,
4018,-0.205,0.105,
4019,-0.225,0.105,
4020,-0.22,0.1,
4021,-0.215,0.11,
4022,-0.2,0.115,
4023,-0.2,0.125,
4024,-0.205,0.12,
4025,-0.23,0.115,
4026,-0.245,0.115,
4027,-0.27,0.13,
4028,-0.27,0.135,
4029,-0.255,0.13,
4030,-0.26,0.135,
4031,-0.28,0.15,
4032,-0.295,0.165,
4033,-0.28,0.175,
4034,-0.26,0.17,
4035,-0.26,0.175,
4036,-0.27,0.165,
4037,-0.285,0.165,
4038,-0.275,0.15,
4039,-0.265,0.165,
4040,-0.25,0.155,
4041,-0.23,0.15,
4042,-0.235,0.125,
4043,-0.275,0.14,
4044,-0.27,0.155,
4045,-0.27,0.175,
4046,-0.265,0.185,
4047,-0.25,0.22,
4048,-0.255,0.22,
4049,-0.3,0.21,
4050,-0.33,0.165,
4051,-0.36,0.16,
4052,-0.335,0.19,
4053,-0.265,0.225,
4054,-0.185,0.255,
4055,-0.055,0.26,
4056,0.105,0.28,
4057,0.335,0.3,
4058,0.62,0.325,
4059,0.89,0.32,
4060,1.095,0.28,N
4061,1.16,0.2,
4062,1.03,0.085,
4063,0.745,0.005,
4064,0.37,-0.01,
4065,-0.06,0.025,
4066,-0.54,0.02,
4067,-0.855,-0.02,
4068,-0.925,-0.065,
4069,-0.855,-0.07,
4070,-0.74,-0.05,
4071,-0.63,0.0,
4072,-0.525,0.025,
4073,-0.435,0.07,
4074,-0.37,0.1,
4075,-0.335,0.105,
4076,-0.295,0.085,
4077,-0.27,0.09,
4078,-0.255,0.12,
4079,-0.26,0.125,
4080,-0.26,0.115,
4081,-0.26,0.11,
4082,-0.25,0.13,
4083,-0.24,0.145,
4084,-0.245,0.14,
4085,-0.26,0.13,
4086,-0.26,0.14,
4087,-0.26,0.145,
4088,-0.24,0.16,
4089,-0.24,0.18,
4090,-0.245,0.185,
4091,-0.245,0.175,
4092,-0.245,0.165,
4093,-0.245,0.18,
4094,-0.235,0.2,
4095,-0.235,0.205,
4096,-0.23,0.21,
4097,-0.23,0.195,
4098,-0.22,0.165,
4099,-0.205,0.185,
4100,-0.19,0.205,
4101,-0.175,0.2,
4102,-0.18,0.19,
4103,-0.185,0.175,
4104,-0.19,0.16,
4105,-0.185,0.175,
4106,-0.165,0.185,
4107,-0.16,0.185,
4108,-0.155,0.195,
4109,-0.155,0.2,
4110,-0.14,0.21,
4111,-0.145,0.205,
4112,-0.14,0.205,
4113,-0.11,0.215,
4114,-0.095,0.215,
4115,-0.095,0.2,
4116,-0.075,0.195,
4117,-0.06,0.19,
4118,-0.035,0.185,
4119,-0.03,0.205,
4120,-0.02,0.215,
4121,-0.015,0.21,
4122,-0.005,0.205,
4123,0.015,0.195,
4124,0.02,0.22,
4125,0.025,0.225,
4126,0.025,0.235,
4127,0.035,0.22,
4128,0.03,0.22,
4129,0.04,0.24,
4130,0.06,0.245,
4131,0.08,0.24,
4132,0.07,0.23,
4133,0.065,0.205,
4134,0.055,0.215,
4135,0.06,0.24,
4136,0.08,0.235,
4137,0.105,0.235,
4138,0.11,0.225,
4139,0.09,0.215,
4140,0.09,0.225,
4141,0.085,0.23,
4142,0.1,0.25,
4143,0.1,0.275,
4144,0.085,0.255,
4145,0.075,0.245,
4146,0.075,0.25,
4147,0.065,0.25,
4148,0.08,0.26,
4149,0.095,0.25,
4150,0.075,0.21,
4151,0.055,0.195,
4152,0.045,0.175,
4153,0.015,0.2,
4154,0.01,0.225,
4155,-0.01,0.255,
4156,-0.03,0.235,
4157,-0.05,0.215,
4158,-0.07,0.2,
4159,-0.095,0.2,
4160,-0.08,0.225,
4161,-0.08,0.235,
4162,-0.09,0.25,
4163,-0.095,0.23,
4164,-0.1,0.205,
4165,-0.13,0.2,
4166,-0.13,0.22,
4167,-0.125,0.225,
4168,-0.14,0.23,
4169,-0.14,0.215,
4170,-0.15,0.2,
4171,-0.16,0.215,
4172,-0.16,0.215,
4173,-0.155,0.2,
4174,-0.14,0.195,
4175,-0.16,0.205,
4176,-0.175,0.22,
4177,-0.18,0.235,
4178,-0.165,0.235,
4179,-0.145,0.21,
4180,-0.15,0.195,
4181,-0.17,0.19,
4182,-0.17,0.205,
4183,-0.165,0.235,
4184,-0.14,0.225,
4185,-0.145,0.24,
4186,-0.145,0.225,
4187,-0.15,0.2,
4188,-0.15,0.185,
4189,-0.16,0.19,
4190,-0.145,0.205,
4191,-0.135,0.215,
4192,-0.14,0.235,
4193,-0.155,0.22,
4194,-0.155,0.22,
4195,-0.16,0.21,
4196,-0.16,0.22,
4197,-0.125,0.22,
4198,-0.135,0.2,
4199,-0.145,0.17,
4200,-0.15,0.175,
4201,-0.15,0.185,
4202,-0.15,0.215,
4203,-0.14,0.24,
4204,-0.15,0.235,
4205,-0.15,0.23,
4206,-0.155,0.22,
4207,-0.17,0.23,
4208,-0.14,0.245,
4209,-0.125,0.215,
4210,-0.13,0.2,
4211,-0.155,0.19,
4212,-0.17,0.185,
4213,-0.16,0.205,
4214,-0.14,0.215,
4215,-0.135,0.205,
4216,-0.14,0.2,
4217,-0.155,0.195,
4218,-0.165,0.195,
4219,-0.16,0.2,
4220,-0.12,0.24,
4221,-0.1,0.235,
4222,-0.085,0.225,
4223,-0.085,0.205,
4224,-0.085,0.225,
4225,-0.1,0.25,
4226,-0.105,0.285,
4227,-0.08,0.31,
4228,-0.08,0.3,
4229,-0.06,0.25,
4230,-0.065,0.185,
4231,-0.06,0.155,
4232,-0.055,0.165,
4233,-0.04,0.17,
4234,-0.065,0.19,
4235,-0.07,0.21,
4236,-0.075,0.215,
4237,-0.08,0.205,
4238,-0.065,0.165,
4239,-0.065,0.15,
4240,-0.07,0.15,
4241,-0.095,0.135,
4242,-0.105,0.135,
4243,-0.115,0.13,
4244,-0.125,0.15,
4245,-0.125,0.155,
4246,-0.12,0.14,
4247,-0.11,0.135,
4248,-0.125,0.14,
4249,-0.14,0.155,
4250,-0.115,0.175,
4251,-0.105,0.18,
4252,-0.105,0.18,
4253,-0.12,0.195,
4254,-0.145,0.205,
4255,-0.15,0.22,
4256,-0.15,0.23,
4257,-0.15,0.225,
4258,-0.16,0.215,
4259,-0.195,0.205,
4260,-0.19,0.2,
4261,-0.205,0.2,
4262,-0.185,0.195,
4263,-0.195,0.195,
4264,-0.195,0.195,
4265,-0.22,0.195,
4266,-0.205,0.21,
4267,-0.22,0.215,
4268,-0.2,0.225,
4269,-0.17,0.215,
4270,-0.18,0.215,
4271,-0.18,0.2,
4272,-0.195,0.175,
4273,-0.215,0.18,
4274,-0.195,0.18,
4275,-0.2,0.195,
4276,-0.195,0.185,
4277,-0.215,0.185,
4278,-0.22,0.175,
4279,-0.225,0.205,
4280,-0.225,0.21,
4281,-0.22,0.225,
4282,-0.245,0.205,
4283,-0.275,0.225,
4284,-0.26,0.265,
4285,-0.215,0.295,
4286,-0.095,0.325,
4287,0.065,0.34,
4288,0.25,0.355,
4289,0.49,0.365,
4290,0.725,0.39,
4291,0.99,0.395,
4292,1.235,0.38,N
4293,1.33,0.315,
4294,1.225,0.175,
4295,0.925,0.045,
4296,0.545,-0.04,
4297,0.11,-0.045,
4298,-0.35,-0.01,
4299,-0.7,-0.01,
4300,-0.85,-0.035,
4301,-0.825,-0.06,
4302,-0.705,-0.075,
4303,-0.595,-0.05,
4304,-0.47,0.0,
4305,-0.37,0.02,
4306,-0.335,0.035,
4307,-0.29,0.04,
4308,-0.275,0.075,
4309,-0.25,0.115,
4310,-0.22,0.14,
4311,-0.2,0.15,
4312,-0.195,0.145,
4313,-0.205,0.125,
4314,-0.225,0.145,
4315,-0.245,0.145,
4316,-0.215,0.17,
4317,-0.205,0.175,
4318,-0.205,0.18,
4319,-0.24,0.175,
4320,-0.23,0.175,
4321,-0.23,0.175,
4322,-0.215,0.195,
4323,-0.205,0.21,
4324,-0.205,0.21,
4325,-0.23,0.19,
4326,-0.23,0.185,
4327,-0.235,0.225,
4328,-0.205,0.24,
4329,-0.185,0.245,
4330,-0.18,0.245,
4331,-0.185,0.22,
4332,-0.195,0.21,
4333,-0.195,0.2,
4334,-0.17,0.175,
4335,-0.15,0.19,
4336,-0.155,0.205,
4337,-0.155,0.2,
4338,-0.155,0.175,
4339,-0.15,0.135,
4340,-0.13,0.13,
4341,-0.11,0.15,
4342,-0.105,0.195,
4343,-0.115,0.185,
4344,-0.1,0.185,
4345,-0.095,0.19,
4346,-0.085,0.2,
4347,-0.065,0.215,
4348,-0.08,0.23,
4349,-0.075,0.235,
4350,-0.07,0.21,
4351,-0.075,0.205,
4352,-0.045,0.235,
4353,-0.03,0.25,
4354,-0.02,0.255,
4355,-0.015,0.22,
4356,-0.005,0.21,
4357,-0.015,0.215,
4358,0.02,0.245,
4359,0.035,0.245,
4360,0.06,0.23,
4361,0.035,0.215,
4362,0.03,0.215,
4363,0.035,0.23,
4364,0.055,0.26,
4365,0.1,0.28,
4366,0.1,0.275,
4367,0.095,0.265,
4368,0.085,0.24,
4369,0.095,0.23,
4370,0.115,0.23,
4371,0.125,0.23,
4372,0.125,0.215,
4373,0.115,0.21,
4374,0.11,0.215,
4375,0.1,0.225,
4376,0.12,0.255,
4377,0.125,0.25,
4378,0.12,0.235,
4379,0.11,0.225,
4380,0.1,0.225,
4381,0.09,0.24,
4382,0.105,0.255,
4383,0.12,0.27,
4384,0.115,0.275,
4385,0.1,0.26,
4386,0.09,0.245,
4387,0.055,0.22,
4388,0.04,0.23,
4389,0.035,0.235,
4390,0.02,0.24,
4391,0.01,0.24,
4392,-0.015,0.225,
4393,-0.03,0.21,
4394,-0.04,0.18,
4395,-0.05,0.175,
4396,-0.055,0.18,
4397,-0.075,0.18,
4398,-0.095,0.205,
4399,-0.1,0.215,
4400,-0.105,0.24,
4401,-0.095,0.255,
4402,-0.105,0.255,
4403,-0.12,0.21,
4404,-0.125,0.165,
4405,-0.14,0.14,
4406,-0.14,0.16,
4407,-0.135,0.19,
4408,-0.125,0.205,
4409,-0.16,0.21,
4410,-0.155,0.22,
4411,-0.16,0.215,
4412,-0.14,0.22,
4413,-0.135,0.21,
4414,-0.14,0.195,
4415,-0.155,0.19,
4416,-0.155,0.19,
4417,-0.165,0.21,
4418,-0.16,0.22,
4419,-0.135,0.22,
4420,-0.145,0.185,
4421,-0.16,0.165,
4422,-0.16,0.165,
4423,-0.16,0.175,
4424,-0.14,0.175,
4425,-0.14,0.185,
4426,-0.135,0.175,
4427,-0.16,0.165,
4428,-0.145,0.175,
4429,-0.155,0.185,
4430,-0.15,0.205,
4431,-0.13,0.2,
4432,-0.13,0.18,
4433,-0.13,0.165,
4434,-0.14,0.155,
4435,-0.15,0.18,
4436,-0.135,0.215,
4437,-0.12,0.22,
4438,-0.13,0.195,
4439,-0.135,0.175,
4440,-0.15,0.165,
4441,-0.15,0.185,
4442,-0.135,0.195,
4443,-0.115,0.22,
4444,-0.13,0.24,
4445,-0.15,0.225,
4446,-0.145,0.195,
4447,-0.15,0.195,
4448,-0.13,0.185,
4449,-0.125,0.185,
4450,-0.125,0.19,
4451,-0.14,0.175,
4452,-0.145,0.175,
4453,-0.15,0.165,
4454,-0.14,0.175,
4455,-0.125,0.195,
4456,-0.13,0.185,
4457,-0.14,0.175,
4458,-0.125,0.16,
4459,-0.1,0.17,
4460,-0.08,0.175,
4461,-0.055,0.205,
4462,-0.09,0.24,
4463,-0.11,0.235,
4464,-0.095,0.22,
4465,-0.07,0.2,
4466,-0.075,0.2,
4467,-0.05,0.2,
4468,-0.065,0.215,
4469,-0.065,0.215,
4470,-0.085,0.2,
4471,-0.075,0.19,
4472,-0.075,0.19,
4473,-0.06,0.17,
4474,-0.065,0.14,
4475,-0.095,0.105,
4476,-0.11,0.095,
4477,-0.115,0.105,
4478,-0.1,0.13,
4479,-0.09,0.14,
4480,-0.095,0.125,
4481,-0.135,0.115,
4482,-0.14,0.115,
4483,-0.14,0.08,
4484,-0.12,0.08,
4485,-0.125,0.1,
4486,-0.12,0.125,
4487,-0.11,0.13,
4488,-0.115,0.125,
4489,-0.12,0.13,
4490,-0.12,0.15,
4491,-0.125,0.17,
4492,-0.12,0.175,
4493,-0.145,0.16,
4494,-0.185,0.16,
4495,-0.19,0.155,
4496,-0.18,0.16,
4497,-0.165,0.165,
4498,-0.155,0.16,
4499,-0.17,0.165,
4500,-0.19,0.165,
4501,-0.205,0.175,
4502,-0.18,0.19,
4503,-0.175,0.19,
4504,-0.185,0.195,
4505,-0.19,0.195,
4506,-0.195,0.185,
4507,-0.205,0.18,
4508,-0.2,0.18,
4509,-0.185,0.185,
4510,-0.175,0.185,
4511,-0.17,0.185,
4512,-0.195,0.19,
4513,-0.2,0.19,
4514,-0.205,0.2,
4515,-0.175,0.185,
4516,-0.165,0.16,
4517,-0.2,0.14,
4518,-0.24,0.15,
4519,-0.28,0.19,
4520,-0.275,0.25,
4521,-0.235,0.295,
4522,-0.16,0.3,
4523,-0.06,0.295,
4524,0.095,0.27,
4525,0.285,0.27,
4526,0.54,0.305,
4527,0.8,0.325,
4528,1.055,0.31,N
4529,1.21,0.265,
4530,1.185,0.165,
4531,0.97,0.065,
4532,0.615,-0.015,
4533,0.195,-0.025,
4534,-0.295,-0.05,
4535,-0.715,-0.075,
4536,-0.85,-0.105,
4537,-0.79,-0.09,
4538,-0.63,-0.065,
4539,-0.495,-0.02,
4540,-0.39,0.01,
4541,-0.34,0.05,
4542,-0.3,0.085,
4543,-0.265,0.13,
4544,-0.235,0.165,
4545,-0.205,0.18,
4546,-0.21,0.185,
4547,-0.22,0.18,
4548,-0.22,0.15,
4549,-0.205,0.15,
4550,-0.21,0.145,
4551,-0.19,0.14,
4552,-0.2,0.15,
4553,-0.205,0.17,
4554,-0.215,0.17,
4555,-0.2,0.19,
4556,-0.19,0.19,
4557,-0.195,0.185,
4558,-0.185,0.17,
4559,-0.195,0.15,
4560,-0.195,0.165,
4561,-0.205,0.175,
4562,-0.185,0.19,
4563,-0.165,0.19,
4564,-0.165,0.18,
4565,-0.19,0.17,
4566,-0.195,0.16,
4567,-0.185,0.18,
4568,-0.18,0.205,
4569,-0.17,0.225,
4570,-0.16,0.205,
4571,-0.155,0.18,
4572,-0.15,0.16,
4573,-0.155,0.165,
4574,-0.135,0.19,
4575,-0.115,0.22,
4576,-0.12,0.245,
4577,-0.12,0.22,
4578,-0.115,0.215,
4579,-0.115,0.205,
4580,-0.085,0.205,
4581,-0.065,0.19,
4582,-0.055,0.18,
4583,-0.07,0.18,
4584,-0.065,0.16,
4585,-0.04,0.185,
4586,-0.025,0.18,
4587,-0.015,0.205,
4588,-0.005,0.22,
4589,-0.015,0.225,
4590,-0.005,0.225,
4591,0.005,0.215,
4592,0.02,0.2,
4593,0.025,0.19,
4594,0.03,0.175,
4595,0.035,0.17,
4596,0.035,0.18,
4597,0.05,0.185,
4598,0.065,0.19,
4599,0.085,0.22,
4600,0.1,0.225,
4601,0.095,0.235,
4602,0.1,0.215,
4603,0.095,0.225,
4604,0.11,0.24,
4605,0.12,0.22,
4606,0.135,0.2,
4607,0.13,0.2,
4608,0.105,0.21,
4609,0.105,0.23,
4610,0.105,0.26,
4611,0.135,0.26,
4612,0.13,0.25,
4613,0.13,0.215,
4614,0.11,0.205,
4615,0.12,0.205,
4616,0.12,0.23,
4617,0.14,0.24,
4618,0.125,0.245,
4619,0.105,0.245,
4620,0.1,0.22,
4621,0.08,0.21,
4622,0.08,0.21,
4623,0.09,0.205,
4624,0.09,0.18,
4625,0.06,0.17,
4626,0.015,0.155,
4627,0.01,0.16,
4628,0.0,0.175,
4629,0.0,0.195,
4630,-0.02,0.195,
4631,-0.055,0.19,
4632,-0.075,0.205,
4633,-0.085,0.21,
4634,-0.085,0.22,
4635,-0.08,0.2,
4636,-0.095,0.18,
4637,-0.115,0.155,
4638,-0.115,0.15,
4639,-0.12,0.15,
4640,-0.105,0.16,
4641,-0.105,0.165,
4642,-0.115,0.165,
4643,-0.12,0.165,
4644,-0.155,0.165,
4645,-0.145,0.18,
4646,-0.15,0.2,
4647,-0.14,0.225,
4648,-0.14,0.235,
4649,-0.155,0.245,
4650,-0.17,0.23,
4651,-0.15,0.205,
4652,-0.15,0.17,
4653,-0.125,0.14,
4654,-0.13,0.12,
4655,-0.125,0.11,
4656,-0.145,0.105,
4657,-0.145,0.12,
4658,-0.13,0.165,
4659,-0.125,0.17,
4660,-0.115,0.165,
4661,-0.13,0.165,
4662,-0.14,0.16,
4663,-0.14,0.175,
4664,-0.14,0.205,
4665,-0.125,0.22,
4666,-0.13,0.225,
4667,-0.155,0.2,
4668,-0.155,0.185,
4669,-0.15,0.16,
4670,-0.15,0.165,
4671,-0.125,0.18,
4672,-0.14,0.16,
4673,-0.155,0.145,
4674,-0.155,0.135,
4675,-0.155,0.12,
4676,-0.15,0.125,
4677,-0.135,0.13,
4678,-0.15,0.13,
4679,-0.175,0.14,
4680,-0.175,0.14,
4681,-0.18,0.155,
4682,-0.165,0.18,
4683,-0.15,0.185,
4684,-0.155,0.185,
4685,-0.165,0.155,
4686,-0.17,0.14,
4687,-0.17,0.15,
4688,-0.15,0.15,
4689,-0.145,0.155,
4690,-0.145,0.155,
4691,-0.16,0.165,
4692,-0.165,0.175,
4693,-0.15,0.185,
4694,-0.125,0.175,
4695,-0.095,0.185,
4696,-0.075,0.15,
4697,-0.105,0.15,
4698,-0.11,0.165,
4699,-0.11,0.195,
4700,-0.11,0.215,
4701,-0.09,0.2,
4702,-0.09,0.19,
4703,-0.085,0.165,
4704,-0.115,0.14,
4705,-0.11,0.14,
4706,-0.11,0.155,
4707,-0.105,0.155,
4708,-0.085,0.135,
4709,-0.1,0.1,
4710,-0.12,0.08,
4711,-0.125,0.1,
4712,-0.125,0.13,
4713,-0.11,0.14,
4714,-0.125,0.09,
4715,-0.125,0.045,
4716,-0.15,0.01,
4717,-0.185,0.025,
4718,-0.18,0.05,
4719,-0.17,0.065,
4720,-0.16,0.07,
4721,-0.165,0.07,
4722,-0.175,0.07,
4723,-0.18,0.075,
4724,-0.16,0.105,
4725,-0.14,0.135,
4726,-0.135,0.14,
4727,-0.165,0.14,
4728,-0.18,0.145,
4729,-0.2,0.135,
4730,-0.205,0.14,
4731,-0.22,0.135,
4732,-0.22,0.125,
4733,-0.23,0.125,
4734,-0.235,0.115,
4735,-0.255,0.115,
4736,-0.235,0.125,
4737,-0.235,0.13,
4738,-0.23,0.135,
4739,-0.255,0.13,
4740,-0.265,0.135,
4741,-0.26,0.15,
4742,-0.25,0.165,
4743,-0.235,0.17,
4744,-0.235,0.16,
4745,-0.235,0.145,
4746,-0.24,0.13,
4747,-0.255,0.12,
4748,-0.23,0.145,
4749,-0.235,0.155,
4750,-0.23,0.165,
4751,-0.235,0.145,
4752,-0.255,0.13,
4753,-0.27,0.135,
4754,-0.285,0.14,
4755,-0.295,0.16,
4756,-0.32,0.18,
4757,-0.34,0.205,
4758,-0.34,0.215,
4759,-0.315,0.255,
4760,-0.24,0.275,
4761,-0.11,0.295,
4762,0.035,0.27,
4763,0.22,0.255,
4764,0.42,0.245,
4765,0.66,0.255,
4766,0.915,0.25,
4767,1.09,0.23,N
4768,1.1,0.15,
4769,0.91,0.025,
4770,0.63,-0.1,
4771,0.26,-0.145,
4772,-0.185,-0.13,
4773,-0.62,-0.1,
4774,-0.89,-0.11,
4775,-0.93,-0.11,
4776,-0.855,-0.08,
4777,-0.735,-0.055,
4778,-0.615,-0.03,
4779,-0.505,-0.03,
4780,-0.43,-0.045,
4781,-0.39,-0.05,
4782,-0.36,-0.03,
4783,-0.345,0.015,
4784,-0.325,0.07,
4785,-0.305,0.125,
4786,-0.295,0.15,
4787,-0.295,0.13,
4788,-0.3,0.09,
4789,-0.295,0.07,
4790,-0.28,0.085,
4791,-0.275,0.115,
4792,-0.27,0.12,
4793,-0.26,0.1,
4794,-0.265,0.09,
4795,-0.28,0.095,
4796,-0.265,0.115,
4797,-0.255,0.14,
4798,-0.265,0.145,
4799,-0.28,0.145,
4800,-0.29,0.15,
4801,-0.28,0.16,
4802,-0.26,0.15,
4803,-0.25,0.14,
4804,-0.235,0.115,
4805,-0.25,0.08,
4806,-0.265,0.085,
4807,-0.255,0.11,
4808,-0.245,0.13,
4809,-0.24,0.145,
4810,-0.235,0.155,
4811,-0.245,0.135,
4812,-0.25,0.135,
4813,-0.26,0.15,
4814,-0.235,0.175,
4815,-0.21,0.18,
4816,-0.19,0.155,
4817,-0.19,0.13,
4818,-0.205,0.12,
4819,-0.19,0.13,
4820,-0.165,0.155,
4821,-0.15,0.17,
4822,-0.15,0.185,
4823,-0.135,0.16,
4824,-0.13,0.13,
4825,-0.125,0.14,
4826,-0.095,0.135,
4827,-0.08,0.135,
4828,-0.075,0.125,
4829,-0.065,0.12,
4830,-0.06,0.12,
4831,-0.075,0.155,
4832,-0.035,0.175,
4833,-0.035,0.175,
4834,-0.02,0.17,
4835,-0.025,0.145,
4836,-0.02,0.125,
4837,-0.015,0.155,
4838,-0.005,0.16,
4839,0.01,0.16,
4840,-0.015,0.175,
4841,0.005,0.17,
4842,0.02,0.17,
4843,0.025,0.155,
4844,0.04,0.165,
4845,0.07,0.165,
4846,0.055,0.18,
4847,0.045,0.155,
4848,0.04,0.165,
4849,0.04,0.17,
4850,0.04,0.175,
4851,0.06,0.165,
4852,0.075,0.135,
4853,0.055,0.125,
4854,0.05,0.135,
4855,0.035,0.145,
4856,0.04,0.17,
4857,0.04,0.165,
4858,0.03,0.155,
4859,0.01,0.14,
4860,0.0,0.135,
4861,-0.015,0.14,
4862,-0.015,0.13,
4863,-0.03,0.135,
4864,-0.035,0.115,
4865,-0.06,0.115,
4866,-0.08,0.135,
4867,-0.095,0.155,
4868,-0.105,0.17,
4869,-0.105,0.15,
4870,-0.12,0.15,
4871,-0.14,0.13,
4872,-0.15,0.14,
4873,-0.17,0.13,
4874,-0.18,0.125,
4875,-0.17,0.12,
4876,-0.175,0.125,
4877,-0.205,0.12,
4878,-0.22,0.12,
4879,-0.225,0.14,
4880,-0.215,0.165,
4881,-0.21,0.155,
4882,-0.2,0.15,
4883,-0.215,0.11,
4884,-0.23,0.09,
4885,-0.225,0.095,
4886,-0.23,0.09,
4887,-0.22,0.115,
4888,-0.215,0.115,
4889,-0.225,0.11,
4890,-0.245,0.1,
4891,-0.25,0.1,
4892,-0.235,0.125,
4893,-0.235,0.135,
4894,-0.235,0.12,
4895,-0.255,0.1,
4896,-0.24,0.08,
4897,-0.24,0.08,
4898,-0.245,0.095,
4899,-0.225,0.105,
4900,-0.23,0.115,
4901,-0.25,0.1,
4902,-0.28,0.1,
4903,-0.27,0.105,
4904,-0.28,0.11,
4905,-0.255,0.125,
4906,-0.24,0.125,
4907,-0.245,0.12,
4908,-0.24,0.12,
4909,-0.24,0.135,
4910,-0.215,0.14,
4911,-0.215,0.14,
4912,-0.225,0.115,
4913,-0.24,0.11,
4914,-0.265,0.115,
4915,-0.255,0.12,
4916,-0.23,0.115,
4917,-0.225,0.1,
4918,-0.245,0.085,
4919,-0.255,0.08,
4920,-0.255,0.09,
4921,-0.245,0.105,
4922,-0.23,0.1,
4923,-0.225,0.115,
4924,-0.235,0.105,
4925,-0.23,0.11,
4926,-0.235,0.115,
4927,-0.25,0.125,
4928,-0.245,0.13,
4929,-0.225,0.14,
4930,-0.24,0.145,
4931,-0.245,0.135,
4932,-0.255,0.155,
4933,-0.255,0.165,
4934,-0.235,0.14,
4935,-0.21,0.11,
4936,-0.2,0.095,
4937,-0.205,0.075,
4938,-0.19,0.115,
4939,-0.195,0.15,
4940,-0.18,0.16,
4941,-0.185,0.16,
4942,-0.185,0.13,
4943,-0.19,0.1,
4944,-0.185,0.085,
4945,-0.185,0.085,
4946,-0.185,0.11,
4947,-0.17,0.11,
4948,-0.185,0.095,
4949,-0.185,0.085,
4950,-0.19,0.05,
4951,-0.19,0.04,
4952,-0.175,0.045,
4953,-0.165,0.04,
4954,-0.19,0.04,
4955,-0.215,0.045,
4956,-0.24,0.045,
4957,-0.235,0.05,
4958,-0.23,0.05,
4959,-0.235,0.05,
4960,-0.245,0.055,
4961,-0.26,0.04,
4962,-0.265,0.06,
4963,-0.255,0.065,
4964,-0.25,0.075,
4965,-0.245,0.09,
4966,-0.23,0.08,
4967,-0.215,0.085,
4968,-0.225,0.075,
4969,-0.235,0.085,
4970,-0.245,0.105,
4971,-0.255,0.125,
4972,-0.275,0.12,
4973,-0.305,0.115,
4974,-0.345,0.095,
4975,-0.35,0.1,
4976,-0.325,0.1,
4977,-0.295,0.1,
4978,-0.3,0.09,
4979,-0.305,0.075,
4980,-0.32,0.09,
4981,-0.31,0.085,
4982,-0.27,0.08,
4983,-0.265,0.05,
4984,-0.265,0.04,
4985,-0.305,0.045,
4986,-0.32,0.07,
4987,-0.335,0.1,
4988,-0.315,0.115,
4989,-0.315,0.105,
4990,-0.3,0.1,
4991,-0.295,0.085,
4992,-0.29,0.07,
4993,-0.305,0.075,
4994,-0.29,0.09,
4995,-0.29,0.105,
4996,-0.32,0.095,
4997,-0.35,0.08,
4998,-0.385,0.09,
4999,-0.41,0.14,
5000,-0.41,0.18,
5001,-0.37,0.2,
5002,-0.325,0.2,
5003,-0.205,0.215,
5004,-0.065,0.21,
5005,0.125,0.205,
5006,0.365,0.21,
5007,0.62,0.23,
5008,0.855,0.225,
5009,1.015,0.195,N
5010,1.015,0.115,
5011,0.865,0.025,
5012,0.605,-0.045,
5013,0.27,-0.06,
5014,-0.155,-0.055,
5015,-0.625,-0.03,
5016,-0.92,-0.01,
5017,-0.975,0.0,
5018,-0.89,-0.005,
5019,-0.8,-0.04,
5020,-0.715,-0.105,
5021,-0.625,-0.11,
5022,-0.55,-0.06,
5023,-0.485,-0.015,
5024,-0.43,0.045,
5025,-0.39,0.05,
5026,-0.395,0.065,
5027,-0.36,0.07,
5028,-0.355,0.07,
5029,-0.345,0.075,
5030,-0.35,0.08,
5031,-0.34,0.08,
5032,-0.345,0.09,
5033,-0.35,0.07,
5034,-0.34,0.06,
5035,-0.34,0.045,
5036,-0.33,0.07,
5037,-0.325,0.075,
5038,-0.31,0.065,
5039,-0.32,0.055,
5040,-0.335,0.045,
5041,-0.33,0.07,
5042,-0.33,0.085,
5043,-0.315,0.105,
5044,-0.32,0.1,
5045,-0.33,0.1,
5046,-0.335,0.095,
5047,-0.33,0.12,
5048,-0.315,0.15,
5049,-0.305,0.155,
5050,-0.29,0.15,
5051,-0.29,0.12,
5052,-0.29,0.125,
5053,-0.29,0.125,
5054,-0.27,0.14,
5055,-0.25,0.14,
5056,-0.235,0.12,
5057,-0.25,0.1,
5058,-0.25,0.075,
5059,-0.245,0.08,
5060,-0.215,0.075,
5061,-0.205,0.06,
5062,-0.2,0.085,
5063,-0.205,0.105,
5064,-0.205,0.115,
5065,-0.2,0.115,
5066,-0.18,0.105,
5067,-0.145,0.105,
5068,-0.125,0.09,
5069,-0.13,0.06,
5070,-0.12,0.045,
5071,-0.1,0.035,
5072,-0.085,0.07,
5073,-0.06,0.105,
5074,-0.055,0.12,
5075,-0.065,0.13,
5076,-0.06,0.105,
5077,-0.055,0.085,
5078,-0.04,0.09,
5079,-0.035,0.095,
5080,-0.03,0.105,
5081,-0.03,0.095,
5082,-0.025,0.1,
5083,-0.02,0.12,
5084,-0.01,0.14,
5085,0.005,0.175,
5086,0.005,0.185,
5087,0.0,0.185,
5088,0.01,0.165,
5089,0.015,0.155,
5090,0.03,0.115,
5091,0.035,0.105,
5092,0.01,0.105,
5093,0.01,0.105,
5094,0.01,0.1,
5095,0.01,0.09,
5096,0.02,0.105,
5097,0.02,0.105,
5098,0.015,0.12,
5099,0.0,0.115,
5100,-0.015,0.11,
5101,-0.015,0.13,
5102,-0.01,0.135,
5103,-0.02,0.145,
5104,-0.045,0.16,
5105,-0.06,0.135,
5106,-0.09,0.1,
5107,-0.095,0.07,
5108,-0.105,0.07,
5109,-0.1,0.1,
5110,-0.115,0.085,
5111,-0.145,0.085,
5112,-0.17,0.085,
5113,-0.2,0.115,
5114,-0.19,0.13,
5115,-0.195,0.125,
5116,-0.195,0.11,
5117,-0.215,0.09,
5118,-0.25,0.095,
5119,-0.25,0.095,
5120,-0.24,0.1,
5121,-0.23,0.11,
5122,-0.24,0.1,
5123,-0.255,0.095,
5124,-0.275,0.085,
5125,-0.275,0.08,
5126,-0.27,0.085,
5127,-0.255,0.07,
5128,-0.26,0.065,
5129,-0.28,0.08,
5130,-0.275,0.1,
5131,-0.28,0.105,
5132,-0.265,0.11,
5133,-0.245,0.11,
5134,-0.25,0.095,
5135,-0.265,0.065,
5136,-0.265,0.065,
5137,-0.275,0.075,
5138,-0.245,0.105,
5139,-0.245,0.12,
5140,-0.245,0.13,
5141,-0.245,0.115,
5142,-0.255,0.115,
5143,-0.27,0.12,
5144,-0.27,0.13,
5145,-0.24,0.15,
5146,-0.225,0.15,
5147,-0.245,0.13,
5148,-0.255,0.135,
5149,-0.265,0.13,
5150,-0.24,0.125,
5151,-0.23,0.11,
5152,-0.23,0.105,
5153,-0.23,0.09,
5154,-0.25,0.065,
5155,-0.24,0.07,
5156,-0.22,0.075,
5157,-0.2,0.085,
5158,-0.215,0.095,
5159,-0.235,0.085,
5160,-0.265,0.09,
5161,-0.245,0.105,
5162,-0.23,0.095,
5163,-0.225,0.08,
5164,-0.21,0.055,
5165,-0.23,0.05,
5166,-0.22,0.065,
5167,-0.225,0.07,
5168,-0.225,0.075,
5169,-0.21,0.075,
5170,-0.215,0.08,
5171,-0.215,0.055,
5172,-0.24,0.06,
5173,-0.245,0.085,
5174,-0.235,0.095,
5175,-0.21,0.105,
5176,-0.205,0.115,
5177,-0.2,0.115,
5178,-0.19,0.12,
5179,-0.195,0.13,
5180,-0.18,0.14,
5181,-0.175,0.165,
5182,-0.18,0.185,
5183,-0.18,0.195,
5184,-0.165,0.19,
5185,-0.16,0.18,
5186,-0.165,0.15,
5187,-0.165,0.14,
5188,-0.17,0.125,
5189,-0.175,0.085,
5190,-0.18,0.05,
5191,-0.175,0.025,
5192,-0.14,0.0,
5193,-0.145,0.0,
5194,-0.17,0.005,
5195,-0.185,0.005,
5196,-0.185,0.02,
5197,-0.19,0.02,
5198,-0.2,0.04,
5199,-0.205,0.03,
5200,-0.22,0.04,
5201,-0.215,0.02,
5202,-0.225,0.025,
5203,-0.24,0.035,
5204,-0.235,0.045,
5205,-0.22,0.065,
5206,-0.21,0.08,
5207,-0.205,0.09,
5208,-0.225,0.105,
5209,-0.23,0.095,
5210,-0.235,0.1,
5211,-0.25,0.1,
5212,-0.265,0.1,
5213,-0.285,0.1,
5214,-0.305,0.1,
5215,-0.3,0.105,
5216,-0.275,0.115,
5217,-0.275,0.125,
5218,-0.295,0.115,
5219,-0.31,0.125,
5220,-0.315,0.145,
5221,-0.32,0.18,
5222,-0.295,0.19,
5223,-0.285,0.195,
5224,-0.285,0.165,
5225,-0.28,0.12,
5226,-0.275,0.06,
5227,-0.265,0.05,
5228,-0.28,0.06,
5229,-0.265,0.095,
5230,-0.27,0.09,
5231,-0.265,0.095,
5232,-0.285,0.1,
5233,-0.295,0.125,
5234,-0.295,0.15,
5235,-0.31,0.145,
5236,-0.33,0.15,
5237,-0.345,0.165,
5238,-0.345,0.185,
5239,-0.28,0.205,
5240,-0.16,0.23,
5241,-0.015,0.23,
5242,0.18,0.24,
5243,0.42,0.25,
5244,0.685,0.26,
5245,0.94,0.245,
5246,1.14,0.22,N
5247,1.155,0.14,
5248,0.96,0.03,
5249,0.6,-0.07,
5250,0.19,-0.115,
5251,-0.275,-0.105,
5252,-0.7,-0.09,
5253,-0.925,-0.06,
5254,-0.935,-0.06,
5255,-0.835,-0.055,
5256,-0.72,-0.065,
5257,-0.59,-0.065,
5258,-0.47,-0.03,
5259,-0.375,0.015,
5260,-0.335,0.075,
5261,-0.325,0.125,
5262,-0.305,0.13,
5263,-0.3,0.11,
5264,-0.28,0.085,
5265,-0.27,0.08,
5266,-0.26,0.065,
5267,-0.285,0.055,
5268,-0.29,0.05,
5269,-0.295,0.08,
5270,-0.29,0.105,
5271,-0.295,0.12,
5272,-0.29,0.13,
5273,-0.285,0.115,
5274,-0.29,0.1,
5275,-0.27,0.115,
5276,-0.265,0.12,
5277,-0.265,0.13,
5278,-0.27,0.14,
5279,-0.27,0.145,
5280,-0.27,0.14,
5281,-0.27,0.155,
5282,-0.245,0.15,
5283,-0.245,0.16,
5284,-0.235,0.15,
5285,-0.245,0.13,
5286,-0.23,0.135,
5287,-0.245,0.185,
5288,-0.235,0.215,
5289,-0.2,0.23,
5290,-0.185,0.185,
5291,-0.175,0.16,
5292,-0.17,0.12,
5293,-0.18,0.12,
5294,-0.16,0.11,
5295,-0.17,0.1,
5296,-0.17,0.105,
5297,-0.16,0.12,
5298,-0.15,0.12,
5299,-0.125,0.12,
5300,-0.11,0.115,
5301,-0.09,0.135,
5302,-0.08,0.145,
5303,-0.07,0.15,
5304,-0.075,0.135,
5305,-0.07,0.135,
5306,-0.05,0.155,
5307,-0.025,0.165,
5308,-0.005,0.15,
5309,0.005,0.15,
5310,-0.02,0.15,
5311,-0.005,0.165,
5312,0.0,0.175,
5313,0.035,0.2,
5314,0.03,0.21,
5315,0.025,0.19,
5316,0.04,0.18,
5317,0.03,0.18,
5318,0.055,0.18,
5319,0.065,0.195,
5320,0.065,0.2,
5321,0.065,0.185,
5322,0.07,0.19,
5323,0.07,0.19,
5324,0.08,0.2,
5325,0.095,0.22,
5326,0.09,0.215,
5327,0.075,0.22,
5328,0.06,0.23,
5329,0.06,0.245,
5330,0.075,0.25,
5331,0.085,0.21,
5332,0.065,0.155,
5333,0.07,0.125,
5334,0.05,0.105,
5335,0.045,0.145,
5336,0.05,0.155,
5337,0.045,0.155,
5338,0.025,0.16,
5339,-0.02,0.14,
5340,-0.035,0.15,
5341,-0.04,0.13,
5342,-0.04,0.145,
5343,-0.04,0.16,
5344,-0.07,0.165,
5345,-0.08,0.17,
5346,-0.095,0.165,
5347,-0.115,0.165,
5348,-0.125,0.19,
5349,-0.125,0.17,
5350,-0.12,0.17,
5351,-0.145,0.145,
5352,-0.15,0.135,
5353,-0.175,0.14,
5354,-0.165,0.155,
5355,-0.155,0.175,
5356,-0.165,0.17,
5357,-0.185,0.165,
5358,-0.215,0.175,
5359,-0.21,0.2,
5360,-0.175,0.185,
5361,-0.155,0.145,
5362,-0.15,0.1,
5363,-0.165,0.095,
5364,-0.18,0.115,
5365,-0.19,0.135,
5366,-0.175,0.165,
5367,-0.155,0.195,
5368,-0.15,0.17,
5369,-0.155,0.105,
5370,-0.15,0.065,
5371,-0.16,0.065,
5372,-0.155,0.115,
5373,-0.145,0.14,
5374,-0.145,0.145,
5375,-0.185,0.135,
5376,-0.175,0.125,
5377,-0.18,0.135,
5378,-0.18,0.145,
5379,-0.17,0.15,
5380,-0.175,0.14,
5381,-0.185,0.12,
5382,-0.19,0.125,
5383,-0.195,0.15,
5384,-0.175,0.17,
5385,-0.155,0.17,
5386,-0.17,0.155,
5387,-0.185,0.135,
5388,-0.195,0.14,
5389,-0.19,0.145,
5390,-0.185,0.145,
5391,-0.165,0.15,
5392,-0.155,0.125,
5393,-0.165,0.095,
5394,-0.16,0.09,
5395,-0.18,0.095,
5396,-0.17,0.115,
5397,-0.15,0.13,
5398,-0.155,0.13,
5399,-0.155,0.13,
5400,-0.165,0.15,
5401,-0.175,0.165,
5402,-0.17,0.18,
5403,-0.155,0.175,
5404,-0.165,0.15,
5405,-0.165,0.115,
5406,-0.165,0.085,
5407,-0.165,0.095,
5408,-0.15,0.105,
5409,-0.14,0.14,
5410,-0.135,0.15,
5411,-0.105,0.155,
5412,-0.11,0.16,
5413,-0.135,0.165,
5414,-0.115,0.165,
5415,-0.1,0.175,
5416,-0.09,0.18,
5417,-0.095,0.14,
5418,-0.1,0.12,
5419,-0.12,0.105,
5420,-0.11,0.115,
5421,-0.105,0.125,
5422,-0.095,0.115,
5423,-0.085,0.105,
5424,-0.1,0.075,
5425,-0.12,0.07,
5426,-0.12,0.095,
5427,-0.125,0.08,
5428,-0.115,0.07,
5429,-0.115,0.05,
5430,-0.135,0.055,
5431,-0.145,0.06,
5432,-0.16,0.07,
5433,-0.155,0.08,
5434,-0.16,0.09,
5435,-0.17,0.07,
5436,-0.16,0.05,
5437,-0.155,0.04,
5438,-0.135,0.045,
5439,-0.135,0.08,
5440,-0.16,0.105,
5441,-0.18,0.115,
5442,-0.18,0.1,
5443,-0.195,0.09,
5444,-0.22,0.09,
5445,-0.22,0.105,
5446,-0.23,0.11,
5447,-0.24,0.115,
5448,-0.26,0.11,
5449,-0.255,0.125,
5450,-0.235,0.145,
5451,-0.225,0.145,
5452,-0.215,0.105,
5453,-0.22,0.095,
5454,-0.235,0.105,
5455,-0.24,0.135,
5456,-0.22,0.155,
5457,-0.225,0.165,
5458,-0.21,0.135,
5459,-0.21,0.12,
5460,-0.235,0.11,
5461,-0.235,0.11,
5462,-0.23,0.13,
5463,-0.2,0.16,
5464,-0.215,0.15,
5465,-0.225,0.15,
5466,-0.235,0.145,
5467,-0.24,0.15,
5468,-0.255,0.14,
5469,-0.275,0.155,
5470,-0.28,0.165,
5471,-0.26,0.185,
5472,-0.23,0.19,
5473,-0.15,0.2,
5474,-0.03,0.22,
5475,0.12,0.235,
5476,0.305,0.25,
5477,0.55,0.26,
5478,0.805,0.255,
5479,1.055,0.245,N
5480,1.225,0.205,
5481,1.165,0.11,
5482,0.895,-0.045,
5483,0.485,-0.14,
5484,0.03,-0.17,
5485,-0.465,-0.155,
5486,-0.81,-0.155,
5487,-0.895,-0.17,
5488,-0.8,-0.185,
5489,-0.67,-0.175,
5490,-0.545,-0.13,
5491,-0.455,-0.07,
5492,-0.36,-0.02,
5493,-0.305,0.005,
5494,-0.275,0.025,
5495,-0.24,0.035,
5496,-0.24,0.035,
5497,-0.25,0.06,
5498,-0.245,0.07,
5499,-0.235,0.09,
5500,-0.23,0.1,
5501,-0.225,0.105,
5502,-0.24,0.11,
5503,-0.24,0.095,
5504,-0.225,0.095,
5505,-0.225,0.12,
5506,-0.22,0.11,
5507,-0.225,0.105,
5508,-0.23,0.085,
5509,-0.225,0.105,
5510,-0.205,0.135,
5511,-0.195,0.145,
5512,-0.2,0.14,
5513,-0.205,0.115,
5514,-0.22,0.11,
5515,-0.2,0.105,
5516,-0.18,0.12,
5517,-0.175,0.1,
5518,-0.185,0.095,
5519,-0.165,0.08,
5520,-0.175,0.08,
5521,-0.18,0.085,
5522,-0.175,0.12,
5523,-0.15,0.115,
5524,-0.155,0.13,
5525,-0.145,0.12,
5526,-0.145,0.12,
5527,-0.15,0.13,
5528,-0.135,0.12,
5529,-0.12,0.135,
5530,-0.115,0.135,
5531,-0.095,0.13,
5532,-0.1,0.12,
5533,-0.095,0.125,
5534,-0.08,0.175,
5535,-0.05,0.195,
5536,-0.035,0.175,
5537,-0.035,0.145,
5538,-0.025,0.13,
5539,-0.025,0.135,
5540,0.015,0.155,
5541,0.03,0.16,
5542,0.03,0.15,
5543,0.03,0.145,
5544,0.025,0.16,
5545,0.035,0.17,
5546,0.05,0.2,
5547,0.06,0.235,
5548,0.08,0.22,
5549,0.09,0.2,
5550,0.095,0.16,
5551,0.09,0.145,
5552,0.105,0.145,
5553,0.095,0.155,
5554,0.105,0.155,
5555,0.1,0.16,
5556,0.095,0.16,
5557,0.11,0.175,
5558,0.11,0.19,
5559,0.125,0.2,
5560,0.115,0.195,
5561,0.12,0.175,
5562,0.12,0.14,
5563,0.115,0.125,
5564,0.1,0.145,
5565,0.105,0.155,
5566,0.09,0.14,
5567,0.085,0.135,
5568,0.07,0.125,
5569,0.04,0.145,
5570,0.035,0.135,
5571,0.035,0.12,
5572,0.015,0.12,
5573,0.01,0.115,
5574,-0.03,0.115,
5575,-0.035,0.12,
5576,-0.05,0.13,
5577,-0.065,0.15,
5578,-0.065,0.135,
5579,-0.075,0.1,
5580,-0.105,0.075,
5581,-0.115,0.085,
5582,-0.105,0.105,
5583,-0.105,0.115,
5584,-0.1,0.1,
5585,-0.105,0.08,
5586,-0.125,0.085,
5587,-0.145,0.1,
5588,-0.135,0.145,
5589,-0.11,0.165,
5590,-0.105,0.155,
5591,-0.115,0.135,
5592,-0.135,0.13,
5593,-0.145,0.165,
5594,-0.13,0.175,
5595,-0.12,0.15,
5596,-0.125,0.12,
5597,-0.135,0.085,
5598,-0.145,0.095,
5599,-0.14,0.115,
5600,-0.145,0.11,
5601,-0.125,0.105,
5602,-0.11,0.095,
5603,-0.125,0.1,
5604,-0.14,0.1,
5605,-0.135,0.08,
5606,-0.135,0.09,
5607,-0.135,0.105,
5608,-0.135,0.115,
5609,-0.14,0.125,
5610,-0.15,0.1,
5611,-0.145,0.075,
5612,-0.13,0.09,
5613,-0.11,0.105,
5614,-0.105,0.11,
5615,-0.105,0.1,
5616,-0.125,0.085,
5617,-0.13,0.095,
5618,-0.13,0.105,
5619,-0.13,0.115,
5620,-0.125,0.11,
5621,-0.15,0.105,
5622,-0.145,0.11,
5623,-0.13,0.12,
5624,-0.125,0.135,
5625,-0.11,0.13,
5626,-0.12,0.125,
5627,-0.135,0.12,
5628,-0.13,0.115,
5629,-0.135,0.13,
5630,-0.125,0.15,
5631,-0.115,0.13,
5632,-0.105,0.1,
5633,-0.11,0.095,
5634,-0.095,0.09,
5635,-0.09,0.09,
5636,-0.07,0.105,
5637,-0.055,0.125,
5638,-0.045,0.15,
5639,-0.055,0.165,
5640,-0.065,0.18,
5641,-0.085,0.165,
5642,-0.055,0.13,
5643,-0.04,0.11,
5644,-0.04,0.09,
5645,-0.065,0.07,
5646,-0.065,0.06,
5647,-0.07,0.055,
5648,-0.055,0.06,
5649,-0.055,0.07,
5650,-0.05,0.08,
5651,-0.06,0.08,
5652,-0.085,0.065,
5653,-0.085,0.07,
5654,-0.075,0.055,
5655,-0.085,0.045,
5656,-0.105,0.035,
5657,-0.135,0.04,
5658,-0.15,0.025,
5659,-0.14,0.025,
5660,-0.135,0.01,
5661,-0.12,0.025,
5662,-0.13,0.03,
5663,-0.125,0.035,
5664,-0.13,0.025,
5665,-0.135,0.06,
5666,-0.125,0.07,
5667,-0.135,0.085,
5668,-0.145,0.08,
5669,-0.16,0.075,
5670,-0.19,0.085,
5671,-0.205,0.09,
5672,-0.2,0.105,
5673,-0.19,0.125,
5674,-0.18,0.115,
5675,-0.195,0.1,
5676,-0.195,0.085,
5677,-0.215,0.075,
5678,-0.195,0.08,
5679,-0.175,0.085,
5680,-0.185,0.07,
5681,-0.185,0.07,
5682,-0.19,0.075,
5683,-0.195,0.09,
5684,-0.19,0.095,
5685,-0.18,0.075,
5686,-0.19,0.055,
5687,-0.205,0.05,
5688,-0.215,0.055,
5689,-0.215,0.065,
5690,-0.21,0.07,
5691,-0.22,0.08,
5692,-0.245,0.1,
5693,-0.26,0.13,
5694,-0.25,0.15,
5695,-0.2,0.17,
5696,-0.08,0.19,
5697,0.065,0.2,
5698,0.275,0.215,
5699,0.52,0.22,
5700,0.77,0.235,
5701,1.005,0.245,N
5702,1.145,0.185,
5703,1.085,0.07,
5704,0.795,-0.065,
5705,0.37,-0.165,
5706,-0.105,-0.17,
5707,-0.57,-0.16,
5708,-0.82,-0.18,
5709,-0.825,-0.18,
5710,-0.705,-0.18,
5711,-0.565,-0.18,
5712,-0.465,-0.135,
5713,-0.38,-0.08,
5714,-0.305,-0.04,
5715,-0.265,0.015,
5716,-0.245,0.05,
5717,-0.225,0.06,
5718,-0.235,0.05,
5719,-0.245,0.07,
5720,-0.23,0.09,
5721,-0.205,0.09,
5722,-0.2,0.085,
5723,-0.2,0.07,
5724,-0.225,0.06,
5725,-0.215,0.065,
5726,-0.21,0.085,
5727,-0.2,0.09,
5728,-0.2,0.11,
5729,-0.2,0.12,
5730,-0.21,0.105,
5731,-0.205,0.105,
5732,-0.18,0.11,
5733,-0.175,0.095,
5734,-0.17,0.09,
5735,-0.175,0.07,
5736,-0.175,0.065,
5737,-0.17,0.07,
5738,-0.16,0.09,
5739,-0.165,0.105,
5740,-0.16,0.09,
5741,-0.15,0.085,
5742,-0.16,0.09,
5743,-0.145,0.09,
5744,-0.125,0.105,
5745,-0.12,0.12,
5746,-0.1,0.11,
5747,-0.095,0.09,
5748,-0.115,0.09,
5749,-0.11,0.11,
5750,-0.075,0.13,
5751,-0.065,0.13,
5752,-0.055,0.115,
5753,-0.055,0.09,
5754,-0.06,0.065,
5755,-0.06,0.07,
5756,-0.06,0.11,
5757,-0.035,0.125,
5758,-0.025,0.125,
5759,-0.01,0.13,
5760,-0.01,0.11,
5761,-0.01,0.115,
5762,0.005,0.115,
5763,0.03,0.135,
5764,0.055,0.135,
5765,0.065,0.115,
5766,0.06,0.08,
5767,0.05,0.095,
5768,0.06,0.11,
5769,0.075,0.145,
5770,0.09,0.145,
5771,0.08,0.17,
5772,0.06,0.18,
5773,0.07,0.165,
5774,0.095,0.16,
5775,0.12,0.125,
5776,0.12,0.1,
5777,0.115,0.115,
5778,0.11,0.13,
5779,0.11,0.135,
5780,0.11,0.13,
5781,0.125,0.125,
5782,0.12,0.12,
5783,0.11,0.13,
5784,0.11,0.13,
5785,0.095,0.15,
5786,0.105,0.15,
5787,0.105,0.15,
5788,0.1,0.14,
5789,0.08,0.145,
5790,0.07,0.135,
5791,0.065,0.13,
5792,0.06,0.11,
5793,0.045,0.1,
5794,0.035,0.075,
5795,0.01,0.07,
5796,-0.03,0.08,
5797,-0.04,0.095,
5798,-0.05,0.115,
5799,-0.045,0.135,
5800,-0.05,0.125,
5801,-0.09,0.115,
5802,-0.1,0.09,
5803,-0.12,0.07,
5804,-0.12,0.065,
5805,-0.12,0.095,
5806,-0.125,0.11,
5807,-0.125,0.11,
5808,-0.135,0.105,
5809,-0.15,0.095,
5810,-0.145,0.095,
5811,-0.14,0.115,
5812,-0.135,0.12,
5813,-0.13,0.085,
5814,-0.135,0.045,
5815,-0.14,0.06,
5816,-0.15,0.085,
5817,-0.135,0.12,
5818,-0.14,0.125,
5819,-0.13,0.1,
5820,-0.14,0.075,
5821,-0.14,0.07,
5822,-0.14,0.06,
5823,-0.15,0.08,
5824,-0.14,0.08,
5825,-0.13,0.065,
5826,-0.145,0.05,
5827,-0.16,0.075,
5828,-0.15,0.08,
5829,-0.14,0.09,
5830,-0.14,0.075,
5831,-0.135,0.06,
5832,-0.16,0.055,
5833,-0.16,0.065,
5834,-0.16,0.085,
5835,-0.15,0.09,
5836,-0.15,0.065,
5837,-0.145,0.045,
5838,-0.165,0.045,
5839,-0.18,0.055,
5840,-0.175,0.09,
5841,-0.15,0.09,
5842,-0.15,0.085,
5843,-0.16,0.085,
5844,-0.17,0.085,
5845,-0.17,0.095,
5846,-0.17,0.11,
5847,-0.16,0.105,
5848,-0.16,0.1,
5849,-0.18,0.09,
5850,-0.175,0.075,
5851,-0.17,0.08,
5852,-0.15,0.08,
5853,-0.155,0.075,
5854,-0.16,0.045,
5855,-0.16,0.04,
5856,-0.16,0.04,
5857,-0.16,0.05,
5858,-0.135,0.05,
5859,-0.14,0.065,
5860,-0.13,0.065,
5861,-0.12,0.08,
5862,-0.11,0.09,
5863,-0.1,0.09,
5864,-0.085,0.09,
5865,-0.105,0.105,
5866,-0.1,0.105,
5867,-0.105,0.1,
5868,-0.09,0.09,
5869,-0.09,0.085,
5870,-0.08,0.095,
5871,-0.08,0.085,
5872,-0.08,0.06,
5873,-0.085,0.03,
5874,-0.085,0.005,
5875,-0.085,0.01,
5876,-0.09,0.01,
5877,-0.095,0.02,
5878,-0.085,0.0,
5879,-0.12,-0.02,
5880,-0.125,-0.02,
5881,-0.13,-0.01,
5882,-0.14,0.01,
5883,-0.16,0.01,
5884,-0.165,0.0,
5885,-0.155,0.0,
5886,-0.165,-0.01,
5887,-0.175,-0.025,
5888,-0.18,-0.015,
5889,-0.16,0.02,
5890,-0.15,0.05,
5891,-0.14,0.065,
5892,-0.175,0.065,
5893,-0.19,0.06,
5894,-0.19,0.02,
5895,-0.2,0.0,
5896,-0.225,-0.01,
5897,-0.225,0.005,
5898,-0.24,0.02,
5899,-0.24,0.06,
5900,-0.24,0.1,
5901,-0.235,0.135,
5902,-0.22,0.1,
5903,-0.22,0.03,
5904,-0.225,-0.02,
5905,-0.23,-0.005,
5906,-0.235,0.02,
5907,-0.23,0.045,
5908,-0.225,0.04,
5909,-0.23,0.05,
5910,-0.24,0.04,
5911,-0.245,0.025,
5912,-0.24,0.025,
5913,-0.235,0.03,
5914,-0.22,0.035,
5915,-0.24,0.045,
5916,-0.265,0.05,
5917,-0.295,0.065,
5918,-0.31,0.085,
5919,-0.315,0.105,
5920,-0.3,0.15,
5921,-0.255,0.14,
5922,-0.165,0.155,
5923,-0.03,0.155,
5924,0.16,0.17,
5925,0.41,0.2,
5926,0.69,0.24,
5927,0.95,0.185,N
5928,1.075,0.1,
5929,1.015,-0.03,
5930,0.785,-0.155,
5931,0.455,-0.235,
5932,0.055,-0.22,
5933,-0.425,-0.21,
5934,-0.82,-0.215,
5935,-0.955,-0.245,
5936,-0.88,-0.25,
5937,-0.745,-0.23,
5938,-0.625,-0.21,
5939,-0.52,-0.19,
5940,-0.44,-0.155,
5941,-0.385,-0.11,
5942,-0.34,-0.08,
5943,-0.31,-0.02,
5944,-0.3,0.01,
5945,-0.285,0.015,
5946,-0.28,0.01,
5947,-0.28,0.015,
5948,-0.285,0.025,
5949,-0.265,0.045,
5950,-0.26,0.045,
5951,-0.265,0.03,
5952,-0.27,0.025,
5953,-0.285,0.03,
5954,-0.275,0.04,
5955,-0.275,0.07,
5956,-0.28,0.08,
5957,-0.275,0.065,
5958,-0.255,0.05,
5959,-0.255,0.05,
5960,-0.25,0.035,
5961,-0.23,0.03,
5962,-0.225,0.01,
5963,-0.23,0.0,
5964,-0.24,0.005,
5965,-0.235,0.01,
5966,-0.225,0.025,
5967,-0.205,0.045,
5968,-0.2,0.025,
5969,-0.19,0.01,
5970,-0.2,0.015,
5971,-0.205,0.02,
5972,-0.195,0.04,
5973,-0.17,0.055,
5974,-0.16,0.05,
5975,-0.15,0.025,
5976,-0.15,0.005,
5977,-0.155,0.015,
5978,-0.125,0.04,
5979,-0.12,0.06,
5980,-0.085,0.06,
5981,-0.08,0.055,
5982,-0.075,0.055,
5983,-0.075,0.04,
5984,-0.05,0.05,
5985,-0.035,0.075,
5986,-0.005,0.08,
5987,-0.01,0.075,
5988,-0.03,0.065,
5989,-0.04,0.055,
5990,-0.035,0.055,
5991,0.015,0.05,
5992,0.03,0.05,
5993,0.025,0.04,
5994,0.005,0.03,
5995,0.005,0.035,
5996,0.02,0.06,
5997,0.04,0.075,
5998,0.045,0.065,
5999,0.035,0.04,
6000,0.015,0.025,
6001,0.025,0.025,
6002,0.035,0.045,
6003,0.065,0.07,
6004,0.07,0.06,
6005,0.065,0.05,
6006,0.04,0.04,
6007,0.035,0.06,
6008,0.025,0.07,
6009,0.04,0.075,
6010,0.04,0.07,
6011,0.025,0.075,
6012,0.0,0.055,
6013,0.01,0.045,
6014,0.0,0.045,
6015,-0.015,0.035,
6016,-0.03,0.015,
6017,-0.055,-0.005,
6018,-0.095,-0.02,
6019,-0.12,-0.005,
6020,-0.125,0.0,
6021,-0.15,0.015,
6022,-0.15,0.025,
6023,-0.18,0.035,
6024,-0.185,0.035,
6025,-0.2,0.04,
6026,-0.205,0.025,
6027,-0.205,0.025,
6028,-0.21,0.02,
6029,-0.23,0.015,
6030,-0.25,0.0,
6031,-0.26,0.0,
6032,-0.265,0.005,
6033,-0.255,0.02,
6034,-0.255,0.03,
6035,-0.245,0.025,
6036,-0.255,0.015,
6037,-0.255,0.01,
6038,-0.265,0.01,
6039,-0.26,0.0,
6040,-0.27,0.01,
6041,-0.28,-0.01,
6042,-0.29,-0.035,
6043,-0.29,-0.02,
6044,-0.27,-0.02,
6045,-0.26,0.005,
6046,-0.255,-0.005,
6047,-0.265,-0.015,
6048,-0.29,-0.025,
6049,-0.27,-0.01,
6050,-0.26,0.005,
6051,-0.25,0.01,
6052,-0.255,0.02,
6053,-0.26,0.025,
6054,-0.27,0.03,
6055,-0.275,0.03,
6056,-0.26,0.0,
6057,-0.25,-0.005,
6058,-0.255,-0.015,
6059,-0.265,-0.04,
6060,-0.26,-0.025,
6061,-0.27,-0.03,
6062,-0.255,0.005,
6063,-0.245,0.025,
6064,-0.255,0.015,
6065,-0.26,-0.005,
6066,-0.265,-0.04,
6067,-0.275,-0.035,
6068,-0.255,-0.005,
6069,-0.245,0.005,
6070,-0.245,0.005,
6071,-0.265,-0.015,
6072,-0.275,-0.025,
6073,-0.28,-0.025,
6074,-0.255,-0.015,
6075,-0.25,-0.02,
6076,-0.25,-0.03,
6077,-0.26,-0.025,
6078,-0.27,-0.03,
6079,-0.275,-0.025,
6080,-0.27,-0.005,
6081,-0.25,0.015,
6082,-0.245,0.005,
6083,-0.245,-0.015,
6084,-0.245,-0.02,
6085,-0.235,-0.02,
6086,-0.205,-0.015,
6087,-0.215,-0.005,
6088,-0.215,-0.015,
6089,-0.23,0.01,
6090,-0.225,0.01,
6091,-0.22,0.015,
6092,-0.21,-0.005,
6093,-0.195,-0.005,
6094,-0.21,-0.02,
6095,-0.225,-0.06,
6096,-0.23,-0.09,
6097,-0.225,-0.08,
6098,-0.22,-0.055,
6099,-0.225,-0.07,
6100,-0.225,-0.095,
6101,-0.225,-0.11,
6102,-0.255,-0.12,
6103,-0.28,-0.115,
6104,-0.275,-0.085,
6105,-0.275,-0.065,
6106,-0.27,-0.055,
6107,-0.275,-0.055,
6108,-0.275,-0.06,
6109,-0.28,-0.055,
6110,-0.28,-0.03,
6111,-0.285,0.0,
6112,-0.3,0.015,
6113,-0.315,0.0,
6114,-0.34,-0.045,
6115,-0.35,-0.07,
6116,-0.35,-0.08,
6117,-0.335,-0.065,
6118,-0.325,-0.06,
6119,-0.345,-0.045,
6120,-0.345,-0.04,
6121,-0.365,-0.03,
6122,-0.355,-0.04,
6123,-0.34,-0.05,
6124,-0.335,-0.055,
6125,-0.34,-0.07,
6126,-0.35,-0.1,
6127,-0.365,-0.105,
6128,-0.36,-0.07,
6129,-0.34,-0.055,
6130,-0.33,-0.055,
6131,-0.345,-0.045,
6132,-0.365,-0.05,
6133,-0.37,-0.03,
6134,-0.385,-0.015,
6135,-0.39,0.015,
6136,-0.41,0.045,
6137,-0.41,0.085,
6138,-0.405,0.08,
6139,-0.325,0.095,
6140,-0.175,0.09,
6141,0.01,0.09,
6142,0.225,0.07,
6143,0.48,0.07,
6144,0.745,0.07,
6145,0.935,0.065,N
6146,1.0,0.035,
6147,0.87,-0.045,
6148,0.58,-0.14,
6149,0.235,-0.23,
6150,-0.19,-0.245,
6151,-0.62,-0.22,
6152,-0.95,-0.195,
6153,-1.035,-0.165,
6154,-0.965,-0.17,
6155,-0.895,-0.195,
6156,-0.82,-0.215,
6157,-0.715,-0.215,
6158,-0.605,-0.22,
6159,-0.5,-0.17,
6160,-0.455,-0.155,
6161,-0.42,-0.135,
6162,-0.42,-0.115,
6163,-0.415,-0.08,
6164,-0.385,-0.06,
6165,-0.37,-0.035,
6166,-0.37,-0.04,
6167,-0.375,-0.045,
6168,-0.4,-0.03,
6169,-0.39,-0.015,
6170,-0.38,0.005,
6171,-0.37,0.015,
6172,-0.345,0.0,
6173,-0.35,-0.035,
6174,-0.355,-0.055,
6175,-0.37,-0.065,
6176,-0.365,-0.05,
6177,-0.36,-0.05,
6178,-0.35,-0.03,
6179,-0.36,-0.015,
6180,-0.36,-0.01,
6181,-0.365,-0.005,
6182,-0.345,-0.01,
6183,-0.325,-0.03,
6184,-0.32,-0.035,
6185,-0.335,-0.035,
6186,-0.33,-0.04,
6187,-0.325,-0.04,
6188,-0.315,-0.02,
6189,-0.29,0.0,
6190,-0.285,-0.005,
6191,-0.285,-0.025,
6192,-0.29,-0.04,
6193,-0.285,-0.035,
6194,-0.265,-0.025,
6195,-0.255,-0.01,
6196,-0.235,-0.01,
6197,-0.24,-0.015,
6198,-0.25,-0.02,
6199,-0.245,0.015,
6200,-0.23,0.035,
6201,-0.21,0.045,
6202,-0.2,0.03,
6203,-0.175,0.02,
6204,-0.17,-0.025,
6205,-0.16,-0.025,
6206,-0.16,-0.01,
6207,-0.155,0.005,
6208,-0.125,0.005,
6209,-0.115,0.01,
6210,-0.115,0.0,
6211,-0.11,0.005,
6212,-0.085,0.005,
6213,-0.07,0.03,
6214,-0.07,0.04,
6215,-0.065,0.035,
6216,-0.065,0.025,
6217,-0.055,0.03,
6218,-0.035,0.025,
6219,-0.03,0.01,
6220,-0.025,0.0,
6221,-0.035,0.0,
6222,-0.04,0.03,
6223,-0.035,0.025,
6224,-0.025,0.045,
6225,-0.01,0.04,
6226,-0.015,0.045,
6227,-0.03,0.035,
6228,-0.025,0.02,
6229,-0.03,0.01,
6230,-0.015,0.02,
6231,-0.01,0.01,
6232,-0.015,-0.005,
6233,-0.04,-0.01,
6234,-0.08,0.0,
6235,-0.09,0.01,
6236,-0.095,0.04,
6237,-0.1,0.05,
6238,-0.095,0.035,
6239,-0.105,0.005,
6240,-0.13,-0.005,
6241,-0.15,-0.005,
6242,-0.16,0.015,
6243,-0.175,0.025,
6244,-0.19,0.015,
6245,-0.195,-0.005,
6246,-0.205,-0.005,
6247,-0.22,0.01,
6248,-0.215,0.03,
6249,-0.21,0.035,
6250,-0.215,0.03,
6251,-0.245,0.045,
6252,-0.275,0.04,
6253,-0.28,0.035,
6254,-0.28,0.04,
6255,-0.265,0.025,
6256,-0.26,0.03,
6257,-0.265,0.015,
6258,-0.28,0.0,
6259,-0.28,-0.005,
6260,-0.265,0.0,
6261,-0.245,0.02,
6262,-0.25,0.03,
6263,-0.265,0.025,
6264,-0.275,0.02,
6265,-0.275,0.02,
6266,-0.27,0.01,
6267,-0.255,0.025,
6268,-0.255,0.03,
6269,-0.255,0.03,
6270,-0.26,0.0,
6271,-0.275,0.0,
6272,-0.25,0.01,
6273,-0.24,0.015,
6274,-0.235,0.015,
6275,-0.245,0.01,
6276,-0.26,-0.01,
6277,-0.265,-0.01,
6278,-0.27,0.0,
6279,-0.25,0.015,
6280,-0.23,0.015,
6281,-0.245,0.02,
6282,-0.255,0.015,
6283,-0.265,0.035,
6284,-0.24,0.04,
6285,-0.21,0.05,
6286,-0.22,0.025,
6287,-0.235,0.005,
6288,-0.24,-0.025,
6289,-0.24,-0.045,
6290,-0.245,-0.02,
6291,-0.225,-0.005,
6292,-0.23,0.01,
6293,-0.24,0.015,
6294,-0.25,0.01,
6295,-0.255,0.05,
6296,-0.265,0.085,
6297,-0.235,0.105,
6298,-0.22,0.055,
6299,-0.205,-0.025,
6300,-0.23,-0.065,
6301,-0.24,-0.05,
6302,-0.23,-0.005,
6303,-0.21,0.015,
6304,-0.215,0.015,
6305,-0.2,0.025,
6306,-0.205,0.01,
6307,-0.21,0.02,
6308,-0.19,0.035,
6309,-0.175,0.06,
6310,-0.165,0.06,
6311,-0.18,0.03,
6312,-0.175,0.025,
6313,-0.17,0.015,
6314,-0.16,0.01,
6315,-0.16,0.0,
6316,-0.16,-0.03,
6317,-0.17,-0.05,
6318,-0.195,-0.055,
6319,-0.185,-0.03,
6320,-0.185,-0.015,
6321,-0.165,-0.02,
6322,-0.175,-0.03,
6323,-0.185,-0.045,
6324,-0.205,-0.05,
6325,-0.22,-0.05,
6326,-0.215,-0.05,
6327,-0.235,-0.05,
6328,-0.24,-0.05,
6329,-0.235,-0.06,
6330,-0.245,-0.07,
6331,-0.23,-0.07,
6332,-0.245,-0.055,
6333,-0.23,-0.03,
6334,-0.225,-0.01,
6335,-0.22,-0.01,
6336,-0.235,-0.005,
6337,-0.24,0.015,
6338,-0.24,0.015,
6339,-0.255,0.01,
6340,-0.26,0.02,
6341,-0.3,0.0,
6342,-0.33,0.005,
6343,-0.32,0.005,
6344,-0.305,0.015,
6345,-0.29,0.015,
6346,-0.295,0.02,
6347,-0.305,0.015,
6348,-0.31,0.0,
6349,-0.33,0.01,
6350,-0.33,0.04,
6351,-0.32,0.075,
6352,-0.32,0.09,
6353,-0.32,0.055,
6354,-0.315,0.035,
6355,-0.305,0.005,
6356,-0.285,-0.02,
6357,-0.275,-0.035,
6358,-0.27,-0.045,
6359,-0.29,-0.035,
6360,-0.295,-0.015,
6361,-0.32,-0.01,
6362,-0.305,0.01,
6363,-0.31,0.02,
6364,-0.34,0.035,
6365,-0.365,0.065,
6366,-0.375,0.085,
6367,-0.35,0.12,
6368,-0.26,0.14,
6369,-0.14,0.15,
6370,0.02,0.145,
6371,0.205,0.15,
6372,0.4,0.155,
6373,0.64,0.195,
6374,0.88,0.18,
6375,1.05,0.14,N
6376,1.08,0.05,
6377,0.895,-0.065,
6378,0.595,-0.18,
6379,0.215,-0.225,
6380,-0.215,-0.215,
6381,-0.645,-0.21,
6382,-0.915,-0.205,
6383,-0.96,-0.23,
6384,-0.885,-0.23,
6385,-0.78,-0.21,
6386,-0.655,-0.165,
6387,-0.535,-0.12,
6388,-0.46,-0.09,
6389,-0.425,-0.06,
6390,-0.415,-0.04,
6391,-0.395,0.005,
6392,-0.365,0.055,
6393,-0.335,0.055,
6394,-0.31,0.01,
6395,-0.32,-0.035,
6396,-0.33,-0.06,
6397,-0.35,-0.045,
6398,-0.325,-0.035,
6399,-0.325,-0.015,
6400,-0.31,-0.01,
6401,-0.305,-0.015,
6402,-0.33,0.0,
6403,-0.335,0.01,
6404,-0.325,0.015,
6405,-0.305,0.015,
6406,-0.315,0.0,
6407,-0.33,0.005,
6408,-0.34,-0.005,
6409,-0.33,0.0,
6410,-0.32,0.04,
6411,-0.32,0.06,
6412,-0.3,0.04,
6413,-0.305,0.02,
6414,-0.32,0.025,
6415,-0.31,0.045,
6416,-0.29,0.04,
6417,-0.275,0.045,
6418,-0.275,0.02,
6419,-0.265,0.01,
6420,-0.28,0.01,
6421,-0.27,0.025,
6422,-0.26,0.035,
6423,-0.25,0.045,
6424,-0.235,0.055,
6425,-0.245,0.04,
6426,-0.26,0.035,
6427,-0.25,0.035,
6428,-0.235,0.05,
6429,-0.23,0.08,
6430,-0.205,0.095,
6431,-0.21,0.1,
6432,-0.2,0.095,
6433,-0.18,0.05,
6434,-0.16,0.02,
6435,-0.135,0.015,
6436,-0.12,0.03,
6437,-0.14,0.04,
6438,-0.115,0.045,
6439,-0.115,0.05,
6440,-0.1,0.06,
6441,-0.065,0.075,
6442,-0.04,0.065,
6443,-0.05,0.04,
6444,-0.05,0.055,
6445,-0.04,0.06,
6446,-0.03,0.08,
6447,-0.025,0.065,
6448,-0.01,0.07,
6449,-0.015,0.065,
6450,-0.02,0.07,
6451,-0.025,0.075,
6452,-0.02,0.09,
6453,0.0,0.1,
6454,0.01,0.095,
6455,0.01,0.085,
6456,-0.005,0.065,
6457,-0.01,0.065,
6458,-0.01,0.09,
6459,-0.005,0.095,
6460,0.015,0.085,
6461,-0.005,0.07,
6462,-0.02,0.06,
6463,-0.01,0.07,
6464,-0.015,0.095,
6465,-0.015,0.105,
6466,0.0,0.085,
6467,-0.02,0.065,
6468,-0.03,0.035,
6469,-0.055,0.04,
6470,-0.05,0.06,
6471,-0.045,0.09,
6472,-0.055,0.075,
6473,-0.075,0.06,
6474,-0.095,0.035,
6475,-0.12,0.02,
6476,-0.13,0.05,
6477,-0.13,0.055,
6478,-0.145,0.045,
6479,-0.18,0.025,
6480,-0.195,0.035,
6481,-0.215,0.05,
6482,-0.22,0.06,
6483,-0.21,0.05,
6484,-0.215,0.04,
6485,-0.215,0.025,
6486,-0.23,0.01,
6487,-0.25,0.01,
6488,-0.24,0.02,
6489,-0.235,0.02,
6490,-0.235,0.015,
6491,-0.245,0.015,
6492,-0.245,0.0,
6493,-0.265,0.02,
6494,-0.265,0.045,
6495,-0.26,0.065,
6496,-0.245,0.045,
6497,-0.25,0.06,
6498,-0.265,0.05,
6499,-0.27,0.07,
6500,-0.28,0.08,
6501,-0.27,0.08,
6502,-0.26,0.075,
6503,-0.27,0.025,
6504,-0.275,-0.01,
6505,-0.275,-0.015,
6506,-0.25,0.0,
6507,-0.25,0.03,
6508,-0.25,0.015,
6509,-0.255,-0.01,
6510,-0.26,-0.04,
6511,-0.285,-0.03,
6512,-0.27,-0.005,
6513,-0.265,0.015,
6514,-0.26,0.025,
6515,-0.27,0.01,
6516,-0.285,-0.02,
6517,-0.305,-0.015,
6518,-0.28,-0.005,
6519,-0.275,-0.01,
6520,-0.265,-0.005,
6521,-0.275,0.0,
6522,-0.29,-0.005,
6523,-0.29,-0.005,
6524,-0.27,0.005,
6525,-0.26,0.005,
6526,-0.265,0.015,
6527,-0.275,0.015,
6528,-0.28,-0.005,
6529,-0.31,-0.005,
6530,-0.3,0.005,
6531,-0.285,0.04,
6532,-0.28,0.035,
6533,-0.29,0.015,
6534,-0.29,-0.005,
6535,-0.28,0.005,
6536,-0.27,0.04,
6537,-0.265,0.075,
6538,-0.265,0.075,
6539,-0.295,0.05,
6540,-0.3,0.03,
6541,-0.3,0.025,
6542,-0.275,0.025,
6543,-0.255,0.025,
6544,-0.245,0.0,
6545,-0.24,-0.025,
6546,-0.245,-0.025,
6547,-0.235,-0.005,
6548,-0.21,0.015,
6549,-0.2,0.04,
6550,-0.21,0.03,
6551,-0.215,0.015,
6552,-0.23,0.015,
6553,-0.23,0.015,
6554,-0.215,0.045,
6555,-0.2,0.055,
6556,-0.21,0.04,
6557,-0.22,0.03,
6558,-0.22,0.03,
6559,-0.225,0.015,
6560,-0.225,-0.015,
6561,-0.22,-0.045,
6562,-0.22,-0.06,
6563,-0.215,-0.065,
6564,-0.23,-0.055,
6565,-0.235,-0.065,
6566,-0.245,-0.025,
6567,-0.235,-0.02,
6568,-0.24,-0.025,
6569,-0.25,-0.045,
6570,-0.275,-0.07,
6571,-0.285,-0.07,
6572,-0.27,-0.065,
6573,-0.27,-0.06,
6574,-0.255,-0.07,
6575,-0.275,-0.08,
6576,-0.295,-0.065,
6577,-0.295,-0.05,
6578,-0.285,-0.015,
6579,-0.255,0.005,
6580,-0.255,0.0,
6581,-0.285,-0.015,
6582,-0.3,-0.04,
6583,-0.335,-0.02,
6584,-0.335,-0.01,
6585,-0.33,0.005,
6586,-0.345,0.01,
6587,-0.355,0.01,
6588,-0.365,-0.015,
6589,-0.37,-0.03,
6590,-0.365,-0.025,
6591,-0.34,-0.005,
6592,-0.33,0.02,
6593,-0.35,0.005,
6594,-0.375,-0.045,
6595,-0.39,-0.035,
6596,-0.385,-0.03,
6597,-0.37,-0.01,
6598,-0.34,-0.005,
6599,-0.345,-0.01,
6600,-0.35,-0.03,
6601,-0.35,-0.02,
6602,-0.34,-0.005,
6603,-0.345,0.005,
6604,-0.365,0.005,
6605,-0.375,-0.005,
6606,-0.365,-0.005,
6607,-0.37,-0.005,
6608,-0.39,-0.015,
6609,-0.405,0.015,
6610,-0.43,0.035,
6611,-0.445,0.06,
6612,-0.445,0.06,
6613,-0.405,0.065,
6614,-0.325,0.08,
6615,-0.195,0.095,
6616,-0.04,0.095,
6617,0.165,0.1,
6618,0.405,0.12,
6619,0.67,0.145,
6620,0.9,0.13,N
6621,1.015,0.095,
6622,0.97,0.01,
6623,0.755,-0.12,
6624,0.465,-0.215,
6625,0.1,-0.245,
6626,-0.34,-0.2,
6627,-0.755,-0.185,
6628,-0.955,-0.175,
6629,-0.975,-0.2,
6630,-0.925,-0.225,
6631,-0.84,-0.205,
6632,-0.725,-0.175,
6633,-0.61,-0.155,
6634,-0.53,-0.15,
6635,-0.485,-0.165,
6636,-0.47,-0.135,
6637,-0.46,-0.1,
6638,-0.435,-0.075,
6639,-0.425,-0.055,
6640,-0.4,-0.035,
6641,-0.4,-0.02,
6642,-0.42,0.005,
6643,-0.41,0.01,
6644,-0.385,0.02,
6645,-0.37,0.02,
6646,-0.365,0.005,
6647,-0.365,-0.005,
6648,-0.375,0.0,
6649,-0.395,-0.01,
6650,-0.38,-0.02,
6651,-0.36,-0.01,
6652,-0.35,-0.005,
6653,-0.36,-0.015,
6654,-0.38,-0.02,
6655,-0.395,-0.015,
6656,-0.38,0.005,
6657,-0.355,0.01,
6658,-0.33,0.005,
6659,-0.335,-0.015,
6660,-0.36,-0.02,
6661,-0.355,-0.025,
6662,-0.32,-0.005,
6663,-0.29,0.025,
6664,-0.295,0.015,
6665,-0.275,0.005,
6666,-0.295,-0.025,
6667,-0.3,-0.055,
6668,-0.29,-0.035,
6669,-0.29,-0.02,
6670,-0.29,0.0,
6671,-0.305,0.005,
6672,-0.31,0.025,
6673,-0.285,0.005,
6674,-0.245,0.0,
6675,-0.22,-0.01,
6676,-0.205,-0.02,
6677,-0.21,-0.02,
6678,-0.21,-0.02,
6679,-0.195,-0.015,
6680,-0.18,-0.015,
6681,-0.155,0.0,
6682,-0.14,0.0,
6683,-0.135,-0.02,
6684,-0.15,-0.005,
6685,-0.135,0.015,
6686,-0.11,0.005,
6687,-0.085,0.0,
6688,-0.065,0.0,
6689,-0.06,0.01,
6690,-0.075,0.015,
6691,-0.045,0.025,
6692,-0.035,0.035,
6693,-0.05,0.03,
6694,-0.06,0.01,
6695,-0.075,-0.01,
6696,-0.075,-0.02,
6697,-0.075,-0.005,
6698,-0.06,0.01,
6699,-0.045,0.04,
6700,-0.02,0.03,
6701,-0.035,0.01,
6702,-0.04,0.005,
6703,-0.045,0.01,
6704,-0.03,0.01,
6705,-0.04,0.035,
6706,-0.035,0.045,
6707,-0.045,0.04,
6708,-0.05,0.025,
6709,-0.055,0.0,
6710,-0.055,-0.005,
6711,-0.05,0.02,
6712,-0.075,0.035,
6713,-0.105,0.035,
6714,-0.125,0.025,
6715,-0.14,0.025,
6716,-0.145,0.035,
6717,-0.13,0.04,
6718,-0.15,0.04,
6719,-0.16,0.0,
6720,-0.21,-0.01,
6721,-0.225,0.0,
6722,-0.22,0.035,
6723,-0.23,0.065,
6724,-0.23,0.05,
6725,-0.245,0.015,
6726,-0.265,-0.015,
6727,-0.285,-0.025,
6728,-0.28,-0.025,
6729,-0.28,-0.03,
6730,-0.28,-0.025,
6731,-0.285,-0.035,
6732,-0.285,-0.035,
6733,-0.3,-0.025,
6734,-0.31,-0.005,
6735,-0.315,0.005,
6736,-0.31,0.0,
6737,-0.31,-0.015,
6738,-0.325,-0.04,
6739,-0.345,-0.03,
6740,-0.335,-0.015,
6741,-0.33,0.01,
6742,-0.33,0.01,
6743,-0.34,0.005,
6744,-0.345,0.01,
6745,-0.33,0.025,
6746,-0.315,0.035,
6747,-0.29,0.03,
6748,-0.285,0.0,
6749,-0.29,-0.015,
6750,-0.32,-0.015,
6751,-0.32,-0.005,
6752,-0.325,-0.01,
6753,-0.32,-0.01,
6754,-0.3,-0.025,
6755,-0.29,-0.035,
6756,-0.305,-0.065,
6757,-0.29,-0.045,
6758,-0.29,-0.01,
6759,-0.28,-0.005,
6760,-0.27,0.005,
6761,-0.29,-0.015,
6762,-0.305,-0.02,
6763,-0.31,0.0,
6764,-0.32,0.01,
6765,-0.315,0.0,
6766,-0.315,-0.02,
6767,-0.31,-0.045,
6768,-0.31,-0.05,
6769,-0.31,-0.03,
6770,-0.3,-0.02,
6771,-0.295,-0.005,
