,MLII,V1,symbol
0,-0.065,0.135,
1,-0.065,0.135,
2,-0.065,0.135,
3,-0.065,0.135,
4,-0.065,0.135,
5,-0.065,0.135,
6,-0.065,0.135,
7,-0.065,0.135,
8,-0.045,0.135,
9,-0.035,0.13,
10,-0.04,0.12,
11,-0.06,0.115,
12,-0.075,0.105,
13,-0.055,0.12,+
14,-0.04,0.13,
15,-0.04,0.12,
16,-0.05,0.115,
17,-0.065,0.115,
18,-0.07,0.105,
19,-0.065,0.1,
20,-0.06,0.115,
21,-0.06,0.115,
22,-0.06,0.105,
23,-0.07,0.085,
24,-0.075,0.065,
25,-0.075,0.08,
26,-0.065,0.095,
27,-0.07,0.08,
28,-0.075,0.06,
29,-0.08,0.05,
30,-0.085,0.06,
31,-0.075,0.06,
32,-0.07,0.06,
33,-0.075,0.06,
34,-0.08,0.04,
35,-0.085,0.04,
36,-0.09,0.025,
37,-0.09,0.045,
38,-0.08,0.06,
39,-0.07,0.065,
40,-0.075,0.055,
41,-0.085,0.06,
42,-0.09,0.065,
43,-0.07,0.09,
44,-0.055,0.1,
45,-0.04,0.09,
46,-0.02,0.06,
47,0.025,0.035,
48,0.105,0.02,
49,0.235,0.0,
50,0.35,-0.015,
51,0.475,-0.05,
52,0.585,-0.09,
53,0.685,-0.125,
54,0.805,-0.13,
55,0.915,-0.165,
56,1.035,-0.22,
57,1.08,-0.275,N
58,1.08,-0.3,
59,1.025,-0.305,
60,0.96,-0.285,
61,0.86,-0.21,
62,0.715,-0.14,
63,0.51,-0.09,
64,0.305,-0.06,
65,0.145,-0.03,
66,0.08,-0.02,
67,0.03,0.025,
68,-0.015,0.055,
69,-0.055,0.07,
70,-0.095,0.065,
71,-0.11,0.07,
72,-0.12,0.075,
73,-0.135,0.1,
74,-0.14,0.105,
75,-0.15,0.09,
76,-0.165,0.085,
77,-0.185,0.07,
78,-0.2,0.055,
79,-0.195,0.07,
80,-0.195,0.07,
81,-0.195,0.06,
82,-0.215,0.035,
83,-0.225,0.015,
84,-0.235,0.01,
85,-0.25,0.005,
86,-0.23,0.03,
87,-0.235,0.04,
88,-0.25,0.04,
89,-0.24,0.04,
90,-0.26,0.03,
91,-0.255,0.05,
92,-0.245,0.07,
93,-0.24,0.075,
94,-0.26,0.07,
95,-0.275,0.07,
96,-0.28,0.085,
97,-0.28,0.12,
98,-0.255,0.135,
99,-0.255,0.13,
100,-0.25,0.13,
101,-0.27,0.12,
102,-0.275,0.115,
103,-0.275,0.125,
104,-0.255,0.14,
105,-0.245,0.14,
106,-0.24,0.12,
107,-0.27,0.11,
108,-0.265,0.11,
109,-0.255,0.125,
110,-0.245,0.135,
111,-0.24,0.135,
112,-0.24,0.13,
113,-0.225,0.14,
114,-0.245,0.12,
115,-0.235,0.13,
116,-0.23,0.145,
117,-0.21,0.135,
118,-0.225,0.135,
119,-0.225,0.125,
120,-0.24,0.105,
121,-0.24,0.095,
122,-0.225,0.09,
123,-0.215,0.06,
124,-0.235,0.015,
125,-0.23,-0.005,
126,-0.235,-0.035,
127,-0.245,-0.02,
128,-0.215,-0.005,
129,-0.195,-0.015,
130,-0.19,-0.025,
131,-0.2,-0.03,
132,-0.215,-0.035,
133,-0.18,-0.02,
134,-0.165,0.01,
135,-0.16,0.025,
136,-0.14,0.015,
137,-0.145,0.005,
138,-0.145,0.015,
139,-0.13,0.045,
140,-0.12,0.055,
141,-0.125,0.065,
142,-0.125,0.055,
143,-0.135,0.06,
144,-0.125,0.05,
145,-0.105,0.08,
146,-0.08,0.1,
147,-0.085,0.105,
148,-0.09,0.095,
149,-0.09,0.085,
150,-0.095,0.085,
151,-0.095,0.09,
152,-0.075,0.115,
153,-0.075,0.095,
154,-0.07,0.085,
155,-0.075,0.07,
156,-0.095,0.075,
157,-0.095,0.095,
158,-0.08,0.11,
159,-0.065,0.105,
160,-0.08,0.1,
161,-0.1,0.08,
162,-0.085,0.095,
163,-0.1,0.1,
164,-0.085,0.125,
165,-0.065,0.12,
166,-0.08,0.1,
167,-0.1,0.075,
168,-0.115,0.045,
169,-0.1,0.055,
170,-0.095,0.055,
171,-0.09,0.035,
172,-0.085,0.03,
173,-0.105,0.025,
174,-0.115,0.015,
175,-0.11,0.03,
176,-0.11,0.05,
177,-0.105,0.04,
178,-0.105,0.035,
179,-0.11,0.02,
180,-0.11,0.02,
181,-0.1,0.045,
182,-0.11,0.05,
183,-0.105,0.05,
184,-0.105,0.04,
185,-0.12,0.025,
186,-0.125,0.035,
187,-0.12,0.045,
188,-0.11,0.075,
189,-0.11,0.07,
190,-0.115,0.065,
191,-0.125,0.06,
192,-0.125,0.075,
193,-0.125,0.09,
194,-0.1,0.11,
195,-0.1,0.12,
196,-0.105,0.105,
197,-0.1,0.105,
198,-0.1,0.095,
199,-0.105,0.11,
200,-0.1,0.12,
201,-0.085,0.105,
202,-0.095,0.095,
203,-0.11,0.085,
204,-0.11,0.07,
205,-0.095,0.085,
206,-0.085,0.1,
207,-0.085,0.09,
208,-0.1,0.06,
209,-0.11,0.045,
210,-0.1,0.02,
211,-0.085,0.025,
212,-0.09,0.035,
213,-0.08,0.03,
214,-0.085,0.015,
215,-0.095,0.0,
216,-0.115,0.005,
217,-0.09,0.01,
218,-0.08,0.02,
219,-0.08,0.02,
220,-0.095,0.01,
221,-0.105,-0.005,
222,-0.11,-0.01,
223,-0.12,0.0,
224,-0.11,0.015,
225,-0.1,0.005,
226,-0.12,0.005,
227,-0.12,-0.005,
228,-0.135,-0.01,
229,-0.13,0.005,
230,-0.11,0.025,
231,-0.105,0.02,
232,-0.105,0.015,
233,-0.125,0.005,
234,-0.14,0.015,
235,-0.125,0.03,
236,-0.105,0.06,
237,-0.11,0.05,
238,-0.105,0.045,
239,-0.065,0.015,
240,-0.005,-0.01,
241,0.095,-0.01,
242,0.215,-0.04,
243,0.335,-0.075,
244,0.44,-0.105,
245,0.56,-0.155,
246,0.685,-0.16,
247,0.805,-0.15,
248,0.91,-0.185,
249,1.0,-0.235,
250,1.035,-0.275,N
251,1.015,-0.295,
252,0.955,-0.29,
253,0.87,-0.26,
254,0.735,-0.195,
255,0.57,-0.15,
256,0.335,-0.135,
257,0.13,-0.115,
258,-0.005,-0.095,
259,-0.06,-0.075,
260,-0.085,-0.04,
261,-0.11,-0.02,
262,-0.145,-0.03,
263,-0.19,-0.025,
264,-0.19,-0.02,
265,-0.2,0.0,
266,-0.19,0.015,
267,-0.2,0.01,
268,-0.225,0.005,
269,-0.245,0.01,
270,-0.26,0.005,
271,-0.27,0.005,
272,-0.255,0.015,
273,-0.25,0.015,
274,-0.26,0.005,
275,-0.295,-0.01,
276,-0.31,0.0,
277,-0.3,0.0,
278,-0.29,0.015,
279,-0.285,0.0,
280,-0.3,0.01,
281,-0.32,0.0,
282,-0.34,0.0,
283,-0.335,0.025,
284,-0.32,0.03,
285,-0.325,0.035,
286,-0.33,0.035,
287,-0.34,0.025,
288,-0.35,0.035,
289,-0.345,0.05,
290,-0.35,0.065,
291,-0.355,0.07,
292,-0.36,0.065,
293,-0.365,0.06,
294,-0.37,0.07,
295,-0.375,0.08,
296,-0.365,0.095,
297,-0.36,0.085,
298,-0.36,0.09,
299,-0.375,0.085,
300,-0.375,0.085,
301,-0.36,0.08,
302,-0.345,0.11,
303,-0.33,0.105,
304,-0.345,0.085,
305,-0.35,0.075,
306,-0.345,0.045,
307,-0.345,0.05,
308,-0.345,0.07,
309,-0.325,0.04,
310,-0.335,0.035,
311,-0.345,0.03,
312,-0.34,0.03,
313,-0.33,0.04,
314,-0.315,0.055,
315,-0.305,0.055,
316,-0.295,0.035,
317,-0.3,0.02,
318,-0.315,0.025,
319,-0.305,0.035,
320,-0.29,0.035,
321,-0.285,0.03,
322,-0.295,0.03,
323,-0.305,0.03,
324,-0.305,0.025,
325,-0.28,0.03,
326,-0.26,0.04,
327,-0.255,0.03,
328,-0.26,0.025,
329,-0.265,0.01,
330,-0.27,0.015,
331,-0.26,0.03,
332,-0.24,0.035,
333,-0.225,0.035,
334,-0.22,0.02,
335,-0.22,0.02,
336,-0.23,0.01,
337,-0.205,0.025,
338,-0.19,0.035,
339,-0.175,0.03,
340,-0.175,0.025,
341,-0.195,0.01,
342,-0.18,0.0,
343,-0.18,0.0,
344,-0.175,0.015,
345,-0.17,0.015,
346,-0.165,0.01,
347,-0.175,0.005,
348,-0.17,0.0,
349,-0.18,0.035,
350,-0.175,0.04,
351,-0.18,0.045,
352,-0.175,0.05,
353,-0.185,0.03,
354,-0.18,0.04,
355,-0.185,0.055,
356,-0.17,0.07,
357,-0.165,0.07,
358,-0.19,0.05,
359,-0.19,0.04,
360,-0.19,0.035,
361,-0.175,0.05,
362,-0.165,0.075,
363,-0.165,0.075,
364,-0.16,0.06,
365,-0.165,0.06,
366,-0.185,0.05,
367,-0.18,0.065,
368,-0.17,0.085,
369,-0.175,0.09,
370,-0.175,0.085,
371,-0.18,0.08,
372,-0.19,0.08,
373,-0.18,0.095,
374,-0.16,0.1,
375,-0.14,0.095,
376,-0.16,0.09,
377,-0.15,0.075,
378,-0.165,0.075,
379,-0.155,0.09,
380,-0.145,0.1,
381,-0.145,0.085,
382,-0.15,0.08,
383,-0.165,0.075,
384,-0.145,0.07,
385,-0.145,0.07,
386,-0.125,0.075,
387,-0.13,0.07,
388,-0.145,0.045,
389,-0.155,0.035,
390,-0.16,0.015,
391,-0.16,0.02,
392,-0.135,0.035,
393,-0.14,0.035,
394,-0.14,0.025,
395,-0.155,0.01,
396,-0.18,0.0,
397,-0.16,0.005,
398,-0.145,0.03,
399,-0.135,0.025,
400,-0.145,0.02,
401,-0.165,0.02,
402,-0.17,0.015,
403,-0.165,0.035,
404,-0.165,0.04,
405,-0.155,0.035,
406,-0.17,0.045,
407,-0.17,0.025,
408,-0.18,0.035,
409,-0.175,0.05,
410,-0.155,0.055,
411,-0.16,0.05,
412,-0.17,0.035,
413,-0.17,0.03,
414,-0.185,0.03,
415,-0.175,0.05,
416,-0.165,0.06,
417,-0.17,0.065,
418,-0.18,0.05,
419,-0.195,0.04,
420,-0.205,0.045,
421,-0.205,0.045,
422,-0.18,0.07,
423,-0.17,0.07,
424,-0.17,0.07,
425,-0.19,0.055,
426,-0.19,0.065,
427,-0.18,0.075,
428,-0.16,0.095,
429,-0.145,0.095,
430,-0.145,0.08,
431,-0.165,0.055,
432,-0.16,0.05,
433,-0.15,0.06,
434,-0.14,0.055,
435,-0.125,0.06,
436,-0.145,0.035,
437,-0.145,0.03,
438,-0.155,0.03,
439,-0.155,0.03,
440,-0.14,0.035,
441,-0.145,0.025,
442,-0.145,0.005,
443,-0.16,0.0,
444,-0.16,0.005,
445,-0.175,0.005,
446,-0.16,0.015,
447,-0.145,0.025,
448,-0.155,0.015,
449,-0.155,0.0,
450,-0.16,0.005,
451,-0.15,0.01,
452,-0.14,0.04,
453,-0.13,0.035,
454,-0.135,0.025,
455,-0.16,0.025,
456,-0.17,0.035,
457,-0.15,0.06,
458,-0.145,0.07,
459,-0.115,0.04,
460,-0.085,0.025,
461,-0.035,0.0,
462,0.07,-0.04,
463,0.18,-0.04,
464,0.3,-0.065,
465,0.415,-0.09,
466,0.51,-0.12,
467,0.625,-0.145,
468,0.745,-0.15,
469,0.855,-0.17,
470,0.94,-0.22,
471,0.96,-0.265,N
472,0.965,-0.31,
473,0.91,-0.34,
474,0.85,-0.335,
475,0.765,-0.3,
476,0.64,-0.25,
477,0.46,-0.195,
478,0.235,-0.155,
479,0.035,-0.115,
480,-0.07,-0.075,
481,-0.11,-0.05,
482,-0.145,0.005,
483,-0.17,0.02,
484,-0.205,0.015,
485,-0.235,0.015,
486,-0.25,0.025,
487,-0.25,0.045,
488,-0.255,0.05,
489,-0.26,0.05,
490,-0.265,0.04,
491,-0.29,0.035,
492,-0.305,0.035,
493,-0.315,0.045,
494,-0.3,0.06,
495,-0.295,0.04,
496,-0.305,0.03,
497,-0.33,0.02,
498,-0.36,0.03,
499,-0.37,0.03,
500,-0.37,0.045,
501,-0.34,0.045,
502,-0.35,0.025,
503,-0.37,0.03,
504,-0.37,0.02,
505,-0.38,0.035,
506,-0.365,0.045,
507,-0.36,0.04,
508,-0.375,0.05,
509,-0.38,0.035,
510,-0.385,0.035,
511,-0.39,0.055,
512,-0.38,0.07,
513,-0.375,0.07,
514,-0.395,0.07,
515,-0.41,0.07,
516,-0.42,0.065,
517,-0.405,0.075,
518,-0.395,0.095,
519,-0.385,0.09,
520,-0.395,0.07,
521,-0.4,0.05,
522,-0.395,0.065,
523,-0.39,0.075,
524,-0.39,0.08,
525,-0.37,0.085,
526,-0.375,0.07,
527,-0.405,0.065,
528,-0.41,0.065,
529,-0.405,0.075,
530,-0.375,0.08,
531,-0.36,0.085,
532,-0.385,0.065,
533,-0.39,0.06,
534,-0.39,0.07,
535,-0.39,0.07,
536,-0.36,0.075,
537,-0.345,0.085,
538,-0.355,0.075,
539,-0.36,0.075,
540,-0.37,0.075,
541,-0.345,0.08,
542,-0.335,0.105,
543,-0.33,0.09,
544,-0.335,0.08,
545,-0.36,0.075,
546,-0.335,0.075,
547,-0.33,0.075,
548,-0.33,0.08,
549,-0.32,0.08,
550,-0.315,0.065,
551,-0.325,0.055,
552,-0.335,0.05,
553,-0.325,0.05,
554,-0.3,0.055,
555,-0.295,0.055,
556,-0.29,0.035,
557,-0.29,0.02,
558,-0.305,0.015,
559,-0.295,0.02,
560,-0.275,0.035,
561,-0.24,0.035,
562,-0.245,0.025,
563,-0.26,0.015,
564,-0.255,0.02,
565,-0.26,0.02,
566,-0.24,0.04,
567,-0.235,0.035,
568,-0.23,0.04,
569,-0.235,0.025,
570,-0.235,0.015,
571,-0.235,0.03,
572,-0.23,0.05,
573,-0.225,0.05,
574,-0.23,0.05,
575,-0.245,0.045,
576,-0.25,0.05,
577,-0.245,0.065,
578,-0.23,0.085,
579,-0.235,0.09,
580,-0.24,0.085,
581,-0.24,0.08,
582,-0.245,0.085,
583,-0.26,0.1,
584,-0.245,0.12,
585,-0.235,0.115,
586,-0.25,0.105,
587,-0.255,0.1,
588,-0.255,0.095,
589,-0.25,0.095,
590,-0.245,0.115,
591,-0.235,0.105,
592,-0.26,0.105,
593,-0.26,0.095,
594,-0.255,0.095,
595,-0.25,0.095,
596,-0.23,0.12,
597,-0.23,0.115,
598,-0.235,0.12,
599,-0.24,0.095,
600,-0.235,0.09,
601,-0.245,0.1,
602,-0.225,0.095,
603,-0.23,0.085,
604,-0.23,0.07,
605,-0.25,0.055,
606,-0.245,0.045,
607,-0.25,0.02,
608,-0.245,0.025,
609,-0.23,0.015,
610,-0.23,-0.015,
611,-0.235,-0.04,
612,-0.23,-0.06,
613,-0.19,-0.06,
614,-0.145,-0.045,
615,-0.145,-0.03,
616,-0.24,-0.005,
617,-0.425,0.025,
618,-0.625,0.06,
619,-0.76,0.115,
620,-0.83,0.16,
621,-0.88,0.21,
622,-0.905,0.245,
623,-0.935,0.295,
624,-0.93,0.365,
625,-0.935,0.44,V
626,-0.935,0.52,
627,-0.955,0.575,
628,-0.945,0.6,
629,-0.925,0.625,
630,-0.905,0.645,
631,-0.875,0.66,
632,-0.835,0.615,
633,-0.795,0.56,
634,-0.755,0.51,
635,-0.725,0.51,
636,-0.695,0.53,
637,-0.66,0.56,
638,-0.63,0.61,
639,-0.62,0.635,
640,-0.62,0.63,
641,-0.635,0.665,
642,-0.61,0.675,
643,-0.575,0.7,
644,-0.53,0.725,
645,-0.525,0.715,
646,-0.475,0.675,
647,-0.46,0.6,
648,-0.42,0.51,
649,-0.36,0.42,
650,-0.305,0.36,
651,-0.28,0.295,
652,-0.275,0.2,
653,-0.255,0.125,
654,-0.24,0.07,
655,-0.215,0.035,
656,-0.195,0.01,
657,-0.18,-0.005,
658,-0.175,-0.02,
659,-0.19,-0.035,
660,-0.185,-0.035,
661,-0.175,-0.045,
662,-0.145,-0.03,
663,-0.14,-0.05,
664,-0.14,-0.06,
665,-0.155,-0.09,
666,-0.15,-0.08,
667,-0.15,-0.095,
668,-0.145,-0.09,
669,-0.125,-0.1,
670,-0.13,-0.1,
671,-0.14,-0.11,
672,-0.15,-0.125,
673,-0.135,-0.115,
674,-0.105,-0.115,
675,-0.105,-0.12,
676,-0.09,-0.13,
677,-0.09,-0.145,
678,-0.07,-0.14,
679,-0.06,-0.135,
680,-0.055,-0.13,
681,-0.04,-0.155,
682,-0.035,-0.16,
683,-0.025,-0.18,
684,-0.035,-0.19,
685,-0.01,-0.18,
686,0.005,-0.17,
687,0.015,-0.165,
688,0.015,-0.185,
689,0.0,-0.205,
690,0.025,-0.205,
691,0.045,-0.21,
692,0.06,-0.205,
693,0.085,-0.2,
694,0.08,-0.22,
695,0.085,-0.22,
696,0.08,-0.225,
697,0.095,-0.215,
698,0.11,-0.215,
699,0.13,-0.225,
700,0.14,-0.24,
701,0.145,-0.255,
702,0.14,-0.27,
703,0.15,-0.27,
704,0.16,-0.27,
705,0.165,-0.27,
706,0.165,-0.285,
707,0.165,-0.295,
708,0.155,-0.295,
709,0.155,-0.28,
710,0.18,-0.265,
711,0.18,-0.26,
712,0.17,-0.27,
713,0.16,-0.29,
714,0.14,-0.29,
715,0.14,-0.27,
716,0.15,-0.255,
717,0.14,-0.245,
718,0.125,-0.255,
719,0.095,-0.26,
720,0.08,-0.255,
721,0.085,-0.24,
722,0.065,-0.22,
723,0.065,-0.22,
724,0.04,-0.235,
725,0.015,-0.22,
726,-0.015,-0.225,
727,-0.035,-0.21,
728,-0.05,-0.195,
729,-0.05,-0.195,
730,-0.055,-0.185,
731,-0.08,-0.19,
732,-0.09,-0.185,
733,-0.1,-0.17,
734,-0.11,-0.155,
735,-0.105,-0.135,
736,-0.125,-0.145,
737,-0.15,-0.145,
738,-0.16,-0.135,
739,-0.165,-0.115,
740,-0.155,-0.085,
741,-0.16,-0.075,
742,-0.16,-0.08,
743,-0.195,-0.08,
744,-0.205,-0.07,
745,-0.21,-0.04,
746,-0.19,-0.02,
747,-0.19,-0.01,
748,-0.205,-0.005,
749,-0.215,-0.01,
750,-0.215,0.015,
751,-0.22,0.03,
752,-0.2,0.05,
753,-0.205,0.06,
754,-0.2,0.06,
755,-0.215,0.04,
756,-0.215,0.05,
757,-0.235,0.055,
758,-0.215,0.085,
759,-0.205,0.065,
760,-0.215,0.065,
761,-0.225,0.045,
762,-0.23,0.045,
763,-0.235,0.065,
764,-0.215,0.08,
765,-0.205,0.08,
766,-0.21,0.08,
767,-0.215,0.075,
768,-0.21,0.07,
769,-0.21,0.085,
770,-0.195,0.075,
771,-0.195,0.08,
772,-0.2,0.07,
773,-0.22,0.035,
774,-0.215,0.03,
775,-0.21,0.035,
776,-0.2,0.045,
777,-0.195,0.05,
778,-0.205,0.025,
779,-0.22,0.025,
780,-0.23,0.01,
781,-0.24,0.01,
782,-0.24,0.02,
783,-0.23,0.0,
784,-0.235,-0.01,
785,-0.255,-0.015,
786,-0.26,-0.03,
787,-0.26,-0.005,
788,-0.255,0.005,
789,-0.24,0.005,
790,-0.245,-0.01,
791,-0.28,-0.01,
792,-0.28,-0.005,
793,-0.275,0.01,
794,-0.27,0.02,
795,-0.265,0.035,
796,-0.27,0.04,
797,-0.275,0.03,
798,-0.29,0.045,
799,-0.28,0.055,
800,-0.265,0.065,
801,-0.265,0.075,
802,-0.265,0.08,
803,-0.265,0.07,
804,-0.275,0.075,
805,-0.27,0.09,
806,-0.26,0.115,
807,-0.25,0.105,
808,-0.26,0.1,
809,-0.275,0.08,
810,-0.28,0.07,
811,-0.255,0.09,
812,-0.25,0.095,
813,-0.245,0.09,
814,-0.265,0.07,
815,-0.27,0.075,
816,-0.265,0.07,
817,-0.255,0.075,
818,-0.23,0.09,
819,-0.235,0.09,
820,-0.245,0.07,
821,-0.245,0.07,
822,-0.25,0.08,
823,-0.255,0.09,
824,-0.245,0.09,
825,-0.23,0.085,
826,-0.23,0.08,
827,-0.235,0.05,
828,-0.245,0.055,
829,-0.235,0.07,
830,-0.235,0.07,
831,-0.235,0.07,
832,-0.235,0.055,
833,-0.24,0.02,
834,-0.255,-0.005,
835,-0.25,-0.005,
836,-0.265,-0.02,
837,-0.26,-0.025,
838,-0.265,-0.045,
839,-0.265,-0.06,
840,-0.26,-0.085,
841,-0.245,-0.065,
842,-0.245,-0.06,
843,-0.235,-0.06,
844,-0.245,-0.06,
845,-0.245,-0.055,
846,-0.23,-0.055,
847,-0.22,-0.04,
848,-0.215,-0.02,
849,-0.205,-0.01,
850,-0.21,-0.025,
851,-0.21,-0.025,
852,-0.22,-0.02,
853,-0.205,0.0,
854,-0.19,0.0,
855,-0.15,0.0,
856,-0.075,-0.035,
857,0.01,-0.045,
858,0.1,-0.065,
859,0.21,-0.08,
860,0.315,-0.105,
861,0.425,-0.11,
862,0.54,-0.125,
863,0.645,-0.155,
864,0.715,-0.21,
865,0.805,-0.26,
866,0.85,-0.295,N
867,0.85,-0.33,
868,0.79,-0.345,
869,0.68,-0.3,
870,0.55,-0.235,
871,0.375,-0.17,
872,0.18,-0.125,
873,0.025,-0.085,
874,-0.065,-0.06,
875,-0.11,-0.045,
876,-0.16,-0.025,
877,-0.2,-0.01,
878,-0.225,0.01,
879,-0.23,0.02,
880,-0.245,0.01,
881,-0.28,0.0,
882,-0.295,0.015,
883,-0.295,0.02,
884,-0.32,0.02,
885,-0.305,0.01,
886,-0.315,-0.005,
887,-0.335,-0.035,
888,-0.35,-0.045,
889,-0.35,-0.045,
890,-0.35,-0.035,
891,-0.36,-0.04,
892,-0.365,-0.045,
893,-0.375,-0.06,
894,-0.375,-0.07,
895,-0.385,-0.04,
896,-0.365,-0.025,
897,-0.365,-0.025,
898,-0.37,-0.025,
899,-0.38,-0.04,
900,-0.385,-0.03,
901,-0.375,-0.005,
902,-0.355,0.01,
903,-0.345,0.02,
904,-0.36,0.02,
905,-0.37,0.015,
906,-0.38,0.03,
907,-0.38,0.035,
908,-0.375,0.06,
909,-0.37,0.06,
910,-0.385,0.065,
911,-0.39,0.055,
912,-0.38,0.055,
913,-0.39,0.09,
914,-0.365,0.085,
915,-0.355,0.085,
916,-0.365,0.085,
917,-0.375,0.07,
918,-0.375,0.075,
919,-0.375,0.07,
920,-0.36,0.09,
921,-0.365,0.08,
922,-0.355,0.065,
923,-0.375,0.04,
924,-0.38,0.035,
925,-0.37,0.045,
926,-0.355,0.06,
927,-0.35,0.055,
928,-0.355,0.05,
929,-0.37,0.03,
930,-0.375,0.02,
931,-0.355,0.01,
932,-0.34,0.02,
933,-0.34,0.005,
934,-0.345,-0.01,
935,-0.38,-0.03,
936,-0.36,-0.03,
937,-0.35,-0.025,
938,-0.345,-0.025,
939,-0.335,-0.025,
940,-0.335,-0.025,
941,-0.345,-0.035,
942,-0.355,-0.035,
943,-0.345,-0.04,
944,-0.34,-0.025,
945,-0.325,-0.02,
946,-0.335,-0.03,
947,-0.32,-0.03,
948,-0.32,-0.04,
949,-0.315,-0.02,
950,-0.28,-0.01,
951,-0.27,-0.015,
952,-0.27,-0.01,
953,-0.27,-0.025,
954,-0.265,-0.005,
955,-0.245,-0.005,
956,-0.23,0.03,
957,-0.22,0.035,
958,-0.215,0.035,
959,-0.215,0.015,
960,-0.215,0.02,
961,-0.2,0.025,
962,-0.19,0.045,
963,-0.17,0.045,
964,-0.175,0.055,
965,-0.185,0.04,
966,-0.19,0.045,
967,-0.18,0.065,
968,-0.17,0.07,
969,-0.16,0.07,
970,-0.18,0.06,
971,-0.165,0.05,
972,-0.16,0.04,
973,-0.16,0.04,
974,-0.14,0.055,
975,-0.15,0.04,
976,-0.155,0.025,
977,-0.155,-0.005,
978,-0.16,-0.02,
979,-0.16,-0.015,
980,-0.155,-0.01,
981,-0.155,-0.01,
982,-0.125,-0.02,
983,-0.15,-0.035,
984,-0.16,-0.045,
985,-0.145,-0.04,
986,-0.115,-0.015,
987,-0.105,-0.015,
988,-0.115,-0.03,
989,-0.12,-0.025,
990,-0.14,-0.015,
991,-0.115,-0.005,
992,-0.105,0.01,
993,-0.1,0.02,
994,-0.11,0.0,
995,-0.125,-0.005,
996,-0.13,-0.005,
997,-0.13,0.01,
998,-0.115,0.01,
999,-0.115,0.005,
1000,-0.135,0.0,
1001,-0.135,0.0,
1002,-0.13,0.01,
1003,-0.12,0.0,
1004,-0.115,0.02,
1005,-0.12,0.01,
1006,-0.135,0.01,
1007,-0.13,0.015,
1008,-0.125,0.01,
1009,-0.125,0.035,
1010,-0.105,0.025,
1011,-0.115,0.03,
1012,-0.12,0.025,
1013,-0.13,0.025,
1014,-0.135,0.04,
1015,-0.12,0.065,
1016,-0.125,0.055,
1017,-0.13,0.055,
1018,-0.13,0.065,
1019,-0.145,0.06,
1020,-0.13,0.07,
1021,-0.135,0.065,
1022,-0.115,0.065,
1023,-0.12,0.035,
1024,-0.12,0.02,
1025,-0.135,0.01,
1026,-0.125,0.01,
1027,-0.115,0.02,
1028,-0.09,0.005,
1029,-0.11,-0.01,
1030,-0.11,-0.025,
1031,-0.125,-0.02,
1032,-0.105,-0.025,
1033,-0.09,0.0,
1034,-0.085,-0.005,
1035,-0.085,-0.01,
1036,-0.1,-0.015,
1037,-0.095,-0.015,
1038,-0.09,0.01,
1039,-0.075,0.015,
1040,-0.06,0.015,
1041,-0.08,0.005,
1042,-0.08,0.005,
1043,-0.09,0.01,
1044,-0.09,0.01,
1045,-0.075,0.045,
1046,-0.07,0.03,
1047,-0.08,0.025,
1048,-0.085,0.015,
1049,-0.09,0.01,
1050,-0.09,0.02,
1051,-0.065,0.025,
1052,-0.06,0.03,
1053,-0.065,0.01,
1054,-0.085,0.0,
1055,-0.095,0.0,
1056,-0.09,0.005,
1057,-0.075,0.01,
1058,-0.055,0.005,
1059,-0.065,0.005,
1060,-0.095,-0.02,
1061,-0.095,-0.005,
1062,-0.095,-0.01,
1063,-0.075,0.0,
1064,-0.065,-0.015,
1065,-0.075,-0.04,
1066,-0.075,-0.045,
1067,-0.085,-0.05,
1068,-0.075,-0.045,
1069,-0.05,-0.04,
1070,0.0,-0.055,
1071,0.075,-0.08,
1072,0.15,-0.125,
1073,0.24,-0.15,
1074,0.355,-0.17,
1075,0.465,-0.19,
1076,0.585,-0.21,
1077,0.685,-0.21,
1078,0.78,-0.245,
1079,0.875,-0.275,
1080,0.945,-0.335,
1081,1.005,-0.37,N
1082,0.995,-0.375,
1083,0.92,-0.38,
1084,0.84,-0.375,
1085,0.735,-0.335,
1086,0.575,-0.27,
1087,0.41,-0.205,
1088,0.255,-0.165,
1089,0.135,-0.14,
1090,0.055,-0.115,
1091,-0.01,-0.1,
1092,-0.045,-0.06,
1093,-0.08,-0.03,
1094,-0.085,-0.025,
1095,-0.11,-0.02,
1096,-0.125,-0.015,
1097,-0.14,-0.005,
1098,-0.14,-0.005,
1099,-0.145,0.02,
1100,-0.15,0.025,
1101,-0.155,0.035,
1102,-0.18,0.02,
1103,-0.205,0.025,
1104,-0.21,0.04,
1105,-0.2,0.05,
1106,-0.215,0.05,
1107,-0.235,0.03,
1108,-0.24,0.02,
1109,-0.25,0.015,
1110,-0.26,0.02,
1111,-0.275,0.025,
1112,-0.27,0.01,
1113,-0.275,-0.01,
1114,-0.285,-0.02,
1115,-0.315,-0.02,
1116,-0.315,-0.03,
1117,-0.315,-0.02,
1118,-0.3,-0.045,
1119,-0.305,-0.03,
1120,-0.325,-0.035,
1121,-0.325,-0.03,
1122,-0.325,-0.02,
1123,-0.325,-0.02,
1124,-0.325,-0.015,
1125,-0.32,-0.015,
1126,-0.335,-0.005,
1127,-0.34,0.005,
1128,-0.335,0.015,
1129,-0.32,0.035,
1130,-0.315,0.05,
1131,-0.315,0.035,
1132,-0.32,0.045,
1133,-0.335,0.04,
1134,-0.315,0.06,
1135,-0.3,0.065,
1136,-0.295,0.065,
1137,-0.3,0.05,
1138,-0.305,0.04,
1139,-0.32,0.035,
1140,-0.32,0.045,
1141,-0.29,0.045,
1142,-0.28,0.05,
1143,-0.28,0.06,
1144,-0.305,0.03,
1145,-0.295,0.025,
1146,-0.285,0.035,
1147,-0.26,0.045,
1148,-0.26,0.055,
1149,-0.245,0.035,
1150,-0.255,0.04,
1151,-0.255,0.04,
1152,-0.245,0.055,
1153,-0.235,0.06,
1154,-0.22,0.055,
1155,-0.22,0.05,
1156,-0.235,0.03,
1157,-0.225,0.045,
1158,-0.22,0.05,
1159,-0.205,0.05,
1160,-0.19,0.05,
1161,-0.185,0.01,
1162,-0.19,-0.02,
1163,-0.19,-0.06,
1164,-0.17,-0.065,
1165,-0.155,-0.05,
1166,-0.14,-0.06,
1167,-0.14,-0.07,
1168,-0.145,-0.075,
1169,-0.15,-0.075,
1170,-0.13,-0.055,
1171,-0.12,-0.04,
1172,-0.105,-0.035,
1173,-0.12,-0.045,
1174,-0.115,-0.06,
1175,-0.125,-0.035,
1176,-0.12,-0.025,
1177,-0.11,0.0,
1178,-0.105,0.0,
1179,-0.115,0.005,
1180,-0.12,0.0,
1181,-0.125,0.01,
1182,-0.13,0.03,
1183,-0.11,0.05,
1184,-0.085,0.045,
1185,-0.085,0.05,
1186,-0.1,0.05,
1187,-0.11,0.045,
1188,-0.11,0.055,
1189,-0.09,0.07,
1190,-0.075,0.07,
1191,-0.075,0.05,
1192,-0.095,0.04,
1193,-0.11,0.045,
1194,-0.1,0.06,
1195,-0.09,0.085,
1196,-0.08,0.075,
1197,-0.08,0.075,
1198,-0.085,0.06,
1199,-0.085,0.065,
1200,-0.085,0.085,
1201,-0.075,0.08,
1202,-0.065,0.08,
1203,-0.075,0.05,
1204,-0.085,0.05,
1205,-0.1,0.055,
1206,-0.09,0.05,
1207,-0.08,0.065,
1208,-0.075,0.065,
1209,-0.08,0.035,
1210,-0.09,0.015,
1211,-0.11,0.015,
1212,-0.105,0.01,
1213,-0.1,0.005,
1214,-0.085,0.01,
1215,-0.085,0.0,
1216,-0.095,-0.005,
1217,-0.105,-0.01,
1218,-0.09,-0.005,
1219,-0.11,0.025,
1220,-0.09,0.015,
1221,-0.08,0.03,
1222,-0.08,0.025,
1223,-0.105,0.015,
1224,-0.105,0.03,
1225,-0.085,0.045,
1226,-0.075,0.06,
1227,-0.085,0.055,
1228,-0.105,0.045,
1229,-0.105,0.05,
1230,-0.1,0.065,
1231,-0.08,0.09,
1232,-0.075,0.095,
1233,-0.065,0.08,
1234,-0.075,0.08,
1235,-0.085,0.08,
1236,-0.085,0.095,
1237,-0.085,0.1,
1238,-0.07,0.1,
1239,-0.055,0.09,
1240,-0.07,0.075,
1241,-0.09,0.075,
1242,-0.09,0.08,
1243,-0.07,0.08,
1244,-0.06,0.075,
1245,-0.055,0.05,
1246,-0.07,0.03,
1247,-0.08,0.03,
1248,-0.075,0.025,
1249,-0.075,0.025,
1250,-0.045,0.015,
1251,-0.045,0.01,
1252,-0.05,-0.01,
1253,-0.06,-0.005,
1254,-0.06,-0.005,
1255,-0.055,0.005,
1256,-0.045,0.01,
1257,-0.055,-0.005,
1258,-0.055,-0.01,
1259,-0.055,-0.01,
1260,-0.065,-0.01,
1261,-0.065,0.005,
1262,-0.055,0.005,
1263,-0.07,-0.01,
1264,-0.08,-0.005,
1265,-0.105,-0.005,
1266,-0.08,-0.01,
1267,-0.07,-0.005,
1268,-0.07,-0.005,
1269,-0.075,-0.015,
1270,-0.085,-0.015,
1271,-0.1,-0.015,
1272,-0.09,0.015,
1273,-0.08,0.02,
1274,-0.05,0.035,
1275,-0.075,0.025,
1276,-0.085,0.02,
1277,-0.1,0.03,
1278,-0.08,0.045,
1279,-0.05,0.055,
1280,-0.045,0.075,
1281,-0.07,0.075,
1282,-0.055,0.07,
1283,-0.06,0.095,
1284,-0.055,0.105,
1285,-0.035,0.12,
1286,0.0,0.105,
1287,0.04,0.08,
1288,0.11,0.035,
1289,0.21,0.005,
1290,0.305,-0.015,
1291,0.43,-0.035,
1292,0.535,-0.06,
1293,0.65,-0.115,
1294,0.755,-0.125,
1295,0.865,-0.145,
1296,0.96,-0.21,
1297,1.02,-0.27,
1298,1.04,-0.295,N
1299,1.0,-0.325,
1300,0.935,-0.34,
1301,0.835,-0.305,
1302,0.705,-0.255,
1303,0.515,-0.195,
1304,0.33,-0.16,
1305,0.17,-0.135,
1306,0.09,-0.11,
1307,0.025,-0.085,
1308,-0.01,-0.055,
1309,-0.05,-0.03,
1310,-0.06,-0.02,
1311,-0.09,-0.025,
1312,-0.11,-0.02,
1313,-0.14,-0.03,
1314,-0.145,-0.03,
1315,-0.145,0.0,
1316,-0.145,0.01,
1317,-0.16,-0.005,
1318,-0.175,-0.005,
1319,-0.2,-0.01,
1320,-0.2,0.01,
1321,-0.195,0.03,
1322,-0.185,0.03,
1323,-0.2,0.02,
1324,-0.22,0.01,
1325,-0.23,0.03,
1326,-0.23,0.055,
1327,-0.225,0.07,
1328,-0.23,0.075,
1329,-0.24,0.07,
1330,-0.25,0.075,
1331,-0.26,0.075,
1332,-0.27,0.105,
1333,-0.265,0.12,
1334,-0.265,0.125,
1335,-0.28,0.12,
1336,-0.275,0.12,
1337,-0.285,0.125,
1338,-0.275,0.125,
1339,-0.26,0.155,
1340,-0.26,0.15,
1341,-0.26,0.135,
1342,-0.26,0.125,
1343,-0.255,0.115,
1344,-0.24,0.125,
1345,-0.24,0.125,
1346,-0.24,0.105,
1347,-0.235,0.085,
1348,-0.25,0.065,
1349,-0.26,0.055,
1350,-0.25,0.055,
1351,-0.24,0.065,
1352,-0.235,0.065,
1353,-0.23,0.075,
1354,-0.245,0.045,
1355,-0.25,0.06,
1356,-0.245,0.06,
1357,-0.225,0.085,
1358,-0.21,0.075,
1359,-0.205,0.07,
1360,-0.225,0.065,
1361,-0.225,0.055,
1362,-0.22,0.055,
1363,-0.205,0.08,
1364,-0.19,0.075,
1365,-0.195,0.08,
1366,-0.205,0.065,
1367,-0.215,0.065,
1368,-0.21,0.09,
1369,-0.195,0.08,
1370,-0.205,0.085,
1371,-0.205,0.08,
1372,-0.215,0.075,
1373,-0.215,0.07,
1374,-0.2,0.085,
1375,-0.18,0.1,
1376,-0.175,0.11,
1377,-0.18,0.095,
1378,-0.18,0.09,
1379,-0.185,0.09,
1380,-0.17,0.095,
1381,-0.14,0.12,
1382,-0.135,0.125,
1383,-0.135,0.13,
1384,-0.14,0.11,
1385,-0.135,0.115,
1386,-0.13,0.135,
1387,-0.12,0.14,
1388,-0.115,0.13,
1389,-0.11,0.115,
1390,-0.11,0.085,
1391,-0.12,0.06,
1392,-0.11,0.07,
1393,-0.095,0.08,
1394,-0.09,0.075,
1395,-0.075,0.065,
1396,-0.085,0.045,
1397,-0.085,0.04,
1398,-0.08,0.045,
1399,-0.07,0.045,
1400,-0.07,0.045,
1401,-0.05,0.06,
1402,-0.06,0.045,
1403,-0.06,0.04,
1404,-0.05,0.05,
1405,-0.05,0.06,
1406,-0.045,0.065,
1407,-0.055,0.065,
1408,-0.045,0.07,
1409,-0.06,0.075,
1410,-0.055,0.09,
1411,-0.03,0.12,
1412,-0.025,0.105,
1413,-0.025,0.105,
1414,-0.035,0.105,
1415,-0.04,0.105,
1416,-0.03,0.13,
1417,-0.025,0.13,
1418,-0.015,0.12,
1419,-0.03,0.125,
1420,-0.03,0.125,
1421,-0.055,0.115,
1422,-0.04,0.12,
1423,-0.035,0.14,
1424,-0.03,0.135,
1425,-0.045,0.135,
1426,-0.065,0.11,
1427,-0.055,0.12,
1428,-0.05,0.12,
1429,-0.025,0.14,
1430,-0.025,0.13,
1431,-0.025,0.13,
1432,-0.04,0.12,
1433,-0.05,0.12,
1434,-0.06,0.14,
1435,-0.05,0.155,
1436,-0.05,0.155,
1437,-0.055,0.14,
1438,-0.065,0.12,
1439,-0.06,0.12,
1440,-0.075,0.13,
1441,-0.065,0.13,
1442,-0.06,0.12,
1443,-0.065,0.12,
1444,-0.08,0.105,
1445,-0.07,0.115,
1446,-0.07,0.125,
1447,-0.065,0.135,
1448,-0.065,0.145,
1449,-0.055,0.135,
1450,-0.065,0.115,
1451,-0.07,0.115,
1452,-0.07,0.13,
1453,-0.05,0.125,
1454,-0.05,0.125,
1455,-0.04,0.12,
1456,-0.05,0.105,
1457,-0.055,0.105,
1458,-0.05,0.125,
1459,-0.04,0.135,
1460,-0.025,0.135,
1461,-0.03,0.14,
1462,-0.035,0.13,
1463,-0.04,0.135,
1464,-0.03,0.145,
1465,-0.02,0.16,
1466,-0.01,0.175,
1467,-0.01,0.16,
1468,-0.01,0.155,
1469,-0.02,0.155,
1470,-0.015,0.16,
1471,-0.015,0.175,
1472,0.005,0.15,
1473,-0.005,0.14,
1474,-0.01,0.135,
1475,-0.025,0.115,
1476,-0.01,0.12,
1477,-0.015,0.105,
1478,0.0,0.095,
1479,-0.005,0.08,
1480,-0.02,0.06,
1481,-0.025,0.05,
1482,-0.03,0.055,
1483,-0.02,0.06,
1484,-0.005,0.065,
1485,-0.02,0.05,
1486,-0.035,0.05,
1487,-0.045,0.06,
1488,-0.035,0.07,
1489,-0.02,0.085,
1490,-0.015,0.095,
1491,-0.015,0.1,
1492,-0.04,0.095,
1493,-0.065,0.09,
1494,-0.075,0.105,
1495,-0.055,0.11,
1496,-0.05,0.1,
1497,-0.055,0.09,
1498,-0.075,0.075,
1499,-0.085,0.1,
1500,-0.08,0.115,
1501,-0.075,0.135,
1502,-0.05,0.12,
1503,-0.075,0.115,
1504,-0.06,0.11,
1505,-0.075,0.115,
1506,-0.075,0.125,
1507,-0.075,0.145,
1508,-0.065,0.135,
1509,-0.065,0.14,
1510,-0.09,0.11,
1511,-0.09,0.115,
1512,-0.075,0.125,
1513,-0.07,0.135,
1514,-0.05,0.14,
1515,-0.055,0.145,
1516,-0.065,0.135,
1517,-0.075,0.135,
1518,-0.06,0.155,
1519,-0.04,0.17,
1520,-0.025,0.17,
1521,-0.025,0.165,
1522,-0.04,0.155,
1523,-0.05,0.165,
1524,-0.03,0.18,
1525,-0.02,0.195,
1526,-0.005,0.185,
1527,-0.015,0.185,
1528,-0.035,0.175,
1529,-0.04,0.18,
1530,-0.04,0.18,
1531,-0.035,0.18,
1532,-0.02,0.18,
1533,-0.045,0.15,
1534,-0.065,0.125,
1535,-0.065,0.115,
1536,-0.06,0.11,
1537,-0.055,0.1,
1538,-0.05,0.085,
1539,-0.04,0.065,
1540,-0.055,0.055,
1541,-0.065,0.055,
1542,-0.06,0.055,
1543,-0.055,0.065,
1544,-0.055,0.065,
1545,-0.06,0.055,
1546,-0.085,0.04,
1547,-0.085,0.055,
1548,-0.095,0.065,
1549,-0.07,0.07,
1550,-0.065,0.075,
1551,-0.075,0.065,
1552,-0.085,0.075,
1553,-0.1,0.065,
1554,-0.11,0.085,
1555,-0.105,0.105,
1556,-0.065,0.115,
1557,-0.075,0.11,
1558,-0.085,0.105,
1559,-0.095,0.11,
1560,-0.085,0.13,
1561,-0.075,0.145,
1562,-0.06,0.145,
1563,-0.055,0.135,
1564,-0.07,0.12,
1565,-0.07,0.125,
1566,-0.07,0.13,
1567,-0.055,0.135,
1568,-0.045,0.135,
1569,-0.05,0.135,
1570,-0.055,0.14,
1571,-0.05,0.145,
1572,-0.05,0.155,
1573,-0.03,0.2,
1574,-0.035,0.19,
1575,-0.01,0.185,
1576,0.035,0.155,
1577,0.105,0.145,
1578,0.205,0.145,
1579,0.32,0.135,
1580,0.445,0.105,
1581,0.54,0.05,
1582,0.64,0.015,
1583,0.755,0.0,
1584,0.88,-0.03,
1585,0.965,-0.08,
1586,1.005,-0.16,N
1587,0.985,-0.205,
1588,0.92,-0.23,
1589,0.845,-0.225,
1590,0.75,-0.2,
1591,0.635,-0.15,
1592,0.465,-0.105,
1593,0.26,-0.075,
1594,0.105,-0.045,
1595,0.02,-0.045,
1596,-0.015,-0.01,
1597,-0.055,0.025,
1598,-0.095,0.045,
1599,-0.14,0.06,
1600,-0.18,0.06,
1601,-0.18,0.055,
1602,-0.18,0.085,
1603,-0.19,0.095,
1604,-0.195,0.11,
1605,-0.205,0.095,
1606,-0.235,0.09,
1607,-0.24,0.1,
1608,-0.235,0.125,
1609,-0.24,0.14,
1610,-0.225,0.145,
1611,-0.23,0.16,
1612,-0.25,0.15,
1613,-0.255,0.17,
1614,-0.265,0.175,
1615,-0.26,0.2,
1616,-0.25,0.205,
1617,-0.26,0.21,
1618,-0.265,0.2,
1619,-0.29,0.21,
1620,-0.275,0.235,
1621,-0.275,0.24,
1622,-0.26,0.245,
1623,-0.265,0.235,
1624,-0.275,0.225,
1625,-0.28,0.225,
1626,-0.295,0.235,
1627,-0.285,0.255,
1628,-0.275,0.26,
1629,-0.28,0.255,
1630,-0.295,0.24,
1631,-0.29,0.245,
1632,-0.29,0.275,
1633,-0.275,0.285,
1634,-0.26,0.285,
1635,-0.265,0.26,
1636,-0.27,0.225,
1637,-0.275,0.195,
1638,-0.28,0.19,
1639,-0.26,0.175,
1640,-0.255,0.165,
1641,-0.26,0.145,
1642,-0.275,0.125,
1643,-0.28,0.115,
1644,-0.28,0.115,
1645,-0.26,0.135,
1646,-0.27,0.13,
1647,-0.27,0.125,
1648,-0.295,0.095,
1649,-0.3,0.1,
1650,-0.295,0.115,
1651,-0.28,0.125,
1652,-0.275,0.125,
1653,-0.275,0.115,
1654,-0.29,0.095,
1655,-0.285,0.105,
1656,-0.29,0.11,
1657,-0.275,0.145,
1658,-0.26,0.14,
1659,-0.265,0.14,
1660,-0.27,0.13,
1661,-0.28,0.13,
1662,-0.28,0.135,
1663,-0.28,0.16,
1664,-0.27,0.155,
1665,-0.28,0.18,
1666,-0.285,0.185,
1667,-0.275,0.195,
1668,-0.26,0.2,
1669,-0.245,0.225,
1670,-0.245,0.215,
1671,-0.25,0.225,
1672,-0.245,0.215,
1673,-0.24,0.215,
1674,-0.245,0.225,
1675,-0.21,0.23,
1676,-0.205,0.235,
1677,-0.2,0.225,
1678,-0.19,0.205,
1679,-0.18,0.195,
1680,-0.165,0.21,
1681,-0.165,0.21,
1682,-0.155,0.2,
1683,-0.15,0.18,
1684,-0.15,0.17,
1685,-0.155,0.155,
1686,-0.15,0.175,
1687,-0.12,0.175,
1688,-0.105,0.18,
1689,-0.1,0.16,
1690,-0.115,0.145,
1691,-0.115,0.145,
1692,-0.11,0.145,
1693,-0.095,0.15,
1694,-0.08,0.165,
1695,-0.105,0.165,
1696,-0.095,0.14,
1697,-0.12,0.15,
1698,-0.11,0.165,
1699,-0.1,0.175,
1700,-0.1,0.18,
1701,-0.1,0.165,
1702,-0.105,0.165,
1703,-0.11,0.17,
1704,-0.125,0.175,
1705,-0.11,0.19,
1706,-0.1,0.205,
1707,-0.11,0.195,
1708,-0.12,0.205,
1709,-0.14,0.205,
1710,-0.135,0.225,
1711,-0.12,0.235,
1712,-0.105,0.235,
1713,-0.13,0.24,
1714,-0.135,0.225,
1715,-0.135,0.235,
1716,-0.13,0.235,
1717,-0.135,0.25,
1718,-0.115,0.24,
1719,-0.125,0.245,
1720,-0.14,0.22,
1721,-0.14,0.235,
1722,-0.125,0.24,
1723,-0.115,0.245,
1724,-0.115,0.245,
1725,-0.12,0.23,
1726,-0.12,0.21,
1727,-0.13,0.215,
1728,-0.12,0.215,
1729,-0.11,0.21,
1730,-0.1,0.2,
1731,-0.095,0.19,
1732,-0.095,0.15,
1733,-0.11,0.15,
1734,-0.115,0.165,
1735,-0.11,0.175,
1736,-0.1,0.175,
1737,-0.095,0.17,
1738,-0.09,0.16,
1739,-0.09,0.155,
1740,-0.115,0.175,
1741,-0.09,0.195,
1742,-0.085,0.2,
1743,-0.08,0.185,
1744,-0.085,0.175,
1745,-0.08,0.17,
1746,-0.085,0.18,
1747,-0.08,0.175,
1748,-0.09,0.19,
1749,-0.09,0.195,
1750,-0.105,0.17,
1751,-0.1,0.165,
1752,-0.12,0.165,
1753,-0.095,0.18,
1754,-0.105,0.175,
1755,-0.095,0.175,
1756,-0.1,0.17,
1757,-0.105,0.155,
1758,-0.11,0.185,
1759,-0.1,0.195,
1760,-0.1,0.19,
1761,-0.115,0.185,
1762,-0.125,0.19,
1763,-0.135,0.185,
1764,-0.135,0.185,
1765,-0.12,0.195,
1766,-0.115,0.18,
1767,-0.105,0.155,
1768,-0.125,0.135,
1769,-0.125,0.135,
1770,-0.12,0.15,
1771,-0.11,0.16,
1772,-0.08,0.15,
1773,-0.095,0.145,
1774,-0.095,0.14,
1775,-0.115,0.135,
1776,-0.12,0.135,
1777,-0.085,0.145,
1778,-0.07,0.155,
1779,-0.07,0.14,
1780,-0.09,0.13,
1781,-0.1,0.125,
1782,-0.1,0.125,
1783,-0.095,0.135,
1784,-0.06,0.145,
1785,-0.06,0.14,
1786,-0.08,0.13,
1787,-0.105,0.14,
1788,-0.085,0.14,
1789,-0.07,0.15,
1790,-0.065,0.16,
1791,-0.06,0.155,
1792,-0.065,0.155,
1793,-0.07,0.15,
1794,-0.09,0.17,
1795,-0.07,0.17,
1796,-0.08,0.18,
1797,-0.065,0.18,
1798,-0.065,0.165,
1799,-0.075,0.165,
1800,-0.07,0.175,
1801,-0.06,0.185,
1802,-0.05,0.175,
1803,-0.07,0.17,
1804,-0.07,0.17,
1805,-0.095,0.155,
1806,-0.075,0.17,
1807,-0.045,0.165,
1808,0.01,0.145,
1809,0.09,0.12,
1810,0.175,0.075,
1811,0.28,0.04,
1812,0.39,0.01,
1813,0.535,-0.025,
1814,0.675,-0.065,
1815,0.79,-0.11,
1816,0.89,-0.15,
1817,0.94,-0.205,
1818,0.95,-0.245,N
1819,0.915,-0.23,
1820,0.865,-0.215,
1821,0.755,-0.185,
1822,0.61,-0.145,
1823,0.405,-0.075,
1824,0.21,-0.015,
1825,0.075,0.03,
1826,0.02,0.065,
1827,-0.04,0.08,
1828,-0.09,0.105,
1829,-0.145,0.11,
1830,-0.15,0.13,
1831,-0.14,0.145,
1832,-0.135,0.135,
1833,-0.145,0.145,
1834,-0.175,0.115,
1835,-0.185,0.125,
1836,-0.185,0.145,
1837,-0.195,0.17,
1838,-0.18,0.17,
1839,-0.18,0.18,
1840,-0.19,0.165,
1841,-0.195,0.155,
1842,-0.2,0.175,
1843,-0.19,0.195,
1844,-0.195,0.205,
1845,-0.21,0.195,
1846,-0.22,0.185,
1847,-0.215,0.185,
1848,-0.215,0.2,
1849,-0.23,0.22,
1850,-0.22,0.21,
1851,-0.22,0.22,
1852,-0.23,0.195,
1853,-0.24,0.165,
1854,-0.26,0.17,
1855,-0.26,0.155,
1856,-0.25,0.135,
1857,-0.255,0.125,
1858,-0.26,0.11,
1859,-0.27,0.12,
1860,-0.26,0.125,
1861,-0.26,0.135,
1862,-0.26,0.14,
1863,-0.24,0.13,
1864,-0.27,0.125,
1865,-0.275,0.11,
1866,-0.255,0.12,
1867,-0.245,0.145,
1868,-0.245,0.145,
1869,-0.255,0.135,
1870,-0.26,0.115,
1871,-0.27,0.105,
1872,-0.285,0.13,
1873,-0.27,0.15,
1874,-0.27,0.155,
1875,-0.265,0.15,
1876,-0.275,0.145,
1877,-0.28,0.15,
1878,-0.275,0.165,
1879,-0.26,0.175,
1880,-0.24,0.175,
1881,-0.235,0.165,
1882,-0.245,0.175,
1883,-0.255,0.165,
1884,-0.25,0.185,
1885,-0.235,0.205,
1886,-0.23,0.215,
1887,-0.23,0.2,
1888,-0.225,0.2,
1889,-0.22,0.185,
1890,-0.23,0.205,
1891,-0.21,0.2,
1892,-0.195,0.195,
1893,-0.185,0.175,
1894,-0.175,0.155,
1895,-0.175,0.145,
1896,-0.165,0.13,
1897,-0.15,0.15,
1898,-0.13,0.145,
1899,-0.125,0.135,
1900,-0.135,0.105,
1901,-0.115,0.105,
1902,-0.11,0.12,
1903,-0.1,0.13,
1904,-0.08,0.115,
1905,-0.085,0.105,
1906,-0.1,0.095,
1907,-0.095,0.09,
1908,-0.1,0.105,
1909,-0.085,0.115,
1910,-0.065,0.115,
1911,-0.055,0.12,
1912,-0.075,0.12,
1913,-0.08,0.1,
1914,-0.075,0.125,
1915,-0.065,0.135,
1916,-0.05,0.14,
1917,-0.045,0.13,
1918,-0.055,0.13,
1919,-0.08,0.13,
1920,-0.085,0.155,
1921,-0.065,0.15,
1922,-0.065,0.17,
1923,-0.075,0.165,
1924,-0.075,0.16,
1925,-0.08,0.155,
1926,-0.085,0.175,
1927,-0.09,0.195,
1928,-0.065,0.2,
1929,-0.065,0.21,
1930,-0.07,0.21,
1931,-0.075,0.21,
1932,-0.07,0.205,
1933,-0.075,0.235,
1934,-0.065,0.225,
1935,-0.05,0.215,
1936,-0.065,0.19,
1937,-0.07,0.165,
1938,-0.055,0.165,
1939,-0.06,0.155,
1940,-0.035,0.145,
1941,-0.04,0.135,
1942,-0.045,0.13,
1943,-0.05,0.125,
1944,-0.05,0.155,
1945,-0.035,0.16,
1946,-0.015,0.185,
1947,-0.015,0.175,
1948,-0.015,0.16,
1949,-0.025,0.165,
1950,-0.02,0.165,
1951,-0.01,0.18,
1952,0.005,0.18,
1953,0.005,0.165,
1954,-0.01,0.155,
1955,-0.03,0.145,
1956,-0.025,0.16,
1957,-0.005,0.165,
1958,0.0,0.155,
1959,-0.01,0.145,
1960,-0.015,0.13,
1961,-0.04,0.115,
1962,-0.035,0.13,
1963,-0.025,0.15,
1964,-0.02,0.145,
1965,-0.02,0.14,
1966,-0.03,0.14,
1967,-0.045,0.13,
1968,-0.05,0.135,
1969,-0.045,0.165,
1970,-0.03,0.175,
1971,-0.035,0.17,
1972,-0.04,0.17,
1973,-0.055,0.175,
1974,-0.065,0.19,
1975,-0.07,0.195,
1976,-0.065,0.205,
1977,-0.06,0.19,
1978,-0.075,0.18,
1979,-0.085,0.195,
1980,-0.075,0.185,
1981,-0.065,0.205,
1982,-0.055,0.2,
1983,-0.05,0.19,
1984,-0.065,0.185,
1985,-0.07,0.175,
1986,-0.055,0.17,
1987,-0.06,0.19,
1988,-0.045,0.175,
1989,-0.035,0.165,
1990,-0.055,0.145,
1991,-0.055,0.145,
1992,-0.055,0.16,
1993,-0.035,0.175,
1994,-0.01,0.175,
1995,-0.02,0.17,
1996,-0.04,0.155,
1997,-0.035,0.155,
1998,-0.035,0.165,
1999,-0.02,0.17,
2000,-0.005,0.18,
2001,0.0,0.175,
2002,-0.02,0.155,
2003,-0.035,0.16,
2004,-0.03,0.16,
2005,-0.005,0.17,
2006,0.0,0.16,
2007,-0.005,0.155,
2008,0.0,0.145,
2009,-0.015,0.13,
2010,-0.03,0.135,
2011,-0.02,0.13,
2012,0.0,0.125,
2013,-0.005,0.12,
2014,-0.025,0.105,
2015,-0.03,0.095,
2016,-0.035,0.1,
2017,-0.01,0.095,
2018,0.015,0.065,
2019,0.08,0.04,
2020,0.16,0.01,
2021,0.255,-0.025,
2022,0.39,-0.045,
2023,0.505,-0.07,
2024,0.655,-0.085,
2025,0.77,-0.075,
2026,0.88,-0.11,
2027,0.975,-0.16,
2028,1.03,-0.2,N
2029,1.03,-0.22,
2030,1.0,-0.22,
2031,0.895,-0.18,
2032,0.76,-0.135,
2033,0.585,-0.075,
2034,0.37,-0.01,
2035,0.21,0.035,
2036,0.1,0.08,
2037,0.025,0.095,
2038,-0.025,0.1,
2039,-0.075,0.12,
2040,-0.1,0.145,
2041,-0.11,0.17,
2042,-0.125,0.155,
2043,-0.125,0.16,
2044,-0.15,0.155,
2045,-0.175,0.16,
2046,-0.175,0.17,
2047,-0.17,0.18,
2048,-0.17,0.18,
2049,-0.18,0.17,
2050,-0.19,0.18,
2051,-0.21,0.18,
2052,-0.195,0.18,
2053,-0.195,0.17,
2054,-0.185,0.165,
2055,-0.185,0.155,
2056,-0.195,0.15,
2057,-0.22,0.125,
2058,-0.225,0.13,
2059,-0.225,0.125,
2060,-0.205,0.12,
2061,-0.205,0.09,
2062,-0.22,0.075,
2063,-0.245,0.075,
2064,-0.255,0.065,
2065,-0.245,0.075,
2066,-0.235,0.065,
2067,-0.235,0.045,
2068,-0.25,0.04,
2069,-0.255,0.05,
2070,-0.255,0.065,
2071,-0.255,0.09,
2072,-0.26,0.09,
2073,-0.245,0.11,
2074,-0.25,0.1,
2075,-0.27,0.1,
2076,-0.265,0.115,
2077,-0.255,0.12,
2078,-0.255,0.155,
2079,-0.25,0.15,
2080,-0.27,0.14,
2081,-0.265,0.15,
2082,-0.265,0.165,
2083,-0.255,0.18,
2084,-0.245,0.185,
2085,-0.245,0.195,
2086,-0.26,0.18,
2087,-0.265,0.19,
2088,-0.25,0.2,
2089,-0.25,0.21,
2090,-0.23,0.195,
2091,-0.245,0.195,
2092,-0.235,0.185,
2093,-0.245,0.17,
2094,-0.24,0.165,
2095,-0.225,0.175,
2096,-0.21,0.17,
2097,-0.21,0.16,
2098,-0.21,0.135,
2099,-0.215,0.125,
2100,-0.195,0.13,
2101,-0.185,0.125,
2102,-0.16,0.115,
2103,-0.145,0.11,
2104,-0.145,0.09,
2105,-0.135,0.085,
2106,-0.12,0.105,
2107,-0.1,0.095,
2108,-0.085,0.1,
2109,-0.08,0.08,
2110,-0.085,0.07,
2111,-0.105,0.085,
2112,-0.11,0.08,
2113,-0.09,0.1,
2114,-0.075,0.095,
2115,-0.07,0.09,
2116,-0.075,0.085,
2117,-0.08,0.085,
2118,-0.075,0.105,
2119,-0.065,0.12,
2120,-0.04,0.13,
2121,-0.055,0.135,
2122,-0.06,0.135,
2123,-0.07,0.135,
2124,-0.07,0.145,
2125,-0.065,0.175,
2126,-0.05,0.17,
2127,-0.045,0.16,
2128,-0.065,0.15,
2129,-0.08,0.165,
2130,-0.085,0.175,
2131,-0.085,0.2,
2132,-0.075,0.19,
2133,-0.075,0.185,
2134,-0.07,0.18,
2135,-0.085,0.175,
2136,-0.1,0.175,
2137,-0.095,0.18,
2138,-0.08,0.165,
2139,-0.065,0.16,
2140,-0.075,0.125,
2141,-0.085,0.115,
2142,-0.08,0.11,
2143,-0.09,0.12,
2144,-0.075,0.13,
2145,-0.08,0.125,
2146,-0.085,0.115,
2147,-0.085,0.115,
2148,-0.085,0.14,
2149,-0.065,0.145,
2150,-0.055,0.14,
2151,-0.04,0.14,
2152,-0.045,0.125,
2153,-0.05,0.12,
2154,-0.05,0.135,
2155,-0.04,0.145,
2156,-0.035,0.145,
2157,-0.045,0.155,
2158,-0.07,0.12,
2159,-0.065,0.125,
2160,-0.065,0.13,
2161,-0.055,0.12,
2162,-0.06,0.14,
2163,-0.055,0.135,
2164,-0.06,0.125,
2165,-0.075,0.11,
2166,-0.085,0.125,
2167,-0.065,0.125,
2168,-0.06,0.125,
2169,-0.07,0.125,
2170,-0.09,0.115,
2171,-0.1,0.095,
2172,-0.095,0.115,
2173,-0.085,0.14,
2174,-0.07,0.125,
2175,-0.08,0.125,
2176,-0.09,0.105,
2177,-0.1,0.105,
2178,-0.09,0.115,
2179,-0.1,0.145,
2180,-0.095,0.125,
2181,-0.09,0.125,
2182,-0.095,0.125,
2183,-0.1,0.115,
2184,-0.095,0.13,
2185,-0.075,0.135,
2186,-0.075,0.13,
2187,-0.065,0.115,
2188,-0.075,0.115,
2189,-0.08,0.11,
2190,-0.09,0.115,
2191,-0.075,0.125,
2192,-0.085,0.12,
2193,-0.075,0.125,
2194,-0.075,0.11,
2195,-0.08,0.12,
2196,-0.08,0.125,
2197,-0.07,0.145,
2198,-0.065,0.15,
2199,-0.06,0.145,
2200,-0.055,0.145,
2201,-0.07,0.145,
2202,-0.08,0.15,
2203,-0.055,0.15,
2204,-0.055,0.155,
2205,-0.06,0.15,
2206,-0.075,0.14,
2207,-0.065,0.13,
2208,-0.065,0.14,
2209,-0.055,0.15,
2210,-0.055,0.15,
2211,-0.055,0.14,
2212,-0.07,0.105,
2213,-0.085,0.085,
2214,-0.085,0.065,
2215,-0.075,0.065,
2216,-0.07,0.05,
2217,-0.06,0.04,
2218,-0.07,0.03,
2219,-0.08,0.025,
2220,-0.075,0.03,
2221,-0.075,0.05,
2222,-0.055,0.045,
2223,-0.05,0.045,
2224,-0.065,0.045,
2225,-0.075,0.04,
2226,-0.075,0.06,
2227,-0.065,0.055,
2228,-0.06,0.055,
2229,-0.07,0.05,
2230,-0.07,0.05,
2231,-0.08,0.04,
2232,-0.09,0.06,
2233,-0.07,0.085,
2234,-0.065,0.085,
2235,-0.065,0.095,
2236,-0.09,0.11,
2237,-0.085,0.105,
2238,-0.075,0.12,
2239,-0.03,0.115,
2240,0.04,0.09,
2241,0.145,0.065,
2242,0.26,0.015,
2243,0.375,-0.005,
2244,0.485,-0.045,
2245,0.6,-0.06,
2246,0.725,-0.05,
2247,0.855,-0.09,
2248,0.925,-0.175,
2249,0.955,-0.225,N
2250,0.945,-0.235,
2251,0.905,-0.215,
2252,0.825,-0.19,
2253,0.7,-0.145,
2254,0.505,-0.095,
2255,0.27,-0.05,
2256,0.105,0.0,
2257,0.02,0.035,
2258,-0.02,0.045,
2259,-0.09,0.045,
2260,-0.12,0.025,
2261,-0.16,0.02,
2262,-0.175,0.025,
2263,-0.165,0.035,
2264,-0.195,0.045,
2265,-0.21,0.05,
2266,-0.22,0.025,
2267,-0.23,0.025,
2268,-0.24,0.035,
2269,-0.235,0.065,
2270,-0.245,0.075,
2271,-0.255,0.075,
2272,-0.26,0.065,
2273,-0.27,0.06,
2274,-0.27,0.09,
2275,-0.265,0.1,
2276,-0.265,0.09,
2277,-0.285,0.1,
2278,-0.305,0.1,
2279,-0.305,0.09,
2280,-0.305,0.105,
2281,-0.31,0.14,
2282,-0.29,0.15,
2283,-0.29,0.15,
2284,-0.29,0.14,
2285,-0.29,0.145,
2286,-0.28,0.155,
2287,-0.27,0.155,
2288,-0.26,0.16,
2289,-0.285,0.16,
2290,-0.275,0.145,
2291,-0.295,0.135,
2292,-0.29,0.14,
2293,-0.27,0.165,
2294,-0.275,0.165,
2295,-0.275,0.155,
2296,-0.275,0.14,
2297,-0.28,0.14,
2298,-0.275,0.145,
2299,-0.27,0.135,
2300,-0.255,0.13,
2301,-0.26,0.11,
2302,-0.28,0.1,
2303,-0.27,0.09,
2304,-0.265,0.105,
2305,-0.245,0.12,
2306,-0.245,0.1,
2307,-0.245,0.095,
2308,-0.25,0.075,
2309,-0.26,0.075,
2310,-0.26,0.09,
2311,-0.25,0.1,
2312,-0.24,0.1,
2313,-0.25,0.095,
2314,-0.25,0.06,
2315,-0.26,0.07,
2316,-0.25,0.07,
2317,-0.23,0.085,
2318,-0.22,0.085,
2319,-0.215,0.085,
2320,-0.215,0.055,
2321,-0.215,0.065,
2322,-0.21,0.07,
2323,-0.19,0.07,
2324,-0.175,0.065,
2325,-0.175,0.07,
2326,-0.18,0.065,
2327,-0.2,0.05,
2328,-0.2,0.08,
2329,-0.18,0.105,
2330,-0.165,0.11,
2331,-0.155,0.12,
2332,-0.155,0.11,
2333,-0.15,0.115,
2334,-0.145,0.14,
2335,-0.135,0.155,
2336,-0.125,0.16,
2337,-0.135,0.145,
2338,-0.115,0.13,
2339,-0.13,0.135,
2340,-0.115,0.14,
2341,-0.11,0.16,
2342,-0.11,0.15,
2343,-0.105,0.15,
2344,-0.11,0.15,
2345,-0.13,0.14,
2346,-0.11,0.155,
2347,-0.1,0.16,
2348,-0.09,0.16,
2349,-0.09,0.155,
2350,-0.09,0.15,
2351,-0.11,0.14,
2352,-0.1,0.145,
2353,-0.09,0.14,
2354,-0.08,0.135,
2355,-0.085,0.13,
2356,-0.095,0.11,
2357,-0.12,0.1,
2358,-0.11,0.1,
2359,-0.105,0.095,
2360,-0.1,0.08,
2361,-0.105,0.07,
2362,-0.115,0.05,
2363,-0.12,0.05,
2364,-0.125,0.065,
2365,-0.115,0.06,
2366,-0.1,0.075,
2367,-0.1,0.075,
2368,-0.12,0.07,
2369,-0.135,0.07,
2370,-0.14,0.08,
2371,-0.145,0.1,
2372,-0.125,0.095,
2373,-0.13,0.105,
2374,-0.13,0.09,
2375,-0.16,0.09,
2376,-0.16,0.1,
2377,-0.14,0.135,
2378,-0.13,0.14,
2379,-0.135,0.145,
2380,-0.145,0.145,
2381,-0.15,0.155,
2382,-0.14,0.165,
2383,-0.14,0.185,
2384,-0.13,0.19,
2385,-0.13,0.195,
2386,-0.14,0.18,
2387,-0.14,0.185,
2388,-0.145,0.21,
2389,-0.135,0.21,
2390,-0.11,0.2,
2391,-0.115,0.195,
2392,-0.125,0.18,
2393,-0.13,0.17,
2394,-0.13,0.17,
2395,-0.125,0.195,
2396,-0.1,0.185,
2397,-0.1,0.175,
2398,-0.105,0.155,
2399,-0.115,0.14,
2400,-0.105,0.145,
2401,-0.09,0.145,
2402,-0.075,0.135,
2403,-0.09,0.135,
2404,-0.095,0.11,
2405,-0.105,0.1,
2406,-0.1,0.1,
2407,-0.085,0.105,
2408,-0.065,0.1,
2409,-0.07,0.1,
2410,-0.095,0.075,
2411,-0.11,0.075,
2412,-0.1,0.085,
2413,-0.1,0.095,
2414,-0.085,0.075,
2415,-0.095,0.08,
2416,-0.105,0.06,
2417,-0.12,0.065,
2418,-0.13,0.075,
2419,-0.115,0.085,
2420,-0.125,0.085,
2421,-0.115,0.095,
2422,-0.125,0.075,
2423,-0.14,0.1,
2424,-0.13,0.11,
2425,-0.135,0.115,
2426,-0.14,0.12,
2427,-0.135,0.12,
2428,-0.15,0.11,
2429,-0.155,0.12,
2430,-0.16,0.14,
2431,-0.15,0.14,
2432,-0.14,0.145,
2433,-0.145,0.16,
2434,-0.16,0.15,
2435,-0.17,0.14,
2436,-0.165,0.145,
2437,-0.145,0.16,
2438,-0.13,0.16,
2439,-0.145,0.14,
2440,-0.15,0.135,
2441,-0.17,0.125,
2442,-0.17,0.13,
2443,-0.165,0.145,
2444,-0.15,0.145,
2445,-0.155,0.135,
2446,-0.17,0.115,
2447,-0.165,0.12,
2448,-0.165,0.115,
2449,-0.145,0.125,
2450,-0.135,0.135,
2451,-0.13,0.125,
2452,-0.145,0.125,
2453,-0.135,0.105,
2454,-0.12,0.13,
2455,-0.12,0.12,
2456,-0.105,0.13,
2457,-0.09,0.1,
2458,-0.11,0.11,
2459,-0.115,0.1,
2460,-0.11,0.11,
2461,-0.11,0.115,
2462,-0.095,0.115,
2463,-0.115,0.11,
2464,-0.11,0.09,
2465,-0.12,0.085,
2466,-0.125,0.08,
2467,-0.11,0.085,
2468,-0.11,0.09,
2469,-0.115,0.09,
2470,-0.135,0.085,
2471,-0.14,0.075,
2472,-0.15,0.095,
2473,-0.13,0.105,
2474,-0.13,0.115,
2475,-0.13,0.105,
2476,-0.14,0.105,
2477,-0.145,0.1,
2478,-0.15,0.09,
2479,-0.14,0.12,
2480,-0.135,0.12,
2481,-0.125,0.13,
2482,-0.155,0.11,
2483,-0.14,0.115,
2484,-0.16,0.13,
2485,-0.145,0.135,
2486,-0.13,0.135,
2487,-0.125,0.14,
2488,-0.15,0.12,
2489,-0.15,0.12,
2490,-0.16,0.135,
2491,-0.135,0.145,
2492,-0.135,0.16,
2493,-0.125,0.16,
2494,-0.135,0.155,
2495,-0.14,0.14,
2496,-0.105,0.135,
2497,-0.05,0.12,
2498,0.04,0.11,
2499,0.13,0.075,
2500,0.225,0.035,
2501,0.315,-0.01,
2502,0.42,-0.04,
2503,0.545,-0.055,
2504,0.66,-0.06,
2505,0.78,-0.095,
2506,0.855,-0.155,
2507,0.905,-0.21,
2508,0.92,-0.225,N
2509,0.91,-0.225,
2510,0.875,-0.22,
2511,0.805,-0.215,
2512,0.705,-0.17,
2513,0.56,-0.115,
2514,0.36,-0.07,
2515,0.205,-0.015,
2516,0.08,0.015,
2517,0.015,0.03,
2518,-0.025,0.05,
2519,-0.075,0.055,
2520,-0.12,0.095,
2521,-0.155,0.125,
2522,-0.17,0.12,
2523,-0.18,0.12,
2524,-0.205,0.11,
2525,-0.235,0.095,
2526,-0.245,0.085,
2527,-0.245,0.105,
2528,-0.245,0.105,
2529,-0.245,0.11,
2530,-0.265,0.1,
2531,-0.29,0.095,
2532,-0.285,0.09,
2533,-0.28,0.105,
2534,-0.27,0.095,
2535,-0.28,0.1,
2536,-0.295,0.095,
2537,-0.305,0.095,
2538,-0.31,0.105,
2539,-0.31,0.11,
2540,-0.305,0.12,
2541,-0.305,0.105,
2542,-0.33,0.11,
2543,-0.35,0.12,
2544,-0.345,0.125,
2545,-0.34,0.135,
2546,-0.33,0.15,
2547,-0.33,0.145,
2548,-0.34,0.135,
2549,-0.35,0.145,
2550,-0.345,0.16,
2551,-0.335,0.17,
2552,-0.34,0.17,
2553,-0.32,0.16,
2554,-0.335,0.155,
2555,-0.345,0.15,
2556,-0.35,0.155,
2557,-0.335,0.16,
2558,-0.33,0.165,
2559,-0.335,0.155,
2560,-0.35,0.16,
2561,-0.34,0.16,
2562,-0.34,0.175,
2563,-0.32,0.195,
2564,-0.315,0.2,
2565,-0.315,0.19,
2566,-0.32,0.185,
2567,-0.315,0.165,
2568,-0.31,0.16,
2569,-0.295,0.18,
2570,-0.29,0.155,
2571,-0.285,0.155,
2572,-0.295,0.15,
2573,-0.315,0.13,
2574,-0.31,0.135,
2575,-0.295,0.14,
2576,-0.285,0.12,
2577,-0.27,0.12,
2578,-0.3,0.11,
2579,-0.305,0.095,
2580,-0.315,0.105,
2581,-0.3,0.11,
2582,-0.27,0.115,
2583,-0.27,0.1,
2584,-0.285,0.09,
2585,-0.285,0.095,
2586,-0.285,0.095,
2587,-0.285,0.11,
2588,-0.27,0.11,
2589,-0.27,0.12,
2590,-0.26,0.11,
2591,-0.265,0.11,
2592,-0.275,0.125,
2593,-0.26,0.125,
2594,-0.245,0.14,
2595,-0.255,0.135,
2596,-0.25,0.135,
2597,-0.24,0.155,
2598,-0.24,0.155,
2599,-0.225,0.175,
2600,-0.215,0.17,
2601,-0.21,0.19,
2602,-0.19,0.175,
2603,-0.205,0.18,
2604,-0.19,0.18,
2605,-0.18,0.195,
2606,-0.17,0.2,
2607,-0.175,0.185,
2608,-0.17,0.165,
2609,-0.17,0.145,
2610,-0.155,0.145,
2611,-0.15,0.15,
2612,-0.14,0.155,
2613,-0.15,0.14,
2614,-0.15,0.125,
2615,-0.16,0.13,
2616,-0.145,0.135,
2617,-0.135,0.135,
2618,-0.12,0.13,
2619,-0.12,0.13,
2620,-0.13,0.115,
2621,-0.15,0.105,
2622,-0.135,0.115,
2623,-0.13,0.12,
2624,-0.13,0.12,
2625,-0.13,0.105,
2626,-0.14,0.1,
2627,-0.165,0.09,
2628,-0.16,0.1,
2629,-0.155,0.115,
2630,-0.145,0.115,
2631,-0.155,0.125,
2632,-0.175,0.12,
2633,-0.185,0.115,
2634,-0.18,0.14,
2635,-0.175,0.145,
2636,-0.18,0.16,
2637,-0.165,0.16,
2638,-0.17,0.16,
2639,-0.185,0.155,
2640,-0.19,0.165,
2641,-0.17,0.175,
2642,-0.17,0.175,
2643,-0.175,0.18,
2644,-0.18,0.155,
2645,-0.19,0.16,
2646,-0.19,0.17,
2647,-0.185,0.18,
2648,-0.175,0.2,
2649,-0.175,0.18,
2650,-0.185,0.18,
2651,-0.195,0.165,
2652,-0.185,0.17,
2653,-0.175,0.185,
2654,-0.155,0.18,
2655,-0.165,0.16,
2656,-0.175,0.14,
2657,-0.185,0.135,
2658,-0.165,0.14,
2659,-0.15,0.135,
2660,-0.14,0.13,
2661,-0.15,0.115,
2662,-0.175,0.11,
2663,-0.17,0.1,
2664,-0.17,0.105,
2665,-0.16,0.11,
2666,-0.155,0.115,
2667,-0.16,0.115,
2668,-0.165,0.11,
2669,-0.165,0.1,
2670,-0.155,0.12,
2671,-0.155,0.135,
2672,-0.145,0.135,
2673,-0.14,0.13,
2674,-0.15,0.13,
2675,-0.15,0.13,
2676,-0.15,0.155,
2677,-0.17,0.15,
2678,-0.15,0.155,
2679,-0.145,0.15,
2680,-0.165,0.135,
2681,-0.185,0.12,
2682,-0.185,0.14,
2683,-0.18,0.15,
2684,-0.165,0.145,
2685,-0.18,0.135,
2686,-0.19,0.125,
2687,-0.185,0.125,
2688,-0.195,0.13,
2689,-0.17,0.135,
2690,-0.16,0.15,
2691,-0.175,0.135,
2692,-0.19,0.12,
2693,-0.195,0.12,
2694,-0.175,0.135,
2695,-0.185,0.14,
2696,-0.175,0.14,
2697,-0.18,0.135,
2698,-0.21,0.115,
2699,-0.21,0.125,
2700,-0.21,0.12,
2701,-0.21,0.125,
2702,-0.19,0.115,
2703,-0.19,0.12,
2704,-0.195,0.11,
2705,-0.21,0.105,
2706,-0.19,0.11,
2707,-0.195,0.125,
2708,-0.185,0.12,
2709,-0.17,0.115,
2710,-0.175,0.08,
2711,-0.195,0.085,
2712,-0.185,0.09,
2713,-0.18,0.1,
2714,-0.16,0.095,
2715,-0.16,0.085,
2716,-0.18,0.07,
2717,-0.185,0.08,
2718,-0.17,0.095,
2719,-0.16,0.105,
2720,-0.15,0.11,
2721,-0.155,0.105,
2722,-0.16,0.09,
2723,-0.18,0.1,
2724,-0.16,0.1,
2725,-0.14,0.12,
2726,-0.135,0.13,
2727,-0.145,0.13,
2728,-0.16,0.125,
2729,-0.15,0.12,
2730,-0.155,0.12,
2731,-0.14,0.125,
2732,-0.13,0.135,
2733,-0.13,0.14,
2734,-0.135,0.135,
2735,-0.15,0.135,
2736,-0.16,0.135,
2737,-0.13,0.13,
2738,-0.085,0.12,
2739,-0.005,0.08,
2740,0.08,0.055,
2741,0.165,0.035,
2742,0.27,0.02,
2743,0.385,-0.01,
2744,0.495,-0.055,
2745,0.61,-0.075,
2746,0.715,-0.1,
2747,0.785,-0.12,
2748,0.855,-0.165,
2749,0.88,-0.195,N
2750,0.875,-0.215,
2751,0.83,-0.235,
2752,0.745,-0.24,
2753,0.655,-0.22,
2754,0.53,-0.175,
2755,0.375,-0.11,
2756,0.195,-0.065,
2757,0.055,-0.04,
2758,-0.05,-0.01,
2759,-0.1,0.01,
2760,-0.15,0.055,
2761,-0.18,0.09,
2762,-0.205,0.12,
2763,-0.215,0.12,
2764,-0.23,0.125,
2765,-0.255,0.135,
2766,-0.265,0.13,
2767,-0.26,0.14,
2768,-0.27,0.15,
2769,-0.26,0.135,
2770,-0.27,0.12,
2771,-0.295,0.12,
2772,-0.315,0.12,
2773,-0.305,0.12,
2774,-0.305,0.13,
2775,-0.3,0.13,
2776,-0.31,0.115,
2777,-0.31,0.12,
2778,-0.32,0.125,
2779,-0.32,0.135,
2780,-0.305,0.125,
2781,-0.305,0.12,
2782,-0.32,0.105,
2783,-0.325,0.115,
2784,-0.325,0.11,
2785,-0.32,0.125,
2786,-0.315,0.125,
2787,-0.34,0.115,
2788,-0.34,0.115,
2789,-0.34,0.11,
2790,-0.335,0.11,
2791,-0.335,0.125,
2792,-0.335,0.11,
2793,-0.33,0.1,
2794,-0.335,0.075,
2795,-0.345,0.07,
2796,-0.355,0.075,
2797,-0.34,0.08,
2798,-0.33,0.08,
2799,-0.335,0.075,
2800,-0.34,0.06,
2801,-0.345,0.065,
2802,-0.35,0.06,
2803,-0.335,0.085,
2804,-0.33,0.08,
2805,-0.34,0.075,
2806,-0.36,0.07,
2807,-0.355,0.07,
2808,-0.355,0.09,
2809,-0.335,0.1,
2810,-0.32,0.105,
2811,-0.335,0.1,
2812,-0.35,0.095,
2813,-0.35,0.095,
2814,-0.365,0.1,
2815,-0.345,0.11,
2816,-0.34,0.115,
2817,-0.335,0.125,
2818,-0.35,0.115,
2819,-0.36,0.105,
2820,-0.355,0.125,
2821,-0.35,0.14,
2822,-0.325,0.135,
2823,-0.315,0.14,
2824,-0.315,0.125,
2825,-0.33,0.13,
2826,-0.32,0.12,
2827,-0.325,0.125,
2828,-0.305,0.11,
2829,-0.305,0.1,
2830,-0.31,0.065,
2831,-0.32,0.06,
2832,-0.31,0.07,
2833,-0.305,0.08,
2834,-0.285,0.09,
2835,-0.27,0.08,
2836,-0.27,0.065,
2837,-0.275,0.065,
2838,-0.255,0.09,
2839,-0.24,0.11,
2840,-0.21,0.095,
2841,-0.2,0.09,
2842,-0.22,0.075,
2843,-0.21,0.07,
2844,-0.195,0.075,
2845,-0.18,0.09,
2846,-0.155,0.095,
2847,-0.15,0.095,
2848,-0.165,0.07,
2849,-0.16,0.075,
2850,-0.165,0.08,
2851,-0.155,0.08,
2852,-0.15,0.08,
2853,-0.145,0.09,
2854,-0.16,0.075,
2855,-0.175,0.065,
2856,-0.18,0.085,
2857,-0.16,0.09,
2858,-0.155,0.095,
2859,-0.16,0.09,
2860,-0.175,0.085,
2861,-0.175,0.075,
2862,-0.175,0.085,
2863,-0.16,0.095,
2864,-0.16,0.11,
2865,-0.17,0.105,
2866,-0.175,0.105,
2867,-0.195,0.09,
2868,-0.195,0.11,
2869,-0.185,0.105,
2870,-0.175,0.12,
2871,-0.18,0.105,
2872,-0.19,0.09,
2873,-0.19,0.085,
2874,-0.205,0.09,
2875,-0.185,0.1,
2876,-0.175,0.105,
2877,-0.17,0.085,
2878,-0.18,0.075,
2879,-0.185,0.07,
2880,-0.18,0.085,
2881,-0.165,0.09,
2882,-0.18,0.095,
2883,-0.165,0.095,
2884,-0.175,0.08,
2885,-0.175,0.08,
2886,-0.165,0.09,
2887,-0.145,0.09,
2888,-0.15,0.095,
2889,-0.15,0.11,
2890,-0.15,0.105,
2891,-0.145,0.11,
2892,-0.145,0.135,
2893,-0.13,0.145,
2894,-0.125,0.15,
2895,-0.12,0.155,
2896,-0.12,0.14,
2897,-0.13,0.14,
2898,-0.12,0.15,
2899,-0.11,0.165,
2900,-0.1,0.165,
2901,-0.11,0.165,
2902,-0.115,0.145,
2903,-0.13,0.125,
2904,-0.135,0.135,
2905,-0.12,0.125,
2906,-0.11,0.105,
2907,-0.12,0.09,
2908,-0.135,0.07,
2909,-0.15,0.065,
2910,-0.16,0.06,
2911,-0.145,0.065,
2912,-0.15,0.06,
2913,-0.135,0.055,
2914,-0.15,0.035,
2915,-0.16,0.03,
2916,-0.18,0.05,
2917,-0.17,0.045,
2918,-0.165,0.055,
2919,-0.17,0.055,
2920,-0.17,0.045,
2921,-0.185,0.04,
2922,-0.185,0.045,
2923,-0.175,0.07,
2924,-0.18,0.07,
2925,-0.16,0.08,
2926,-0.165,0.065,
2927,-0.175,0.08,
2928,-0.17,0.075,
2929,-0.17,0.105,
2930,-0.155,0.095,
2931,-0.16,0.1,
2932,-0.17,0.1,
2933,-0.17,0.085,
2934,-0.175,0.105,
2935,-0.155,0.1,
2936,-0.145,0.105,
2937,-0.145,0.105,
2938,-0.155,0.085,
2939,-0.17,0.085,
2940,-0.17,0.09,
2941,-0.15,0.105,
2942,-0.14,0.125,
2943,-0.145,0.12,
2944,-0.155,0.11,
2945,-0.155,0.11,
2946,-0.175,0.125,
2947,-0.17,0.125,
2948,-0.145,0.135,
2949,-0.14,0.115,
2950,-0.135,0.1,
2951,-0.13,0.09,
2952,-0.14,0.085,
2953,-0.14,0.095,
2954,-0.12,0.095,
2955,-0.125,0.085,
2956,-0.14,0.07,
2957,-0.135,0.055,
2958,-0.135,0.06,
2959,-0.13,0.07,
2960,-0.125,0.08,
2961,-0.13,0.055,
2962,-0.145,0.035,
2963,-0.14,0.03,
2964,-0.145,0.035,
2965,-0.135,0.045,
2966,-0.14,0.055,
2967,-0.13,0.04,
2968,-0.145,0.035,
2969,-0.16,0.025,
2970,-0.17,0.035,
2971,-0.14,0.055,
2972,-0.135,0.05,
2973,-0.145,0.06,
2974,-0.135,0.04,
2975,-0.115,0.05,
2976,-0.06,0.035,
2977,0.03,0.035,
2978,0.135,0.01,
2979,0.23,-0.02,
2980,0.33,-0.06,
2981,0.415,-0.085,
2982,0.525,-0.105,
2983,0.655,-0.09,
2984,0.76,-0.085,
2985,0.845,-0.13,
2986,0.885,-0.19,
2987,0.885,-0.23,N
2988,0.855,-0.24,
2989,0.8,-0.22,
2990,0.725,-0.205,
2991,0.61,-0.175,
2992,0.44,-0.155,
2993,0.255,-0.12,
2994,0.105,-0.07,
2995,-0.005,-0.035,
2996,-0.045,-0.015,
2997,-0.095,-0.01,
2998,-0.155,-0.005,
2999,-0.205,0.015,
3000,-0.22,0.035,
3001,-0.215,0.055,
3002,-0.215,0.06,
3003,-0.225,0.07,
3004,-0.255,0.055,
3005,-0.275,0.06,
3006,-0.28,0.07,
3007,-0.265,0.085,
3008,-0.255,0.095,
3009,-0.26,0.075,
3010,-0.28,0.06,
3011,-0.29,0.065,
3012,-0.305,0.08,
3013,-0.28,0.1,
3014,-0.27,0.08,
3015,-0.275,0.07,
3016,-0.295,0.05,
3017,-0.31,0.045,
3018,-0.325,0.06,
3019,-0.31,0.06,
3020,-0.305,0.055,
3021,-0.315,0.045,
3022,-0.33,0.04,
3023,-0.35,0.045,
3024,-0.355,0.055,
3025,-0.34,0.07,
3026,-0.33,0.06,
3027,-0.34,0.065,
3028,-0.35,0.06,
3029,-0.365,0.05,
3030,-0.37,0.06,
3031,-0.37,0.08,
3032,-0.36,0.085,
3033,-0.365,0.075,
3034,-0.38,0.08,
3035,-0.39,0.06,
3036,-0.38,0.06,
3037,-0.375,0.08,
3038,-0.385,0.075,
3039,-0.365,0.07,
3040,-0.375,0.06,
3041,-0.39,0.05,
3042,-0.395,0.05,
3043,-0.375,0.06,
3044,-0.365,0.07,
3045,-0.365,0.065,
3046,-0.375,0.065,
3047,-0.365,0.06,
3048,-0.36,0.075,
3049,-0.35,0.08,
3050,-0.345,0.09,
3051,-0.345,0.065,
3052,-0.345,0.055,
3053,-0.355,0.05,
3054,-0.345,0.05,
3055,-0.34,0.075,
3056,-0.33,0.07,
3057,-0.325,0.065,
3058,-0.325,0.065,
3059,-0.34,0.065,
3060,-0.335,0.07,
3061,-0.325,0.075,
3062,-0.305,0.085,
3063,-0.3,0.08,
3064,-0.31,0.075,
3065,-0.315,0.075,
3066,-0.305,0.095,
3067,-0.3,0.1,
3068,-0.285,0.1,
3069,-0.275,0.105,
3070,-0.275,0.08,
3071,-0.265,0.08,
3072,-0.265,0.095,
3073,-0.245,0.1,
3074,-0.235,0.095,
3075,-0.225,0.085,
3076,-0.23,0.055,
3077,-0.23,0.055,
3078,-0.215,0.055,
3079,-0.205,0.055,
3080,-0.195,0.055,
3081,-0.2,0.025,
3082,-0.185,0.01,
3083,-0.2,0.0,
3084,-0.19,0.015,
3085,-0.17,0.015,
3086,-0.16,0.005,
3087,-0.165,0.005,
3088,-0.18,0.005,
3089,-0.19,-0.005,
3090,-0.18,0.01,
3091,-0.175,0.025,
3092,-0.155,0.015,
3093,-0.16,0.025,
3094,-0.17,0.015,
3095,-0.19,0.025,
3096,-0.195,0.025,
3097,-0.19,0.045,
3098,-0.18,0.065,
3099,-0.18,0.06,
3100,-0.185,0.065,
3101,-0.185,0.065,
3102,-0.175,0.09,
3103,-0.165,0.1,
3104,-0.155,0.095,
3105,-0.165,0.095,
3106,-0.17,0.09,
3107,-0.185,0.09,
3108,-0.19,0.1,
3109,-0.16,0.105,
3110,-0.15,0.12,
3111,-0.15,0.105,
3112,-0.165,0.075,
3113,-0.18,0.07,
3114,-0.18,0.09,
3115,-0.18,0.1,
3116,-0.145,0.115,
3117,-0.145,0.11,
3118,-0.16,0.105,
3119,-0.17,0.095,
3120,-0.165,0.115,
3121,-0.155,0.12,
3122,-0.13,0.115,
3123,-0.12,0.09,
3124,-0.13,0.07,
3125,-0.135,0.065,
3126,-0.145,0.07,
3127,-0.14,0.07,
3128,-0.125,0.06,
3129,-0.13,0.06,
3130,-0.135,0.04,
3131,-0.14,0.04,
3132,-0.14,0.03,
3133,-0.14,0.045,
3134,-0.125,0.04,
3135,-0.14,0.035,
3136,-0.145,0.02,
3137,-0.16,0.02,
3138,-0.15,0.035,
3139,-0.14,0.04,
3140,-0.145,0.04,
3141,-0.16,0.04,
3142,-0.17,0.035,
3143,-0.165,0.025,
3144,-0.17,0.035,
3145,-0.165,0.055,
3146,-0.15,0.065,
3147,-0.16,0.055,
3148,-0.16,0.06,
3149,-0.17,0.065,
3150,-0.19,0.07,
3151,-0.175,0.07,
3152,-0.165,0.085,
3153,-0.165,0.085,
3154,-0.18,0.075,
3155,-0.185,0.095,
3156,-0.2,0.11,
3157,-0.175,0.11,
3158,-0.165,0.125,
3159,-0.17,0.12,
3160,-0.18,0.115,
3161,-0.175,0.1,
3162,-0.185,0.1,
3163,-0.18,0.095,
3164,-0.175,0.08,
3165,-0.17,0.055,
3166,-0.175,0.025,
3167,-0.18,0.02,
3168,-0.185,0.015,
3169,-0.175,0.03,
3170,-0.145,0.04,
3171,-0.145,0.035,
3172,-0.15,0.02,
3173,-0.155,0.015,
3174,-0.15,0.03,
3175,-0.13,0.04,
3176,-0.13,0.04,
3177,-0.135,0.045,
3178,-0.13,0.02,
3179,-0.13,0.02,
3180,-0.15,0.03,
3181,-0.125,0.04,
3182,-0.11,0.045,
3183,-0.125,0.04,
3184,-0.12,0.03,
3185,-0.125,0.025,
3186,-0.115,0.03,
3187,-0.125,0.045,
3188,-0.125,0.045,
3189,-0.11,0.025,
3190,-0.13,0.0,
3191,-0.15,0.01,
3192,-0.145,0.015,
3193,-0.135,0.025,
3194,-0.125,0.025,
3195,-0.145,0.03,
3196,-0.15,0.005,
3197,-0.145,0.015,
3198,-0.15,0.03,
3199,-0.14,0.035,
3200,-0.13,0.035,
3201,-0.14,0.045,
3202,-0.155,0.05,
3203,-0.17,0.04,
3204,-0.175,0.035,
3205,-0.165,0.035,
3206,-0.155,0.05,
3207,-0.17,0.04,
3208,-0.185,0.025,
3209,-0.195,0.015,
3210,-0.19,0.03,
3211,-0.195,0.045,
3212,-0.165,0.055,
3213,-0.16,0.035,
3214,-0.175,0.03,
3215,-0.185,0.025,
3216,-0.19,0.03,
3217,-0.185,0.03,
3218,-0.17,0.04,
3219,-0.16,0.04,
3220,-0.16,0.025,
3221,-0.155,0.005,
3222,-0.17,0.005,
3223,-0.17,0.01,
3224,-0.15,0.035,
3225,-0.15,0.03,
3226,-0.155,0.015,
3227,-0.15,0.02,
3228,-0.15,0.035,
3229,-0.14,0.045,
3230,-0.1,0.06,
3231,-0.105,0.05,
3232,-0.115,0.035,
3233,-0.14,0.035,
3234,-0.13,0.045,
3235,-0.09,0.045,
3236,-0.015,0.025,
3237,0.06,0.0,
3238,0.145,-0.025,
3239,0.245,-0.06,
3240,0.35,-0.07,
3241,0.47,-0.095,
3242,0.575,-0.13,
3243,0.69,-0.15,
3244,0.78,-0.165,
3245,0.845,-0.205,
3246,0.885,-0.25,N
3247,0.88,-0.27,
3248,0.845,-0.28,
3249,0.795,-0.28,
3250,0.705,-0.275,
3251,0.57,-0.245,
3252,0.385,-0.205,
3253,0.195,-0.15,
3254,0.065,-0.12,
3255,-0.025,-0.11,
3256,-0.07,-0.1,
3257,-0.115,-0.085,
3258,-0.165,-0.065,
3259,-0.2,-0.04,
3260,-0.235,-0.035,
3261,-0.235,-0.01,
3262,-0.235,-0.005,
3263,-0.255,-0.005,
3264,-0.255,0.015,
3265,-0.285,0.04,
3266,-0.275,0.05,
3267,-0.275,0.03,
3268,-0.305,0.03,
3269,-0.3,0.035,
3270,-0.31,0.05,
3271,-0.315,0.06,
3272,-0.3,0.06,
3273,-0.31,0.06,
3274,-0.315,0.04,
3275,-0.32,0.045,
3276,-0.325,0.05,
3277,-0.33,0.055,
3278,-0.315,0.055,
3279,-0.33,0.06,
3280,-0.34,0.04,
3281,-0.345,0.045,
3282,-0.34,0.06,
3283,-0.34,0.07,
3284,-0.32,0.065,
3285,-0.32,0.07,
3286,-0.34,0.04,
3287,-0.355,0.05,
3288,-0.35,0.065,
3289,-0.34,0.07,
3290,-0.32,0.075,
3291,-0.325,0.065,
3292,-0.335,0.06,
3293,-0.34,0.05,
3294,-0.36,0.065,
3295,-0.345,0.06,
3296,-0.345,0.05,
3297,-0.335,0.045,
3298,-0.35,0.03,
3299,-0.35,0.005,
3300,-0.365,0.02,
3301,-0.35,0.025,
3302,-0.33,0.005,
3303,-0.335,-0.01,
3304,-0.335,-0.04,
3305,-0.335,-0.04,
3306,-0.325,-0.03,
3307,-0.32,-0.02,
3308,-0.31,-0.01,
3309,-0.305,-0.005,
3310,-0.315,-0.005,
3311,-0.325,-0.015,
3312,-0.32,-0.02,
3313,-0.315,0.005,
3314,-0.295,0.01,
3315,-0.3,0.005,
3316,-0.31,0.015,
3317,-0.32,0.01,
3318,-0.32,0.02,
3319,-0.31,0.045,
3320,-0.295,0.065,
3321,-0.285,0.065,
3322,-0.285,0.055,
3323,-0.295,0.05,
3324,-0.3,0.05,
3325,-0.28,0.07,
3326,-0.25,0.08,
3327,-0.26,0.085,
3328,-0.26,0.065,
3329,-0.245,0.06,
3330,-0.245,0.06,
3331,-0.24,0.065,
3332,-0.225,0.065,
3333,-0.215,0.055,
3334,-0.205,0.045,
3335,-0.215,0.05,
3336,-0.215,0.05,
3337,-0.205,0.05,
3338,-0.19,0.055,
3339,-0.17,0.05,
3340,-0.18,0.025,
3341,-0.19,0.01,
3342,-0.185,0.015,
3343,-0.18,0.035,
3344,-0.165,0.04,
3345,-0.18,0.025,
3346,-0.185,0.02,
3347,-0.185,0.01,
3348,-0.18,0.005,
3349,-0.18,0.02,
3350,-0.165,0.015,
3351,-0.17,0.02,
3352,-0.18,0.01,
3353,-0.19,-0.005,
3354,-0.18,0.01,
3355,-0.185,0.025,
3356,-0.165,0.025,
3357,-0.17,0.035,
3358,-0.18,0.025,
3359,-0.18,0.025,
3360,-0.19,0.03,
3361,-0.175,0.05,
3362,-0.175,0.065,
3363,-0.175,0.055,
3364,-0.19,0.05,
3365,-0.195,0.05,
3366,-0.21,0.06,
3367,-0.195,0.085,
3368,-0.19,0.1,
3369,-0.18,0.105,
3370,-0.2,0.09,
3371,-0.21,0.1,
3372,-0.195,0.12,
3373,-0.175,0.125,
3374,-0.16,0.14,
3375,-0.165,0.13,
3376,-0.175,0.125,
3377,-0.175,0.125,
3378,-0.185,0.14,
3379,-0.17,0.145,
3380,-0.155,0.145,
3381,-0.16,0.13,
3382,-0.17,0.105,
3383,-0.175,0.09,
3384,-0.175,0.085,
3385,-0.16,0.065,
3386,-0.15,0.04,
3387,-0.145,0.015,
3388,-0.155,-0.005,
3389,-0.155,-0.005,
3390,-0.15,0.005,
3391,-0.14,0.005,
3392,-0.135,0.01,
3393,-0.125,0.0,
3394,-0.145,-0.01,
3395,-0.155,-0.015,
3396,-0.155,0.0,
3397,-0.15,-0.005,
3398,-0.13,0.0,
3399,-0.13,0.0,
3400,-0.155,-0.015,
3401,-0.16,-0.015,
3402,-0.155,-0.01,
3403,-0.16,-0.01,
3404,-0.15,0.0,
3405,-0.155,-0.015,
3406,-0.165,-0.025,
3407,-0.17,-0.02,
3408,-0.18,-0.01,
3409,-0.17,-0.01,
3410,-0.155,-0.005,
3411,-0.165,0.005,
3412,-0.175,-0.005,
3413,-0.18,-0.015,
3414,-0.185,0.005,
3415,-0.185,0.02,
3416,-0.175,0.025,
3417,-0.17,0.025,
3418,-0.19,0.005,
3419,-0.195,0.02,
3420,-0.195,0.03,
3421,-0.19,0.055,
3422,-0.18,0.06,
3423,-0.18,0.06,
3424,-0.21,0.06,
3425,-0.2,0.05,
3426,-0.2,0.08,
3427,-0.2,0.09,
3428,-0.185,0.1,
3429,-0.2,0.1,
3430,-0.21,0.1,
3431,-0.205,0.09,
3432,-0.2,0.1,
3433,-0.175,0.08,
3434,-0.18,0.08,
3435,-0.165,0.045,
3436,-0.17,0.035,
3437,-0.185,0.025,
3438,-0.17,0.03,
3439,-0.155,0.025,
3440,-0.13,0.025,
3441,-0.13,0.015,
3442,-0.145,0.005,
3443,-0.155,0.0,
3444,-0.145,0.005,
3445,-0.13,0.005,
3446,-0.135,0.02,
3447,-0.13,0.01,
3448,-0.135,0.005,
3449,-0.155,-0.01,
3450,-0.155,0.015,
3451,-0.145,0.02,
3452,-0.105,0.005,
3453,-0.065,-0.005,
3454,-0.005,-0.035,
3455,0.09,-0.075,
3456,0.19,-0.095,
3457,0.305,-0.125,
3458,0.425,-0.155,
3459,0.53,-0.185,
3460,0.625,-0.205,
3461,0.715,-0.21,
3462,0.815,-0.23,
3463,0.895,-0.255,
3464,0.91,-0.28,N
3465,0.86,-0.305,
3466,0.79,-0.31,
3467,0.72,-0.31,
3468,0.615,-0.265,
3469,0.48,-0.22,
3470,0.315,-0.155,
3471,0.125,-0.11,
3472,-0.025,-0.1,
3473,-0.105,-0.075,
3474,-0.155,-0.04,
3475,-0.19,-0.005,
3476,-0.23,0.01,
3477,-0.265,0.03,
3478,-0.29,0.02,
3479,-0.295,0.02,
3480,-0.3,0.035,
3481,-0.32,0.045,
3482,-0.3,0.05,
3483,-0.3,0.04,
3484,-0.335,0.03,
3485,-0.35,0.02,
3486,-0.355,0.03,
3487,-0.345,0.025,
3488,-0.335,0.025,
3489,-0.345,0.015,
3490,-0.375,-0.005,
3491,-0.35,0.01,
3492,-0.365,0.02,
3493,-0.355,0.04,
3494,-0.345,0.045,
3495,-0.345,0.035,
3496,-0.365,0.03,
3497,-0.365,0.025,
3498,-0.355,0.025,
3499,-0.36,0.035,
3500,-0.35,0.05,
3501,-0.35,0.05,
3502,-0.365,0.025,
3503,-0.385,0.02,
3504,-0.38,0.04,
3505,-0.36,0.05,
3506,-0.355,0.04,
3507,-0.37,0.045,
3508,-0.395,0.03,
3509,-0.395,0.03,
3510,-0.4,0.025,
3511,-0.395,0.035,
3512,-0.385,0.045,
3513,-0.38,0.04,
3514,-0.4,0.03,
3515,-0.395,0.01,
3516,-0.41,0.02,
3517,-0.395,0.02,
3518,-0.375,0.01,
3519,-0.375,0.0,
3520,-0.39,0.005,
3521,-0.4,0.0,
3522,-0.4,0.01,
3523,-0.39,0.01,
3524,-0.385,0.035,
3525,-0.395,0.03,
3526,-0.4,0.01,
3527,-0.41,0.01,
3528,-0.415,0.025,
3529,-0.4,0.035,
3530,-0.395,0.035,
3531,-0.395,0.045,
3532,-0.39,0.04,
3533,-0.39,0.03,
3534,-0.39,0.05,
3535,-0.375,0.06,
3536,-0.365,0.08,
3537,-0.365,0.065,
3538,-0.375,0.045,
3539,-0.38,0.06,
3540,-0.37,0.055,
3541,-0.34,0.075,
3542,-0.32,0.08,
3543,-0.32,0.07,
3544,-0.325,0.05,
3545,-0.325,0.055,
3546,-0.315,0.075,
3547,-0.28,0.075,
3548,-0.27,0.08,
3549,-0.275,0.07,
3550,-0.265,0.065,
3551,-0.255,0.07,
3552,-0.245,0.065,
3553,-0.215,0.065,
3554,-0.2,0.055,
3555,-0.185,0.05,
3556,-0.21,0.025,
3557,-0.205,0.02,
3558,-0.21,0.005,
3559,-0.2,0.005,
3560,-0.2,0.0,
3561,-0.195,-0.005,
3562,-0.205,-0.02,
3563,-0.22,-0.035,
3564,-0.215,-0.035,
3565,-0.215,-0.005,
3566,-0.21,-0.005,
3567,-0.21,-0.02,
3568,-0.21,-0.015,
3569,-0.24,-0.02,
3570,-0.24,-0.015,
3571,-0.23,0.005,
3572,-0.225,0.015,
3573,-0.215,0.015,
3574,-0.215,0.01,
3575,-0.225,0.02,
3576,-0.235,0.04,
3577,-0.245,0.045,
3578,-0.225,0.06,
3579,-0.235,0.065,
3580,-0.245,0.075,
3581,-0.245,0.07,
3582,-0.255,0.1,
3583,-0.23,0.115,
3584,-0.23,0.12,
3585,-0.23,0.12,
3586,-0.235,0.105,
3587,-0.24,0.105,
3588,-0.23,0.105,
3589,-0.22,0.125,
3590,-0.21,0.12,
3591,-0.21,0.12,
3592,-0.21,0.1,
3593,-0.21,0.095,
3594,-0.205,0.085,
3595,-0.195,0.09,
3596,-0.18,0.09,
3597,-0.175,0.075,
3598,-0.185,0.06,
3599,-0.19,0.045,
3600,-0.195,0.045,
3601,-0.18,0.05,
3602,-0.16,0.055,
3603,-0.16,0.045,
3604,-0.165,0.025,
3605,-0.17,0.02,
3606,-0.18,0.03,
3607,-0.165,0.03,
3608,-0.155,0.025,
3609,-0.15,0.02,
3610,-0.155,0.015,
3611,-0.165,0.025,
3612,-0.18,0.01,
3613,-0.17,0.015,
3614,-0.17,0.015,
3615,-0.175,0.01,
3616,-0.185,0.0,
3617,-0.195,-0.005,
3618,-0.195,0.015,
3619,-0.195,0.005,
3620,-0.185,0.015,
3621,-0.2,0.01,
3622,-0.21,0.0,
3623,-0.21,0.0,
3624,-0.21,0.02,
3625,-0.215,0.05,
3626,-0.215,0.055,
3627,-0.21,0.06,
3628,-0.22,0.065,
3629,-0.24,0.055,
3630,-0.24,0.09,
3631,-0.23,0.11,
3632,-0.225,0.13,
3633,-0.215,0.125,
3634,-0.21,0.13,
3635,-0.22,0.125,
3636,-0.21,0.11,
3637,-0.195,0.095,
3638,-0.19,0.11,
3639,-0.195,0.09,
3640,-0.215,0.07,
3641,-0.225,0.065,
3642,-0.215,0.06,
3643,-0.2,0.065,
3644,-0.195,0.065,
3645,-0.195,0.055,
3646,-0.205,0.04,
3647,-0.205,0.035,
3648,-0.205,0.04,
3649,-0.2,0.05,
3650,-0.18,0.045,
3651,-0.175,0.04,
3652,-0.175,0.04,
3653,-0.18,0.03,
3654,-0.18,0.02,
3655,-0.165,0.025,
3656,-0.15,0.03,
3657,-0.145,0.025,
3658,-0.155,0.015,
3659,-0.165,0.01,
3660,-0.18,0.03,
3661,-0.175,0.06,
3662,-0.16,0.055,
3663,-0.12,0.035,
3664,-0.08,0.005,
3665,-0.015,-0.025,
3666,0.075,-0.04,
3667,0.205,-0.06,
3668,0.325,-0.09,
3669,0.43,-0.13,
3670,0.53,-0.175,
3671,0.66,-0.18,
3672,0.755,-0.18,
3673,0.845,-0.2,
3674,0.88,-0.22,N
3675,0.865,-0.26,
3676,0.79,-0.285,
3677,0.7,-0.27,
3678,0.585,-0.235,
3679,0.44,-0.19,
3680,0.28,-0.145,
3681,0.07,-0.11,
3682,-0.08,-0.09,
3683,-0.155,-0.07,
3684,-0.195,-0.035,
3685,-0.225,0.01,
3686,-0.26,0.025,
3687,-0.285,0.045,
3688,-0.305,0.04,
3689,-0.325,0.035,
3690,-0.335,0.055,
3691,-0.335,0.085,
3692,-0.325,0.09,
3693,-0.33,0.075,
3694,-0.345,0.06,
3695,-0.37,0.065,
3696,-0.37,0.065,
3697,-0.36,0.065,
3698,-0.355,0.06,
3699,-0.36,0.065,
3700,-0.36,0.055,
3701,-0.37,0.045,
3702,-0.39,0.05,
3703,-0.38,0.06,
3704,-0.37,0.06,
3705,-0.36,0.055,
3706,-0.365,0.04,
3707,-0.375,0.03,
3708,-0.375,0.05,
3709,-0.38,0.065,
3710,-0.375,0.06,
3711,-0.38,0.06,
3712,-0.385,0.055,
3713,-0.4,0.045,
3714,-0.4,0.055,
3715,-0.395,0.08,
3716,-0.385,0.065,
3717,-0.395,0.065,
3718,-0.41,0.06,
3719,-0.42,0.06,
3720,-0.43,0.065,
3721,-0.41,0.085,
3722,-0.415,0.085,
3723,-0.42,0.09,
3724,-0.43,0.075,
3725,-0.435,0.08,
3726,-0.435,0.065,
3727,-0.415,0.08,
3728,-0.395,0.07,
3729,-0.405,0.045,
3730,-0.415,0.02,
3731,-0.415,0.01,
3732,-0.425,0.005,
3733,-0.43,0.035,
3734,-0.4,0.05,
3735,-0.405,0.04,
3736,-0.415,0.025,
3737,-0.425,0.02,
3738,-0.435,0.03,
3739,-0.425,0.05,
3740,-0.42,0.075,
3741,-0.425,0.07,
3742,-0.415,0.05,
3743,-0.43,0.055,
3744,-0.42,0.055,
3745,-0.4,0.07,
3746,-0.385,0.065,
3747,-0.385,0.06,
3748,-0.39,0.05,
3749,-0.385,0.045,
3750,-0.385,0.035,
3751,-0.37,0.045,
3752,-0.35,0.05,
3753,-0.345,0.035,
3754,-0.34,0.03,
3755,-0.335,0.035,
3756,-0.325,0.05,
3757,-0.295,0.06,
3758,-0.27,0.055,
3759,-0.27,0.065,
3760,-0.26,0.055,
3761,-0.26,0.045,
3762,-0.255,0.06,
3763,-0.235,0.075,
3764,-0.205,0.065,
3765,-0.2,0.08,
3766,-0.23,0.065,
3767,-0.225,0.05,
3768,-0.23,0.065,
3769,-0.23,0.08,
3770,-0.22,0.075,
3771,-0.235,0.065,
3772,-0.225,0.055,
3773,-0.245,0.045,
3774,-0.26,0.065,
3775,-0.245,0.075,
3776,-0.23,0.07,
3777,-0.245,0.065,
3778,-0.245,0.04,
3779,-0.255,0.04,
3780,-0.255,0.04,
3781,-0.25,0.04,
3782,-0.225,0.04,
3783,-0.24,0.05,
3784,-0.24,0.04,
3785,-0.245,0.04,
3786,-0.255,0.045,
3787,-0.25,0.06,
3788,-0.24,0.075,
3789,-0.25,0.07,
3790,-0.26,0.075,
3791,-0.25,0.075,
3792,-0.26,0.09,
3793,-0.245,0.1,
3794,-0.235,0.115,
3795,-0.235,0.115,
3796,-0.24,0.125,
3797,-0.26,0.12,
3798,-0.245,0.12,
3799,-0.235,0.13,
3800,-0.22,0.13,
3801,-0.22,0.12,
3802,-0.235,0.115,
3803,-0.245,0.1,
3804,-0.24,0.1,
3805,-0.23,0.115,
3806,-0.215,0.125,
3807,-0.205,0.12,
3808,-0.225,0.105,
3809,-0.23,0.11,
3810,-0.225,0.11,
3811,-0.21,0.13,
3812,-0.185,0.13,
3813,-0.18,0.115,
3814,-0.205,0.1,
3815,-0.2,0.09,
3816,-0.215,0.1,
3817,-0.2,0.09,
3818,-0.19,0.085,
3819,-0.195,0.075,
3820,-0.2,0.05,
3821,-0.225,0.045,
3822,-0.24,0.035,
3823,-0.245,0.045,
3824,-0.265,0.025,
3825,-0.32,0.015,
3826,-0.39,0.005,
3827,-0.445,-0.005,
3828,-0.455,-0.005,
3829,-0.47,0.005,
3830,-0.475,0.02,
3831,-0.53,0.025,
3832,-0.57,0.04,
3833,-0.625,0.05,
3834,-0.675,0.08,
3835,-0.695,0.11,
3836,-0.735,0.13,
3837,-0.81,0.145,
3838,-0.86,0.15,
3839,-0.935,0.16,
3840,-0.985,0.16,
3841,-1.0,0.165,V
3842,-0.985,0.155,
3843,-0.955,0.155,
3844,-0.925,0.15,
3845,-0.89,0.16,
3846,-0.84,0.205,
3847,-0.785,0.28,
3848,-0.75,0.315,
3849,-0.71,0.345,
3850,-0.68,0.34,
3851,-0.655,0.36,
3852,-0.62,0.385,
3853,-0.585,0.41,
3854,-0.56,0.43,
3855,-0.535,0.425,
3856,-0.515,0.405,
3857,-0.47,0.345,
3858,-0.425,0.29,
3859,-0.34,0.24,
3860,-0.27,0.185,
3861,-0.215,0.13,
3862,-0.185,0.09,
3863,-0.16,0.08,
3864,-0.145,0.085,
3865,-0.13,0.09,
3866,-0.125,0.065,
3867,-0.11,0.025,
3868,-0.125,0.01,
3869,-0.12,-0.005,
3870,-0.105,-0.015,
3871,-0.095,-0.015,
3872,-0.065,-0.03,
3873,-0.075,-0.04,
3874,-0.08,-0.05,
3875,-0.095,-0.06,
3876,-0.07,-0.06,
3877,-0.06,-0.055,
3878,-0.055,-0.05,
3879,-0.045,-0.05,
3880,-0.045,-0.07,
3881,-0.06,-0.065,
3882,-0.055,-0.05,
3883,-0.025,-0.045,
3884,-0.005,-0.03,
3885,-0.02,-0.03,
3886,-0.01,-0.03,
3887,-0.01,-0.04,
3888,0.0,-0.025,
3889,0.02,-0.01,
3890,0.03,0.005,
3891,0.045,0.0,
3892,0.04,0.0,
3893,0.05,-0.015,
3894,0.05,-0.005,
3895,0.085,0.0,
3896,0.095,0.025,
3897,0.105,0.025,
3898,0.11,0.015,
3899,0.115,0.025,
3900,0.12,0.025,
3901,0.14,0.035,
3902,0.175,0.035,
3903,0.18,0.035,
3904,0.185,0.02,
3905,0.195,0.005,
3906,0.205,0.02,
3907,0.22,0.02,
3908,0.24,0.015,
3909,0.245,-0.005,
3910,0.25,-0.015,
3911,0.24,-0.045,
3912,0.245,-0.05,
3913,0.27,-0.04,
3914,0.285,-0.045,
3915,0.28,-0.06,
3916,0.26,-0.075,
3917,0.255,-0.105,
3918,0.25,-0.09,
3919,0.255,-0.095,
3920,0.265,-0.095,
3921,0.255,-0.09,
3922,0.23,-0.1,
3923,0.22,-0.105,
3924,0.205,-0.09,
3925,0.2,-0.085,
3926,0.2,-0.08,
3927,0.175,-0.08,
3928,0.14,-0.08,
3929,0.13,-0.085,
3930,0.105,-0.06,
3931,0.075,-0.05,
3932,0.075,-0.035,
3933,0.05,-0.045,
3934,0.05,-0.05,
3935,0.025,-0.035,
3936,0.0,-0.03,
3937,-0.01,-0.01,
3938,-0.015,0.01,
3939,-0.02,0.02,
3940,-0.04,0.02,
3941,-0.06,0.025,
3942,-0.08,0.055,
3943,-0.08,0.07,
3944,-0.075,0.08,
3945,-0.105,0.095,
3946,-0.13,0.09,
3947,-0.15,0.09,
3948,-0.155,0.105,
3949,-0.15,0.115,
3950,-0.15,0.12,
3951,-0.16,0.12,
3952,-0.19,0.125,
3953,-0.185,0.115,
3954,-0.205,0.12,
3955,-0.205,0.135,
3956,-0.19,0.135,
3957,-0.185,0.135,
3958,-0.195,0.125,
3959,-0.2,0.11,
3960,-0.205,0.11,
3961,-0.195,0.12,
3962,-0.19,0.12,
3963,-0.19,0.105,
3964,-0.19,0.085,
3965,-0.195,0.075,
3966,-0.195,0.065,
3967,-0.195,0.07,
3968,-0.18,0.07,
3969,-0.185,0.065,
3970,-0.185,0.08,
3971,-0.185,0.07,
3972,-0.18,0.07,
3973,-0.17,0.09,
3974,-0.145,0.125,
3975,-0.16,0.105,
3976,-0.165,0.095,
3977,-0.175,0.095,
3978,-0.18,0.1,
3979,-0.16,0.115,
3980,-0.15,0.115,
3981,-0.16,0.11,
3982,-0.185,0.105,
3983,-0.175,0.11,
3984,-0.195,0.115,
3985,-0.19,0.13,
3986,-0.19,0.125,
3987,-0.19,0.13,
3988,-0.205,0.12,
3989,-0.21,0.12,
3990,-0.22,0.12,
3991,-0.22,0.13,
3992,-0.21,0.135,
3993,-0.225,0.125,
3994,-0.225,0.125,
3995,-0.245,0.13,
3996,-0.26,0.135,
3997,-0.25,0.145,
3998,-0.24,0.16,
3999,-0.255,0.14,
4000,-0.26,0.13,
4001,-0.275,0.105,
4002,-0.275,0.1,
4003,-0.265,0.1,
4004,-0.26,0.105,
4005,-0.255,0.105,
4006,-0.28,0.085,
4007,-0.3,0.085,
4008,-0.28,0.095,
4009,-0.28,0.11,
4010,-0.27,0.11,
4011,-0.275,0.12,
4012,-0.285,0.12,
4013,-0.305,0.1,
4014,-0.3,0.12,
4015,-0.29,0.135,
4016,-0.28,0.135,
4017,-0.275,0.125,
4018,-0.285,0.105,
4019,-0.3,0.105,
4020,-0.305,0.11,
4021,-0.295,0.12,
4022,-0.265,0.135,
4023,-0.26,0.13,
4024,-0.285,0.115,
4025,-0.3,0.105,
4026,-0.285,0.115,
4027,-0.27,0.135,
4028,-0.265,0.135,
4029,-0.26,0.125,
4030,-0.27,0.1,
4031,-0.28,0.105,
4032,-0.275,0.12,
4033,-0.275,0.12,
4034,-0.25,0.13,
4035,-0.265,0.135,
4036,-0.265,0.125,
4037,-0.27,0.105,
4038,-0.28,0.115,
4039,-0.265,0.12,
4040,-0.26,0.145,
4041,-0.265,0.13,
4042,-0.29,0.11,
4043,-0.3,0.11,
4044,-0.3,0.125,
4045,-0.29,0.125,
4046,-0.275,0.13,
4047,-0.3,0.13,
4048,-0.3,0.115,
4049,-0.31,0.1,
4050,-0.33,0.105,
4051,-0.32,0.11,
4052,-0.315,0.115,
4053,-0.325,0.11,
4054,-0.33,0.075,
4055,-0.34,0.06,
4056,-0.365,0.055,
4057,-0.34,0.055,
4058,-0.33,0.06,
4059,-0.33,0.07,
4060,-0.335,0.05,
4061,-0.33,0.05,
4062,-0.355,0.07,
4063,-0.34,0.09,
4064,-0.33,0.105,
4065,-0.33,0.11,
4066,-0.33,0.105,
4067,-0.33,0.1,
4068,-0.33,0.1,
4069,-0.34,0.125,
4070,-0.32,0.13,
4071,-0.32,0.125,
4072,-0.33,0.11,
4073,-0.33,0.115,
4074,-0.345,0.115,
4075,-0.335,0.12,
4076,-0.32,0.12,
4077,-0.315,0.13,
4078,-0.325,0.11,
4079,-0.325,0.125,
4080,-0.34,0.125,
4081,-0.32,0.145,
4082,-0.32,0.15,
4083,-0.305,0.15,
4084,-0.305,0.135,
4085,-0.305,0.14,
4086,-0.305,0.14,
4087,-0.3,0.145,
4088,-0.29,0.14,
4089,-0.285,0.15,
4090,-0.295,0.135,
4091,-0.31,0.125,
4092,-0.305,0.125,
4093,-0.305,0.14,
4094,-0.31,0.14,
4095,-0.305,0.15,
4096,-0.3,0.13,
4097,-0.33,0.135,
4098,-0.335,0.14,
4099,-0.325,0.165,
4100,-0.32,0.165,
4101,-0.325,0.145,
4102,-0.335,0.11,
4103,-0.335,0.085,
4104,-0.34,0.09,
4105,-0.33,0.095,
4106,-0.325,0.07,
4107,-0.33,0.06,
4108,-0.33,0.045,
4109,-0.345,0.05,
4110,-0.345,0.045,
4111,-0.31,0.06,
4112,-0.31,0.07,
4113,-0.305,0.065,
4114,-0.325,0.065,
4115,-0.33,0.055,
4116,-0.32,0.07,
4117,-0.32,0.095,
4118,-0.305,0.115,
4119,-0.305,0.115,
4120,-0.305,0.11,
4121,-0.3,0.105,
4122,-0.315,0.11,
4123,-0.305,0.12,
4124,-0.285,0.125,
4125,-0.285,0.11,
4126,-0.29,0.11,
4127,-0.305,0.1,
4128,-0.32,0.1,
4129,-0.3,0.095,
4130,-0.275,0.095,
4131,-0.27,0.1,
4132,-0.275,0.095,
4133,-0.275,0.095,
4134,-0.275,0.115,
4135,-0.275,0.13,
4136,-0.255,0.125,
4137,-0.245,0.125,
4138,-0.26,0.12,
4139,-0.275,0.125,
4140,-0.27,0.12,
4141,-0.215,0.125,
4142,-0.13,0.105,
4143,-0.03,0.075,
4144,0.06,0.05,
4145,0.165,0.015,
4146,0.275,-0.01,
4147,0.395,-0.025,
4148,0.51,-0.045,
4149,0.62,-0.07,
4150,0.68,-0.145,
4151,0.71,-0.21,N
4152,0.69,-0.255,
4153,0.66,-0.265,
4154,0.605,-0.26,
4155,0.48,-0.235,
4156,0.305,-0.2,
4157,0.09,-0.14,
4158,-0.1,-0.085,
4159,-0.195,-0.035,
4160,-0.215,0.005,
4161,-0.26,0.035,
4162,-0.315,0.045,
4163,-0.35,0.06,
4164,-0.375,0.09,
4165,-0.36,0.1,
4166,-0.365,0.13,
4167,-0.375,0.13,
4168,-0.385,0.135,
4169,-0.41,0.13,
4170,-0.415,0.145,
4171,-0.395,0.165,
4172,-0.39,0.175,
4173,-0.4,0.18,
4174,-0.415,0.18,
4175,-0.435,0.165,
4176,-0.425,0.165,
4177,-0.415,0.185,
4178,-0.405,0.19,
4179,-0.415,0.18,
4180,-0.43,0.165,
4181,-0.43,0.165,
4182,-0.455,0.17,
4183,-0.43,0.18,
4184,-0.42,0.19,
4185,-0.42,0.18,
4186,-0.425,0.165,
4187,-0.425,0.16,
4188,-0.43,0.175,
4189,-0.405,0.185,
4190,-0.405,0.19,
4191,-0.415,0.17,
4192,-0.42,0.15,
4193,-0.425,0.13,
4194,-0.43,0.12,
4195,-0.43,0.125,
4196,-0.41,0.115,
4197,-0.42,0.095,
4198,-0.435,0.085,
4199,-0.435,0.065,
4200,-0.445,0.055,
4201,-0.44,0.065,
4202,-0.42,0.07,
4203,-0.435,0.065,
4204,-0.435,0.055,
4205,-0.445,0.055,
4206,-0.425,0.06,
4207,-0.42,0.07,
4208,-0.405,0.075,
4209,-0.395,0.075,
4210,-0.415,0.065,
4211,-0.425,0.07,
4212,-0.41,0.09,
4213,-0.405,0.095,
4214,-0.38,0.12,
4215,-0.385,0.115,
4216,-0.39,0.095,
4217,-0.4,0.11,
4218,-0.4,0.12,
4219,-0.395,0.145,
4220,-0.385,0.155,
4221,-0.38,0.16,
4222,-0.38,0.145,
4223,-0.37,0.14,
4224,-0.375,0.15,
4225,-0.36,0.17,
4226,-0.335,0.185,
4227,-0.34,0.17,
4228,-0.345,0.165,
4229,-0.35,0.155,
4230,-0.35,0.16,
4231,-0.345,0.155,
4232,-0.315,0.155,
4233,-0.32,0.15,
4234,-0.325,0.13,
4235,-0.32,0.125,
4236,-0.32,0.12,
4237,-0.3,0.13,
4238,-0.285,0.14,
4239,-0.27,0.13,
4240,-0.27,0.115,
4241,-0.27,0.095,
4242,-0.255,0.08,
4243,-0.24,0.08,
4244,-0.235,0.075,
4245,-0.245,0.075,
4246,-0.23,0.07,
4247,-0.22,0.065,
4248,-0.23,0.08,
4249,-0.23,0.095,
4250,-0.215,0.1,
4251,-0.21,0.09,
4252,-0.225,0.09,
4253,-0.23,0.075,
4254,-0.235,0.08,
4255,-0.235,0.1,
4256,-0.2,0.105,
4257,-0.2,0.1,
4258,-0.215,0.105,
4259,-0.235,0.1,
4260,-0.23,0.12,
4261,-0.21,0.135,
4262,-0.195,0.155,
4263,-0.205,0.145,
4264,-0.22,0.14,
4265,-0.24,0.155,
4266,-0.25,0.155,
4267,-0.23,0.175,
4268,-0.225,0.175,
4269,-0.21,0.19,
4270,-0.225,0.185,
4271,-0.235,0.175,
4272,-0.24,0.2,
4273,-0.23,0.22,
4274,-0.205,0.23,
4275,-0.205,0.225,
4276,-0.19,0.215,
4277,-0.205,0.21,
4278,-0.22,0.215,
4279,-0.215,0.215,
4280,-0.19,0.215,
4281,-0.19,0.21,
4282,-0.195,0.185,
4283,-0.185,0.15,
4284,-0.2,0.15,
4285,-0.175,0.135,
4286,-0.17,0.115,
4287,-0.175,0.105,
4288,-0.18,0.055,
4289,-0.185,0.065,
4290,-0.19,0.08,
4291,-0.17,0.085,
4292,-0.155,0.1,
4293,-0.15,0.09,
4294,-0.175,0.07,
4295,-0.18,0.07,
4296,-0.18,0.085,
4297,-0.17,0.09,
4298,-0.15,0.09,
4299,-0.165,0.095,
4300,-0.175,0.085,
4301,-0.185,0.065,
4302,-0.18,0.075,
4303,-0.17,0.09,
4304,-0.165,0.095,
4305,-0.17,0.095,
4306,-0.185,0.085,
4307,-0.195,0.075,
4308,-0.185,0.08,
4309,-0.18,0.095,
4310,-0.17,0.095,
4311,-0.185,0.1,
4312,-0.195,0.09,
4313,-0.2,0.095,
4314,-0.19,0.12,
4315,-0.18,0.125,
4316,-0.19,0.135,
4317,-0.18,0.14,
4318,-0.195,0.135,
4319,-0.21,0.13,
4320,-0.215,0.145,
4321,-0.21,0.155,
4322,-0.205,0.175,
4323,-0.2,0.175,
4324,-0.195,0.175,
4325,-0.21,0.185,
4326,-0.215,0.19,
4327,-0.18,0.205,
4328,-0.18,0.21,
4329,-0.185,0.205,
4330,-0.195,0.2,
4331,-0.205,0.205,
4332,-0.205,0.215,
4333,-0.185,0.225,
4334,-0.175,0.23,
4335,-0.175,0.195,
4336,-0.18,0.17,
4337,-0.175,0.16,
4338,-0.175,0.15,
4339,-0.155,0.125,
4340,-0.155,0.11,
4341,-0.145,0.085,
4342,-0.155,0.075,
4343,-0.16,0.065,
4344,-0.16,0.06,
4345,-0.165,0.075,
4346,-0.15,0.065,
4347,-0.14,0.045,
4348,-0.16,0.05,
4349,-0.16,0.045,
4350,-0.185,0.035,
4351,-0.17,0.05,
4352,-0.14,0.07,
4353,-0.15,0.055,
4354,-0.16,0.035,
4355,-0.17,0.03,
4356,-0.18,0.035,
4357,-0.17,0.045,
4358,-0.17,0.05,
4359,-0.165,0.055,
4360,-0.18,0.045,
4361,-0.175,0.045,
4362,-0.175,0.06,
4363,-0.165,0.07,
4364,-0.145,0.075,
4365,-0.15,0.07,
4366,-0.175,0.07,
4367,-0.175,0.075,
4368,-0.175,0.105,
4369,-0.16,0.1,
4370,-0.105,0.105,
4371,-0.04,0.095,
4372,0.04,0.075,
4373,0.14,0.035,
4374,0.245,0.04,
4375,0.375,0.015,
4376,0.495,-0.005,
4377,0.625,-0.01,
4378,0.725,-0.015,
4379,0.815,-0.04,
4380,0.89,-0.075,
4381,0.905,-0.1,N
4382,0.895,-0.115,
4383,0.845,-0.15,
4384,0.745,-0.155,
4385,0.61,-0.14,
4386,0.44,-0.095,
4387,0.24,-0.04,
4388,0.075,-0.005,
4389,-0.025,0.01,
4390,-0.08,0.03,
4391,-0.135,0.04,
4392,-0.175,0.06,
4393,-0.21,0.08,
4394,-0.205,0.09,
4395,-0.21,0.09,
4396,-0.22,0.09,
4397,-0.245,0.08,
4398,-0.26,0.095,
4399,-0.255,0.105,
4400,-0.245,0.1,
4401,-0.265,0.1,
4402,-0.27,0.1,
4403,-0.29,0.085,
4404,-0.295,0.1,
4405,-0.29,0.11,
4406,-0.29,0.12,
4407,-0.31,0.12,
4408,-0.325,0.105,
4409,-0.33,0.11,
4410,-0.33,0.11,
4411,-0.34,0.105,
4412,-0.33,0.115,
4413,-0.34,0.11,
4414,-0.355,0.105,
4415,-0.365,0.105,
4416,-0.375,0.11,
4417,-0.365,0.12,
4418,-0.355,0.14,
4419,-0.36,0.125,
4420,-0.38,0.125,
4421,-0.385,0.13,
4422,-0.385,0.15,
4423,-0.38,0.16,
4424,-0.365,0.165,
4425,-0.39,0.165,
4426,-0.39,0.15,
4427,-0.425,0.155,
4428,-0.42,0.15,
4429,-0.385,0.185,
4430,-0.385,0.185,
4431,-0.375,0.19,
4432,-0.38,0.175,
4433,-0.385,0.17,
4434,-0.395,0.16,
4435,-0.385,0.16,
4436,-0.37,0.17,
4437,-0.39,0.145,
4438,-0.38,0.11,
4439,-0.375,0.11,
4440,-0.375,0.11,
4441,-0.355,0.125,
4442,-0.345,0.14,
4443,-0.335,0.135,
4444,-0.325,0.105,
4445,-0.325,0.1,
4446,-0.315,0.125,
4447,-0.3,0.115,
4448,-0.285,0.115,
4449,-0.28,0.12,
4450,-0.275,0.11,
4451,-0.285,0.105,
4452,-0.275,0.1,
4453,-0.26,0.11,
4454,-0.25,0.125,
4455,-0.24,0.115,
4456,-0.23,0.11,
4457,-0.23,0.095,
4458,-0.225,0.115,
4459,-0.21,0.12,
4460,-0.205,0.135,
4461,-0.195,0.13,
4462,-0.2,0.12,
4463,-0.195,0.125,
4464,-0.185,0.145,
4465,-0.185,0.155,
4466,-0.185,0.16,
4467,-0.18,0.165,
4468,-0.2,0.155,
4469,-0.195,0.155,
4470,-0.2,0.165,
4471,-0.2,0.165,
4472,-0.19,0.19,
4473,-0.205,0.175,
4474,-0.215,0.175,
4475,-0.21,0.175,
4476,-0.2,0.19,
4477,-0.205,0.195,
4478,-0.185,0.205,
4479,-0.185,0.19,
4480,-0.205,0.175,
4481,-0.225,0.165,
4482,-0.225,0.15,
4483,-0.21,0.15,
4484,-0.195,0.15,
4485,-0.21,0.155,
4486,-0.205,0.12,
4487,-0.215,0.105,
4488,-0.225,0.095,
4489,-0.215,0.11,
4490,-0.19,0.09,
4491,-0.185,0.075,
4492,-0.19,0.07,
4493,-0.195,0.075,
4494,-0.205,0.085,
4495,-0.19,0.09,
4496,-0.18,0.095,
4497,-0.17,0.105,
4498,-0.18,0.095,
4499,-0.185,0.1,
4500,-0.185,0.115,
4501,-0.165,0.135,
4502,-0.155,0.145,
4503,-0.155,0.16,
4504,-0.155,0.135,
4505,-0.175,0.14,
4506,-0.19,0.145,
4507,-0.175,0.16,
4508,-0.155,0.16,
4509,-0.155,0.15,
4510,-0.17,0.145,
4511,-0.18,0.155,
4512,-0.19,0.155,
4513,-0.175,0.185,
4514,-0.16,0.195,
4515,-0.155,0.19,
4516,-0.185,0.175,
4517,-0.185,0.17,
4518,-0.2,0.185,
4519,-0.19,0.195,
4520,-0.17,0.22,
4521,-0.185,0.22,
4522,-0.185,0.205,
4523,-0.2,0.2,
4524,-0.19,0.205,
4525,-0.18,0.22,
4526,-0.175,0.225,
4527,-0.175,0.215,
4528,-0.19,0.215,
4529,-0.2,0.205,
4530,-0.185,0.195,
4531,-0.17,0.2,
4532,-0.165,0.205,
4533,-0.175,0.19,
4534,-0.19,0.175,
4535,-0.195,0.175,
4536,-0.185,0.17,
4537,-0.175,0.18,
4538,-0.165,0.185,
4539,-0.18,0.18,
4540,-0.19,0.175,
4541,-0.195,0.155,
4542,-0.2,0.16,
4543,-0.185,0.145,
4544,-0.175,0.125,
4545,-0.17,0.115,
4546,-0.19,0.095,
4547,-0.215,0.09,
4548,-0.21,0.085,
4549,-0.19,0.08,
4550,-0.18,0.095,
4551,-0.175,0.085,
4552,-0.18,0.065,
4553,-0.195,0.065,
4554,-0.2,0.07,
4555,-0.185,0.085,
4556,-0.175,0.095,
4557,-0.17,0.095,
4558,-0.16,0.085,
4559,-0.175,0.085,
4560,-0.175,0.085,
4561,-0.165,0.11,
4562,-0.175,0.1,
4563,-0.165,0.105,
4564,-0.17,0.095,
4565,-0.18,0.09,
4566,-0.18,0.105,
4567,-0.18,0.125,
4568,-0.18,0.135,
4569,-0.175,0.125,
4570,-0.185,0.115,
4571,-0.19,0.12,
4572,-0.19,0.13,
4573,-0.19,0.15,
4574,-0.17,0.145,
4575,-0.17,0.165,
4576,-0.185,0.16,
4577,-0.18,0.145,
4578,-0.19,0.16,
4579,-0.17,0.175,
4580,-0.16,0.18,
4581,-0.165,0.18,
4582,-0.18,0.16,
4583,-0.155,0.14,
4584,-0.105,0.14,
4585,-0.025,0.12,
4586,0.08,0.105,
4587,0.205,0.085,
4588,0.315,0.04,
4589,0.41,0.01,
4590,0.495,-0.005,
4591,0.635,-0.02,
4592,0.76,-0.04,
4593,0.895,-0.07,
4594,0.955,-0.12,
4595,0.96,-0.175,N
4596,0.92,-0.185,
4597,0.87,-0.175,
4598,0.78,-0.17,
4599,0.64,-0.13,
4600,0.44,-0.095,
4601,0.22,-0.055,
4602,0.06,-0.01,
4603,-0.025,0.04,
4604,-0.07,0.075,
4605,-0.13,0.09,
4606,-0.21,0.085,
4607,-0.26,0.1,
4608,-0.28,0.1,
4609,-0.295,0.12,
4610,-0.285,0.11,
4611,-0.305,0.09,
4612,-0.325,0.055,
4613,-0.345,0.055,
4614,-0.345,0.07,
4615,-0.335,0.08,
4616,-0.325,0.105,
4617,-0.325,0.1,
4618,-0.34,0.09,
4619,-0.355,0.085,
4620,-0.355,0.09,
4621,-0.345,0.11,
4622,-0.35,0.12,
4623,-0.34,0.125,
4624,-0.365,0.115,
4625,-0.37,0.125,
4626,-0.39,0.13,
4627,-0.4,0.15,
4628,-0.395,0.145,
4629,-0.375,0.15,
4630,-0.385,0.15,
4631,-0.385,0.15,
4632,-0.39,0.16,
4633,-0.4,0.175,
4634,-0.38,0.18,
4635,-0.385,0.185,
4636,-0.39,0.165,
4637,-0.395,0.155,
4638,-0.405,0.17,
4639,-0.395,0.18,
4640,-0.37,0.18,
4641,-0.38,0.16,
4642,-0.4,0.155,
4643,-0.41,0.15,
4644,-0.395,0.16,
4645,-0.38,0.165,
4646,-0.365,0.175,
4647,-0.365,0.165,
4648,-0.37,0.16,
4649,-0.38,0.16,
4650,-0.38,0.16,
4651,-0.36,0.16,
4652,-0.34,0.17,
4653,-0.335,0.16,
4654,-0.36,0.155,
4655,-0.365,0.135,
4656,-0.36,0.155,
4657,-0.355,0.165,
4658,-0.345,0.175,
4659,-0.345,0.15,
4660,-0.355,0.155,
4661,-0.385,0.15,
4662,-0.395,0.15,
4663,-0.38,0.15,
4664,-0.37,0.13,
4665,-0.36,0.105,
4666,-0.365,0.075,
4667,-0.37,0.065,
4668,-0.365,0.065,
4669,-0.345,0.065,
4670,-0.335,0.1,
4671,-0.33,0.085,
4672,-0.335,0.085,
4673,-0.33,0.085,
4674,-0.33,0.105,
4675,-0.33,0.11,
4676,-0.3,0.13,
4677,-0.3,0.125,
4678,-0.3,0.09,
4679,-0.305,0.11,
4680,-0.3,0.12,
4681,-0.28,0.13,
4682,-0.255,0.155,
4683,-0.27,0.155,
4684,-0.26,0.14,
4685,-0.27,0.145,
4686,-0.26,0.155,
4687,-0.255,0.185,
4688,-0.225,0.195,
4689,-0.21,0.185,
4690,-0.23,0.18,
4691,-0.23,0.175,
4692,-0.235,0.18,
4693,-0.215,0.19,
4694,-0.195,0.195,
4695,-0.19,0.18,
4696,-0.2,0.175,
4697,-0.215,0.17,
4698,-0.215,0.165,
4699,-0.195,0.18,
4700,-0.17,0.185,
4701,-0.175,0.18,
4702,-0.18,0.185,
4703,-0.18,0.185,
4704,-0.18,0.185,
4705,-0.165,0.195,
4706,-0.16,0.205,
4707,-0.155,0.195,
4708,-0.16,0.185,
4709,-0.175,0.175,
4710,-0.175,0.19,
4711,-0.17,0.18,
4712,-0.17,0.185,
4713,-0.18,0.185,
4714,-0.2,0.17,
4715,-0.22,0.165,
4716,-0.23,0.16,
4717,-0.22,0.155,
4718,-0.205,0.135,
4719,-0.205,0.12,
4720,-0.215,0.105,
4721,-0.21,0.08,
4722,-0.215,0.075,
4723,-0.195,0.095,
4724,-0.185,0.105,
4725,-0.185,0.105,
4726,-0.19,0.115,
4727,-0.21,0.11,
4728,-0.21,0.115,
4729,-0.185,0.135,
4730,-0.18,0.15,
4731,-0.18,0.15,
4732,-0.2,0.135,
4733,-0.23,0.13,
4734,-0.225,0.145,
4735,-0.22,0.17,
4736,-0.2,0.175,
4737,-0.2,0.17,
4738,-0.205,0.175,
4739,-0.21,0.17,
4740,-0.21,0.17,
4741,-0.215,0.195,
4742,-0.205,0.2,
4743,-0.205,0.195,
4744,-0.2,0.185,
4745,-0.195,0.18,
4746,-0.2,0.155,
4747,-0.2,0.175,
4748,-0.2,0.175,
4749,-0.195,0.175,
4750,-0.19,0.165,
4751,-0.185,0.16,
4752,-0.19,0.165,
4753,-0.18,0.17,
4754,-0.17,0.18,
4755,-0.175,0.175,
4756,-0.18,0.175,
4757,-0.185,0.175,
4758,-0.185,0.175,
4759,-0.17,0.18,
4760,-0.16,0.195,
4761,-0.17,0.195,
4762,-0.195,0.185,
4763,-0.2,0.18,
4764,-0.215,0.175,
4765,-0.195,0.185,
4766,-0.195,0.195,
4767,-0.215,0.18,
4768,-0.21,0.135,
4769,-0.225,0.095,
4770,-0.225,0.105,
4771,-0.21,0.105,
4772,-0.195,0.1,
4773,-0.2,0.095,
4774,-0.19,0.095,
4775,-0.22,0.095,
4776,-0.215,0.105,
4777,-0.205,0.12,
4778,-0.2,0.13,
4779,-0.19,0.13,
4780,-0.195,0.125,
4781,-0.2,0.115,
4782,-0.21,0.13,
4783,-0.2,0.15,
4784,-0.205,0.16,
4785,-0.22,0.165,
4786,-0.22,0.155,
4787,-0.22,0.15,
4788,-0.22,0.17,
4789,-0.205,0.19,
4790,-0.2,0.195,
4791,-0.19,0.195,
4792,-0.205,0.185,
4793,-0.21,0.18,
4794,-0.205,0.19,
4795,-0.195,0.195,
4796,-0.18,0.205,
4797,-0.2,0.19,
4798,-0.195,0.195,
4799,-0.21,0.165,
4800,-0.215,0.175,
4801,-0.2,0.185,
4802,-0.175,0.195,
4803,-0.175,0.18,
4804,-0.185,0.17,
4805,-0.195,0.17,
4806,-0.2,0.175,
4807,-0.175,0.19,
4808,-0.16,0.2,
4809,-0.155,0.195,
4810,-0.16,0.19,
4811,-0.18,0.18,
4812,-0.165,0.19,
4813,-0.155,0.195,
4814,-0.095,0.185,
4815,-0.015,0.16,
4816,0.075,0.13,
4817,0.175,0.09,
4818,0.27,0.075,
4819,0.365,0.05,
4820,0.48,-0.005,
4821,0.585,-0.045,
4822,0.69,-0.08,
4823,0.77,-0.095,
4824,0.835,-0.13,
4825,0.87,-0.145,N
4826,0.865,-0.19,
4827,0.81,-0.195,
4828,0.74,-0.205,
4829,0.655,-0.21,
4830,0.545,-0.165,
4831,0.39,-0.13,
4832,0.215,-0.08,
4833,0.055,-0.04,
4834,-0.06,-0.015,
4835,-0.115,0.005,
4836,-0.155,0.04,
4837,-0.2,0.08,
4838,-0.225,0.105,
4839,-0.25,0.115,
4840,-0.28,0.115,
4841,-0.3,0.125,
4842,-0.33,0.15,
4843,-0.32,0.155,
4844,-0.32,0.18,
4845,-0.325,0.175,
4846,-0.345,0.17,
4847,-0.355,0.19,
4848,-0.345,0.185,
4849,-0.36,0.2,
4850,-0.36,0.215,
4851,-0.355,0.21,
4852,-0.355,0.19,
4853,-0.39,0.195,
4854,-0.385,0.19,
4855,-0.365,0.2,
4856,-0.35,0.2,
4857,-0.36,0.185,
4858,-0.38,0.17,
4859,-0.38,0.165,
4860,-0.385,0.185,
4861,-0.36,0.2,
4862,-0.345,0.21,
4863,-0.355,0.21,
4864,-0.365,0.185,
4865,-0.37,0.18,
4866,-0.38,0.195,
4867,-0.37,0.195,
4868,-0.345,0.19,
4869,-0.35,0.205,
4870,-0.36,0.18,
4871,-0.38,0.195,
4872,-0.39,0.19,
4873,-0.38,0.205,
4874,-0.365,0.215,
4875,-0.36,0.205,
4876,-0.38,0.19,
4877,-0.39,0.185,
4878,-0.395,0.17,
4879,-0.4,0.16,
4880,-0.4,0.155,
4881,-0.4,0.145,
4882,-0.42,0.115,
4883,-0.43,0.105,
4884,-0.425,0.105,
4885,-0.405,0.115,
4886,-0.405,0.11,
4887,-0.395,0.115,
4888,-0.405,0.105,
4889,-0.41,0.105,
4890,-0.41,0.115,
4891,-0.395,0.125,
4892,-0.39,0.145,
4893,-0.37,0.15,
4894,-0.395,0.145,
4895,-0.41,0.13,
4896,-0.42,0.145,
4897,-0.415,0.16,
4898,-0.4,0.17,
4899,-0.385,0.18,
4900,-0.385,0.175,
4901,-0.41,0.16,
4902,-0.42,0.18,
4903,-0.41,0.2,
4904,-0.395,0.205,
4905,-0.39,0.21,
4906,-0.385,0.215,
4907,-0.405,0.21,
4908,-0.385,0.215,
4909,-0.365,0.22,
4910,-0.37,0.23,
4911,-0.35,0.215,
4912,-0.35,0.205,
4913,-0.34,0.2,
4914,-0.335,0.2,
4915,-0.33,0.225,
4916,-0.31,0.215,
4917,-0.285,0.19,
4918,-0.295,0.18,
4919,-0.295,0.19,
4920,-0.285,0.195,
4921,-0.26,0.2,
4922,-0.245,0.215,
4923,-0.245,0.205,
4924,-0.24,0.195,
4925,-0.225,0.19,
4926,-0.23,0.2,
4927,-0.22,0.215,
4928,-0.205,0.215,
4929,-0.2,0.21,
4930,-0.215,0.21,
4931,-0.23,0.195,
4932,-0.225,0.195,
4933,-0.21,0.195,
4934,-0.205,0.185,
4935,-0.21,0.17,
4936,-0.22,0.16,
4937,-0.23,0.14,
4938,-0.235,0.15,
4939,-0.23,0.155,
4940,-0.22,0.155,
4941,-0.22,0.14,
4942,-0.23,0.13,
4943,-0.245,0.11,
4944,-0.24,0.11,
4945,-0.215,0.13,
4946,-0.205,0.14,
4947,-0.2,0.135,
4948,-0.215,0.14,
4949,-0.24,0.135,
4950,-0.24,0.145,
4951,-0.22,0.16,
4952,-0.205,0.17,
4953,-0.205,0.165,
4954,-0.215,0.165,
4955,-0.24,0.175,
4956,-0.24,0.185,
4957,-0.235,0.205,
4958,-0.22,0.215,
4959,-0.235,0.21,
4960,-0.245,0.21,
4961,-0.245,0.195,
4962,-0.245,0.22,
4963,-0.235,0.225,
4964,-0.22,0.245,
4965,-0.22,0.24,
4966,-0.23,0.225,
4967,-0.245,0.215,
4968,-0.235,0.22,
4969,-0.21,0.225,
4970,-0.205,0.225,
4971,-0.205,0.215,
4972,-0.22,0.205,
4973,-0.22,0.19,
4974,-0.235,0.2,
4975,-0.21,0.205,
4976,-0.195,0.215,
4977,-0.175,0.205,
4978,-0.195,0.205,
4979,-0.195,0.205,
4980,-0.2,0.21,
4981,-0.19,0.22,
4982,-0.175,0.235,
4983,-0.16,0.23,
4984,-0.18,0.22,
4985,-0.19,0.2,
4986,-0.195,0.19,
4987,-0.195,0.19,
4988,-0.165,0.175,
4989,-0.165,0.165,
4990,-0.18,0.145,
4991,-0.195,0.13,
4992,-0.205,0.115,
4993,-0.21,0.115,
4994,-0.205,0.135,
4995,-0.215,0.13,
4996,-0.21,0.11,
4997,-0.22,0.105,
4998,-0.215,0.11,
4999,-0.21,0.125,
5000,-0.2,0.14,
5001,-0.19,0.155,
5002,-0.195,0.135,
5003,-0.2,0.15,
5004,-0.21,0.16,
5005,-0.205,0.17,
5006,-0.195,0.185,
5007,-0.18,0.18,
5008,-0.2,0.175,
5009,-0.21,0.17,
5010,-0.23,0.19,
5011,-0.21,0.205,
5012,-0.2,0.225,
5013,-0.19,0.24,
5014,-0.195,0.215,
5015,-0.21,0.225,
5016,-0.23,0.245,
5017,-0.21,0.26,
5018,-0.2,0.255,
5019,-0.195,0.25,
5020,-0.205,0.24,
5021,-0.225,0.24,
5022,-0.23,0.24,
5023,-0.23,0.24,
5024,-0.205,0.25,
5025,-0.2,0.245,
5026,-0.21,0.225,
5027,-0.22,0.215,
5028,-0.22,0.22,
5029,-0.22,0.235,
5030,-0.2,0.23,
5031,-0.19,0.225,
5032,-0.205,0.205,
5033,-0.215,0.195,
5034,-0.22,0.195,
5035,-0.215,0.205,
5036,-0.205,0.205,
5037,-0.2,0.215,
5038,-0.215,0.2,
5039,-0.225,0.195,
5040,-0.245,0.185,
5041,-0.22,0.195,
5042,-0.22,0.2,
5043,-0.225,0.175,
5044,-0.23,0.15,
5045,-0.24,0.13,
5046,-0.245,0.135,
5047,-0.225,0.12,
5048,-0.22,0.13,
5049,-0.215,0.125,
5050,-0.24,0.11,
5051,-0.245,0.1,
5052,-0.235,0.105,
5053,-0.215,0.115,
5054,-0.205,0.125,
5055,-0.2,0.14,
5056,-0.21,0.12,
5057,-0.225,0.125,
5058,-0.23,0.13,
5059,-0.22,0.155,
5060,-0.205,0.145,
5061,-0.215,0.145,
5062,-0.22,0.165,
5063,-0.235,0.145,
5064,-0.235,0.165,
5065,-0.23,0.17,
5066,-0.22,0.19,
5067,-0.215,0.195,
5068,-0.215,0.2,
5069,-0.23,0.18,
5070,-0.225,0.2,
5071,-0.225,0.205,
5072,-0.205,0.21,
5073,-0.215,0.205,
5074,-0.205,0.2,
5075,-0.22,0.185,
5076,-0.215,0.195,
5077,-0.215,0.19,
5078,-0.195,0.195,
5079,-0.2,0.19,
5080,-0.2,0.2,
5081,-0.205,0.18,
5082,-0.205,0.18,
5083,-0.195,0.195,
5084,-0.17,0.205,
5085,-0.16,0.2,
5086,-0.18,0.185,
5087,-0.19,0.17,
5088,-0.19,0.175,
5089,-0.18,0.19,
5090,-0.165,0.195,
5091,-0.17,0.185,
5092,-0.185,0.19,
5093,-0.2,0.185,
5094,-0.215,0.19,
5095,-0.19,0.21,
5096,-0.185,0.2,
5097,-0.19,0.18,
5098,-0.19,0.16,
5099,-0.205,0.15,
5100,-0.22,0.135,
5101,-0.2,0.125,
5102,-0.19,0.125,
5103,-0.175,0.115,
5104,-0.175,0.11,
5105,-0.185,0.105,
5106,-0.185,0.12,
5107,-0.175,0.14,
5108,-0.17,0.14,
5109,-0.16,0.155,
5110,-0.16,0.15,
5111,-0.16,0.135,
5112,-0.14,0.135,
5113,-0.085,0.135,
5114,-0.01,0.13,
5115,0.085,0.105,
5116,0.175,0.07,
5117,0.27,0.055,
5118,0.365,0.025,
5119,0.48,0.015,
5120,0.59,0.02,
5121,0.705,0.01,
5122,0.8,-0.01,
5123,0.855,-0.055,
5124,0.87,-0.095,N
5125,0.85,-0.105,
5126,0.835,-0.125,
5127,0.77,-0.115,
5128,0.665,-0.115,
5129,0.5,-0.065,
5130,0.31,-0.005,
5131,0.11,0.035,
5132,-0.005,0.09,
5133,-0.085,0.115,
5134,-0.12,0.1,
5135,-0.17,0.135,
5136,-0.22,0.155,
5137,-0.245,0.175,
5138,-0.235,0.21,
5139,-0.24,0.2,
5140,-0.245,0.2,
5141,-0.27,0.205,
5142,-0.29,0.205,
5143,-0.285,0.22,
5144,-0.275,0.225,
5145,-0.285,0.23,
5146,-0.315,0.205,
5147,-0.315,0.205,
5148,-0.32,0.22,
5149,-0.315,0.24,
5150,-0.29,0.25,
5151,-0.315,0.24,
5152,-0.335,0.22,
5153,-0.355,0.21,
5154,-0.37,0.205,
5155,-0.385,0.21,
5156,-0.355,0.21,
5157,-0.36,0.195,
5158,-0.375,0.165,
5159,-0.375,0.16,
5160,-0.375,0.145,
5161,-0.38,0.145,
5162,-0.365,0.16,
5163,-0.365,0.145,
5164,-0.36,0.145,
5165,-0.37,0.145,
5166,-0.375,0.155,
5167,-0.365,0.175,
5168,-0.36,0.185,
5169,-0.365,0.18,
5170,-0.385,0.17,
5171,-0.39,0.17,
5172,-0.39,0.175,
5173,-0.39,0.205,
5174,-0.38,0.205,
5175,-0.39,0.205,
5176,-0.405,0.2,
5177,-0.4,0.2,
5178,-0.395,0.205,
5179,-0.39,0.22,
5180,-0.375,0.235,
5181,-0.365,0.23,
5182,-0.375,0.21,
5183,-0.385,0.205,
5184,-0.39,0.21,
5185,-0.37,0.22,
5186,-0.355,0.22,
5187,-0.35,0.21,
5188,-0.36,0.2,
5189,-0.385,0.185,
5190,-0.375,0.185,
5191,-0.365,0.2,
5192,-0.355,0.205,
5193,-0.35,0.215,
5194,-0.33,0.2,
5195,-0.335,0.195,
5196,-0.345,0.19,
5197,-0.33,0.205,
5198,-0.315,0.205,
5199,-0.305,0.215,
5200,-0.305,0.19,
5201,-0.305,0.18,
5202,-0.305,0.19,
5203,-0.3,0.19,
5204,-0.29,0.195,
5205,-0.29,0.195,
5206,-0.285,0.19,
5207,-0.3,0.175,
5208,-0.3,0.185,
5209,-0.28,0.18,
5210,-0.28,0.19,
5211,-0.28,0.185,
5212,-0.285,0.18,
5213,-0.29,0.18,
5214,-0.3,0.17,
5215,-0.275,0.165,
5216,-0.26,0.155,
5217,-0.255,0.13,
5218,-0.24,0.115,
5219,-0.245,0.11,
5220,-0.25,0.105,
5221,-0.235,0.105,
5222,-0.23,0.095,
5223,-0.21,0.1,
5224,-0.205,0.08,
5225,-0.2,0.09,
5226,-0.21,0.125,
5227,-0.19,0.15,
5228,-0.18,0.17,
5229,-0.195,0.17,
5230,-0.205,0.16,
5231,-0.22,0.16,
5232,-0.21,0.17,
5233,-0.195,0.205,
5234,-0.175,0.225,
5235,-0.2,0.22,
5236,-0.195,0.215,
5237,-0.2,0.215,
5238,-0.195,0.23,
5239,-0.18,0.24,
5240,-0.17,0.255,
5241,-0.17,0.25,
5242,-0.175,0.235,
5243,-0.195,0.245,
5244,-0.195,0.24,
5245,-0.195,0.235,
5246,-0.16,0.24,
5247,-0.165,0.245,
5248,-0.175,0.23,
5249,-0.18,0.23,
5250,-0.19,0.23,
5251,-0.18,0.255,
5252,-0.16,0.26,
5253,-0.15,0.275,
5254,-0.16,0.24,
5255,-0.165,0.255,
5256,-0.165,0.255,
5257,-0.16,0.25,
5258,-0.16,0.26,
5259,-0.165,0.255,
5260,-0.18,0.25,
5261,-0.165,0.24,
5262,-0.17,0.245,
5263,-0.165,0.24,
5264,-0.155,0.26,
5265,-0.17,0.26,
5266,-0.185,0.24,
5267,-0.205,0.22,
5268,-0.21,0.22,
5269,-0.18,0.23,
5270,-0.17,0.215,
5271,-0.165,0.2,
5272,-0.17,0.18,
5273,-0.185,0.155,
5274,-0.195,0.145,
5275,-0.185,0.14,
5276,-0.18,0.125,
5277,-0.165,0.125,
5278,-0.18,0.115,
5279,-0.19,0.115,
5280,-0.2,0.125,
5281,-0.19,0.145,
5282,-0.175,0.15,
5283,-0.17,0.165,
5284,-0.175,0.16,
5285,-0.18,0.17,
5286,-0.19,0.17,
5287,-0.185,0.195,
5288,-0.175,0.215,
5289,-0.165,0.215,
5290,-0.18,0.21,
5291,-0.185,0.22,
5292,-0.185,0.225,
5293,-0.175,0.24,
5294,-0.17,0.245,
5295,-0.17,0.245,
5296,-0.175,0.23,
5297,-0.19,0.235,
5298,-0.2,0.23,
5299,-0.175,0.245,
5300,-0.17,0.245,
5301,-0.18,0.235,
5302,-0.185,0.225,
5303,-0.205,0.22,
5304,-0.195,0.225,
5305,-0.19,0.245,
5306,-0.18,0.255,
5307,-0.165,0.25,
5308,-0.175,0.24,
5309,-0.185,0.225,
5310,-0.195,0.235,
5311,-0.18,0.245,
5312,-0.16,0.245,
5313,-0.16,0.24,
5314,-0.165,0.225,
5315,-0.18,0.215,
5316,-0.185,0.21,
5317,-0.185,0.23,
5318,-0.17,0.235,
5319,-0.17,0.22,
5320,-0.175,0.2,
5321,-0.195,0.195,
5322,-0.2,0.19,
5323,-0.2,0.185,
5324,-0.2,0.185,
5325,-0.19,0.175,
5326,-0.19,0.155,
5327,-0.195,0.135,
5328,-0.225,0.135,
5329,-0.215,0.135,
5330,-0.195,0.15,
5331,-0.19,0.125,
5332,-0.195,0.12,
5333,-0.2,0.125,
5334,-0.2,0.14,
5335,-0.185,0.135,
5336,-0.17,0.155,
5337,-0.17,0.16,
5338,-0.18,0.16,
5339,-0.19,0.16,
5340,-0.195,0.175,
5341,-0.185,0.2,
5342,-0.17,0.215,
5343,-0.17,0.21,
5344,-0.17,0.205,
5345,-0.185,0.2,
5346,-0.185,0.215,
5347,-0.17,0.22,
5348,-0.165,0.24,
5349,-0.155,0.24,
5350,-0.155,0.22,
5351,-0.145,0.195,
5352,-0.095,0.2,
5353,0.015,0.175,
5354,0.125,0.16,
5355,0.235,0.145,
5356,0.345,0.115,
5357,0.45,0.07,
5358,0.555,0.045,
5359,0.685,0.05,
5360,0.82,0.035,
5361,0.92,0.01,
5362,0.965,-0.06,
5363,0.945,-0.105,N
5364,0.905,-0.115,
5365,0.86,-0.095,
5366,0.79,-0.085,
5367,0.665,-0.035,
5368,0.48,-0.01,
5369,0.255,0.035,
5370,0.085,0.06,
5371,-0.005,0.1,
5372,-0.065,0.13,
5373,-0.11,0.16,
5374,-0.18,0.165,
5375,-0.245,0.17,
5376,-0.28,0.19,
5377,-0.275,0.205,
5378,-0.285,0.2,
5379,-0.29,0.195,
5380,-0.305,0.17,
5381,-0.325,0.16,
5382,-0.35,0.14,
5383,-0.35,0.15,
5384,-0.35,0.155,
5385,-0.345,0.135,
5386,-0.35,0.125,
5387,-0.36,0.115,
5388,-0.38,0.105,
5389,-0.37,0.125,
5390,-0.375,0.135,
5391,-0.37,0.15,
5392,-0.385,0.145,
5393,-0.395,0.145,
5394,-0.39,0.165,
5395,-0.385,0.19,
5396,-0.37,0.205,
5397,-0.37,0.21,
5398,-0.385,0.205,
5399,-0.39,0.21,
5400,-0.385,0.22,
5401,-0.39,0.225,
5402,-0.38,0.24,
5403,-0.365,0.23,
5404,-0.39,0.225,
5405,-0.4,0.215,
5406,-0.41,0.215,
5407,-0.395,0.225,
5408,-0.375,0.235,
5409,-0.375,0.22,
5410,-0.385,0.215,
5411,-0.395,0.2,
5412,-0.4,0.22,
5413,-0.385,0.23,
5414,-0.38,0.235,
5415,-0.38,0.22,
5416,-0.375,0.235,
5417,-0.395,0.23,
5418,-0.375,0.22,
5419,-0.37,0.24,
5420,-0.365,0.245,
5421,-0.35,0.235,
5422,-0.36,0.225,
5423,-0.37,0.225,
5424,-0.37,0.22,
5425,-0.36,0.22,
5426,-0.345,0.24,
5427,-0.355,0.235,
5428,-0.365,0.215,
5429,-0.375,0.2,
5430,-0.375,0.2,
5431,-0.365,0.215,
5432,-0.37,0.21,
5433,-0.37,0.19,
5434,-0.375,0.2,
5435,-0.385,0.19,
5436,-0.385,0.19,
5437,-0.39,0.19,
5438,-0.375,0.19,
5439,-0.365,0.185,
5440,-0.37,0.155,
5441,-0.38,0.15,
5442,-0.385,0.145,
5443,-0.375,0.15,
5444,-0.375,0.15,
5445,-0.34,0.135,
5446,-0.345,0.115,
5447,-0.35,0.115,
5448,-0.34,0.12,
5449,-0.33,0.13,
5450,-0.315,0.15,
5451,-0.305,0.16,
5452,-0.3,0.155,
5453,-0.305,0.16,
5454,-0.295,0.17,
5455,-0.275,0.18,
5456,-0.26,0.2,
5457,-0.255,0.205,
5458,-0.26,0.195,
5459,-0.27,0.195,
5460,-0.25,0.21,
5461,-0.24,0.21,
5462,-0.215,0.22,
5463,-0.21,0.22,
5464,-0.21,0.21,
5465,-0.245,0.205,
5466,-0.24,0.215,
5467,-0.23,0.215,
5468,-0.215,0.22,
5469,-0.215,0.215,
5470,-0.215,0.23,
5471,-0.215,0.21,
5472,-0.225,0.22,
5473,-0.225,0.235,
5474,-0.21,0.245,
5475,-0.195,0.245,
5476,-0.2,0.22,
5477,-0.2,0.215,
5478,-0.205,0.225,
5479,-0.205,0.225,
5480,-0.19,0.235,
5481,-0.2,0.235,
5482,-0.205,0.215,
5483,-0.21,0.215,
5484,-0.215,0.215,
5485,-0.215,0.235,
5486,-0.2,0.23,
5487,-0.215,0.24,
5488,-0.235,0.215,
5489,-0.245,0.21,
5490,-0.25,0.23,
5491,-0.23,0.22,
5492,-0.245,0.235,
5493,-0.245,0.23,
5494,-0.255,0.22,
5495,-0.27,0.21,
5496,-0.27,0.195,
5497,-0.255,0.2,
5498,-0.24,0.2,
5499,-0.23,0.175,
5500,-0.235,0.155,
5501,-0.245,0.145,
5502,-0.245,0.145,
5503,-0.24,0.17,
5504,-0.23,0.17,
5505,-0.23,0.18,
5506,-0.22,0.165,
5507,-0.245,0.175,
5508,-0.25,0.185,
5509,-0.24,0.2,
5510,-0.24,0.21,
5511,-0.225,0.21,
5512,-0.23,0.2,
5513,-0.225,0.19,
5514,-0.22,0.21,
5515,-0.22,0.215,
5516,-0.205,0.21,
5517,-0.205,0.21,
5518,-0.205,0.195,
5519,-0.22,0.185,
5520,-0.215,0.18,
5521,-0.21,0.19,
5522,-0.2,0.215,
5523,-0.2,0.2,
5524,-0.21,0.185,
5525,-0.22,0.185,
5526,-0.23,0.2,
5527,-0.205,0.2,
5528,-0.195,0.225,
5529,-0.185,0.22,
5530,-0.195,0.22,
5531,-0.205,0.2,
5532,-0.215,0.215,
5533,-0.215,0.215,
5534,-0.185,0.225,
5535,-0.19,0.225,
5536,-0.2,0.2,
5537,-0.21,0.205,
5538,-0.225,0.215,
5539,-0.215,0.225,
5540,-0.22,0.22,
5541,-0.21,0.225,
5542,-0.23,0.205,
5543,-0.255,0.2,
5544,-0.25,0.21,
5545,-0.25,0.215,
5546,-0.245,0.225,
5547,-0.235,0.225,
5548,-0.245,0.215,
5549,-0.25,0.185,
5550,-0.245,0.17,
5551,-0.25,0.16,
5552,-0.23,0.17,
5553,-0.235,0.155,
5554,-0.23,0.155,
5555,-0.24,0.16,
5556,-0.25,0.155,
5557,-0.23,0.175,
5558,-0.23,0.165,
5559,-0.225,0.185,
5560,-0.245,0.175,
5561,-0.245,0.18,
5562,-0.26,0.195,
5563,-0.24,0.23,
5564,-0.23,0.235,
5565,-0.235,0.225,
5566,-0.23,0.22,
5567,-0.245,0.22,
5568,-0.25,0.23,
5569,-0.235,0.235,
5570,-0.225,0.245,
5571,-0.23,0.24,
5572,-0.235,0.23,
5573,-0.235,0.21,
5574,-0.245,0.21,
5575,-0.24,0.23,
5576,-0.22,0.225,
5577,-0.225,0.24,
5578,-0.22,0.23,
5579,-0.225,0.215,
5580,-0.235,0.225,
5581,-0.25,0.255,
5582,-0.23,0.25,
5583,-0.22,0.245,
5584,-0.22,0.235,
5585,-0.23,0.22,
5586,-0.23,0.21,
5587,-0.21,0.21,
5588,-0.21,0.215,
5589,-0.21,0.21,
5590,-0.21,0.19,
5591,-0.24,0.165,
5592,-0.225,0.16,
5593,-0.23,0.175,
5594,-0.21,0.185,
5595,-0.2,0.17,
5596,-0.235,0.155,
5597,-0.235,0.145,
5598,-0.245,0.135,
5599,-0.23,0.135,
5600,-0.225,0.14,
5601,-0.21,0.125,
5602,-0.245,0.115,
5603,-0.24,0.105,
5604,-0.245,0.11,
5605,-0.23,0.13,
5606,-0.22,0.15,
5607,-0.205,0.155,
5608,-0.22,0.14,
5609,-0.25,0.14,
5610,-0.255,0.155,
5611,-0.245,0.165,
5612,-0.22,0.19,
5613,-0.215,0.185,
5614,-0.21,0.2,
5615,-0.215,0.19,
5616,-0.215,0.205,
5617,-0.205,0.23,
5618,-0.195,0.245,
5619,-0.18,0.235,
5620,-0.17,0.205,
5621,-0.105,0.19,
5622,-0.015,0.165,
5623,0.1,0.165,
5624,0.235,0.135,
5625,0.345,0.1,
5626,0.445,0.045,
5627,0.54,0.04,
5628,0.675,0.04,
5629,0.795,0.025,
5630,0.88,-0.03,
5631,0.905,-0.09,N
5632,0.88,-0.12,
5633,0.815,-0.125,
5634,0.74,-0.11,
5635,0.64,-0.07,
5636,0.47,-0.02,
5637,0.26,0.02,
5638,0.045,0.05,
5639,-0.075,0.07,
5640,-0.12,0.1,
5641,-0.15,0.14,
5642,-0.2,0.155,
5643,-0.23,0.16,
5644,-0.27,0.17,
5645,-0.295,0.15,
5646,-0.305,0.17,
5647,-0.3,0.185,
5648,-0.315,0.185,
5649,-0.335,0.17,
5650,-0.345,0.165,
5651,-0.36,0.16,
5652,-0.375,0.17,
5653,-0.37,0.165,
5654,-0.365,0.17,
5655,-0.365,0.19,
5656,-0.38,0.17,
5657,-0.39,0.17,
5658,-0.385,0.185,
5659,-0.385,0.195,
5660,-0.385,0.205,
5661,-0.38,0.205,
5662,-0.385,0.2,
5663,-0.4,0.195,
5664,-0.425,0.21,
5665,-0.405,0.24,
5666,-0.41,0.245,
5667,-0.405,0.25,
5668,-0.425,0.24,
5669,-0.42,0.24,
5670,-0.43,0.235,
5671,-0.415,0.24,
5672,-0.41,0.25,
5673,-0.41,0.235,
5674,-0.41,0.23,
5675,-0.425,0.22,
5676,-0.42,0.235,
5677,-0.405,0.23,
5678,-0.405,0.24,
5679,-0.4,0.235,
5680,-0.4,0.22,
5681,-0.42,0.225,
5682,-0.42,0.235,
5683,-0.395,0.23,
5684,-0.39,0.24,
5685,-0.375,0.225,
5686,-0.38,0.235,
5687,-0.385,0.225,
5688,-0.385,0.23,
5689,-0.375,0.23,
5690,-0.35,0.235,
5691,-0.365,0.23,
5692,-0.37,0.21,
5693,-0.375,0.2,
5694,-0.375,0.205,
5695,-0.37,0.205,
5696,-0.37,0.21,
5697,-0.37,0.21,
5698,-0.37,0.195,
5699,-0.395,0.17,
5700,-0.39,0.17,
5701,-0.395,0.18,
5702,-0.375,0.185,
5703,-0.365,0.185,
5704,-0.365,0.195,
5705,-0.375,0.175,
5706,-0.37,0.19,
5707,-0.365,0.19,
5708,-0.365,0.21,
5709,-0.375,0.205,
5710,-0.36,0.205,
5711,-0.345,0.19,
5712,-0.355,0.2,
5713,-0.345,0.21,
5714,-0.335,0.21,
5715,-0.335,0.215,
5716,-0.325,0.205,
5717,-0.33,0.21,
5718,-0.32,0.21,
5719,-0.315,0.225,
5720,-0.305,0.23,
5721,-0.295,0.235,
5722,-0.275,0.225,
5723,-0.275,0.225,
5724,-0.27,0.23,
5725,-0.265,0.24,
5726,-0.25,0.25,
5727,-0.25,0.25,
5728,-0.245,0.25,
5729,-0.255,0.235,
5730,-0.26,0.235,
5731,-0.245,0.235,
5732,-0.245,0.23,
5733,-0.23,0.23,
5734,-0.23,0.23,
5735,-0.24,0.215,
5736,-0.25,0.215,
5737,-0.23,0.245,
5738,-0.215,0.24,
5739,-0.205,0.245,
5740,-0.215,0.225,
5741,-0.23,0.215,
5742,-0.23,0.22,
5743,-0.21,0.235,
5744,-0.215,0.235,
5745,-0.21,0.23,
5746,-0.215,0.215,
5747,-0.235,0.21,
5748,-0.235,0.215,
5749,-0.235,0.225,
5750,-0.225,0.235,
5751,-0.22,0.235,
5752,-0.235,0.23,
5753,-0.255,0.225,
5754,-0.245,0.23,
5755,-0.245,0.245,
5756,-0.245,0.245,
5757,-0.24,0.24,
5758,-0.245,0.245,
5759,-0.26,0.22,
5760,-0.25,0.225,
5761,-0.255,0.24,
5762,-0.25,0.245,
5763,-0.255,0.245,
5764,-0.255,0.23,
5765,-0.275,0.225,
5766,-0.27,0.22,
5767,-0.255,0.235,
5768,-0.25,0.255,
5769,-0.235,0.25,
5770,-0.255,0.245,
5771,-0.255,0.245,
5772,-0.26,0.24,
5773,-0.245,0.255,
5774,-0.235,0.26,
5775,-0.225,0.275,
5776,-0.25,0.25,
5777,-0.265,0.255,
5778,-0.265,0.26,
5779,-0.255,0.26,
5780,-0.24,0.255,
5781,-0.22,0.25,
5782,-0.235,0.225,
5783,-0.25,0.215,
5784,-0.26,0.215,
5785,-0.24,0.23,
5786,-0.23,0.225,
5787,-0.225,0.235,
5788,-0.23,0.225,
5789,-0.235,0.205,
5790,-0.235,0.22,
5791,-0.22,0.225,
5792,-0.21,0.225,
5793,-0.2,0.235,
5794,-0.205,0.23,
5795,-0.215,0.21,
5796,-0.245,0.225,
5797,-0.225,0.23,
5798,-0.23,0.25,
5799,-0.22,0.24,
5800,-0.23,0.22,
5801,-0.24,0.225,
5802,-0.25,0.23,
5803,-0.255,0.24,
5804,-0.25,0.245,
5805,-0.25,0.25,
5806,-0.255,0.24,
5807,-0.265,0.225,
5808,-0.27,0.235,
5809,-0.25,0.245,
5810,-0.24,0.25,
5811,-0.235,0.26,
5812,-0.245,0.245,
5813,-0.26,0.25,
5814,-0.275,0.245,
5815,-0.265,0.255,
5816,-0.22,0.25,
5817,-0.175,0.225,
5818,-0.115,0.165,
5819,-0.035,0.12,
5820,0.07,0.09,
5821,0.19,0.065,
5822,0.33,0.035,
5823,0.445,0.0,
5824,0.585,-0.035,
5825,0.7,-0.05,
5826,0.795,-0.065,
5827,0.865,-0.09,
5828,0.875,-0.125,N
5829,0.825,-0.135,
5830,0.765,-0.16,
5831,0.655,-0.14,
5832,0.545,-0.105,
5833,0.375,-0.055,
5834,0.165,0.0,
5835,-0.03,0.04,
5836,-0.14,0.055,
5837,-0.215,0.09,
5838,-0.265,0.125,
5839,-0.305,0.165,
5840,-0.31,0.19,
5841,-0.33,0.195,
5842,-0.35,0.195,
5843,-0.37,0.21,
5844,-0.385,0.205,
5845,-0.37,0.23,
5846,-0.35,0.24,
5847,-0.375,0.245,
5848,-0.39,0.24,
5849,-0.4,0.23,
5850,-0.41,0.235,
5851,-0.415,0.25,
5852,-0.395,0.265,
5853,-0.39,0.265,
5854,-0.395,0.255,
5855,-0.425,0.24,
5856,-0.435,0.24,
5857,-0.46,0.24,
5858,-0.445,0.245,
5859,-0.44,0.24,
5860,-0.46,0.22,
5861,-0.49,0.215,
5862,-0.495,0.21,
5863,-0.485,0.22,
5864,-0.48,0.22,
5865,-0.475,0.21,
5866,-0.49,0.205,
5867,-0.505,0.17,
5868,-0.505,0.17,
5869,-0.485,0.17,
5870,-0.5,0.185,
5871,-0.495,0.17,
5872,-0.5,0.17,
5873,-0.52,0.155,
5874,-0.52,0.16,
5875,-0.52,0.165,
5876,-0.505,0.19,
5877,-0.515,0.2,
5878,-0.515,0.2,
5879,-0.535,0.195,
5880,-0.535,0.205,
5881,-0.53,0.22,
5882,-0.515,0.22,
5883,-0.495,0.215,
5884,-0.51,0.205,
5885,-0.52,0.195,
5886,-0.535,0.21,
5887,-0.525,0.21,
5888,-0.505,0.23,
5889,-0.5,0.225,
5890,-0.51,0.215,
5891,-0.51,0.195,
5892,-0.52,0.205,
5893,-0.515,0.22,
5894,-0.505,0.24,
5895,-0.485,0.225,
5896,-0.485,0.22,
5897,-0.485,0.225,
5898,-0.485,0.23,
5899,-0.48,0.245,
5900,-0.45,0.25,
5901,-0.45,0.245,
5902,-0.445,0.23,
5903,-0.445,0.215,
5904,-0.445,0.22,
5905,-0.43,0.225,
5906,-0.41,0.22,
5907,-0.41,0.225,
5908,-0.41,0.205,
5909,-0.41,0.19,
5910,-0.415,0.18,
5911,-0.39,0.195,
5912,-0.385,0.2,
5913,-0.37,0.185,
5914,-0.365,0.175,
5915,-0.36,0.16,
5916,-0.35,0.18,
5917,-0.335,0.175,
5918,-0.33,0.2,
5919,-0.33,0.185,
5920,-0.34,0.17,
5921,-0.345,0.17,
5922,-0.345,0.195,
5923,-0.34,0.195,
5924,-0.33,0.21,
5925,-0.33,0.215,
5926,-0.34,0.215,
5927,-0.345,0.215,
5928,-0.345,0.225,
5929,-0.325,0.245,
5930,-0.315,0.255,
5931,-0.32,0.255,
5932,-0.325,0.255,
5933,-0.33,0.255,
5934,-0.325,0.265,
5935,-0.305,0.27,
5936,-0.295,0.275,
5937,-0.29,0.265,
5938,-0.3,0.25,
5939,-0.32,0.235,
5940,-0.32,0.235,
5941,-0.315,0.23,
5942,-0.295,0.235,
5943,-0.29,0.22,
5944,-0.305,0.215,
5945,-0.315,0.205,
5946,-0.315,0.215,
5947,-0.31,0.235,
5948,-0.29,0.24,
5949,-0.295,0.25,
5950,-0.285,0.24,
5951,-0.29,0.22,
5952,-0.295,0.22,
5953,-0.285,0.24,
5954,-0.28,0.24,
5955,-0.26,0.24,
5956,-0.275,0.225,
5957,-0.285,0.21,
5958,-0.295,0.205,
5959,-0.295,0.215,
5960,-0.3,0.21,
5961,-0.295,0.185,
5962,-0.295,0.165,
5963,-0.31,0.145,
5964,-0.31,0.14,
5965,-0.29,0.15,
5966,-0.285,0.165,
5967,-0.28,0.16,
5968,-0.29,0.155,
5969,-0.315,0.155,
5970,-0.3,0.17,
5971,-0.285,0.175,
5972,-0.28,0.195,
5973,-0.28,0.195,
5974,-0.295,0.19,
5975,-0.295,0.19,
5976,-0.29,0.195,
5977,-0.29,0.23,
5978,-0.275,0.23,
5979,-0.275,0.24,
5980,-0.28,0.22,
5981,-0.305,0.225,
5982,-0.295,0.225,
5983,-0.275,0.235,
5984,-0.27,0.245,
5985,-0.275,0.24,
5986,-0.295,0.24,
5987,-0.295,0.225,
5988,-0.295,0.225,
5989,-0.28,0.22,
5990,-0.265,0.235,
5991,-0.255,0.23,
5992,-0.265,0.205,
5993,-0.29,0.2,
5994,-0.295,0.21,
5995,-0.265,0.215,
5996,-0.25,0.23,
5997,-0.24,0.22,
5998,-0.26,0.2,
5999,-0.27,0.195,
6000,-0.28,0.195,
6001,-0.265,0.21,
6002,-0.25,0.22,
6003,-0.25,0.21,
6004,-0.255,0.195,
6005,-0.265,0.195,
6006,-0.265,0.195,
6007,-0.25,0.19,
6008,-0.25,0.195,
6009,-0.26,0.185,
6010,-0.27,0.155,
6011,-0.265,0.14,
6012,-0.275,0.14,
6013,-0.27,0.135,
6014,-0.27,0.155,
6015,-0.265,0.14,
6016,-0.265,0.14,
6017,-0.27,0.12,
6018,-0.28,0.13,
6019,-0.275,0.15,
6020,-0.26,0.15,
6021,-0.265,0.15,
6022,-0.265,0.14,
6023,-0.27,0.14,
6024,-0.285,0.16,
6025,-0.265,0.175,
6026,-0.27,0.185,
6027,-0.265,0.185,
6028,-0.28,0.18,
6029,-0.29,0.17,
6030,-0.275,0.195,
6031,-0.27,0.195,
6032,-0.26,0.215,
6033,-0.26,0.21,
6034,-0.265,0.2,
6035,-0.28,0.19,
6036,-0.26,0.2,
6037,-0.25,0.215,
6038,-0.245,0.21,
6039,-0.25,0.21,
6040,-0.27,0.2,
6041,-0.275,0.185,
6042,-0.265,0.185,
6043,-0.25,0.2,
6044,-0.22,0.2,
6045,-0.22,0.2,
6046,-0.225,0.2,
6047,-0.235,0.18,
6048,-0.24,0.175,
6049,-0.22,0.2,
6050,-0.205,0.2,
6051,-0.19,0.2,
6052,-0.22,0.205,
6053,-0.235,0.19,
6054,-0.22,0.195,
6055,-0.215,0.19,
6056,-0.195,0.195,
6057,-0.19,0.185,
6058,-0.2,0.145,
6059,-0.205,0.13,
6060,-0.215,0.14,
6061,-0.225,0.14,
6062,-0.2,0.14,
6063,-0.195,0.135,
6064,-0.195,0.125,
6065,-0.205,0.115,
6066,-0.21,0.115,
6067,-0.2,0.12,
6068,-0.195,0.13,
6069,-0.195,0.13,
6070,-0.21,0.12,
6071,-0.205,0.115,
6072,-0.205,0.13,
6073,-0.18,0.135,
6074,-0.18,0.155,
6075,-0.185,0.155,
6076,-0.185,0.13,
6077,-0.195,0.13,
6078,-0.2,0.155,
6079,-0.185,0.165,
6080,-0.175,0.185,
6081,-0.145,0.17,
6082,-0.095,0.145,
6083,-0.01,0.125,
6084,0.105,0.09,
6085,0.25,0.075,
6086,0.365,0.055,
6087,0.47,0.015,
6088,0.585,0.005,
6089,0.68,-0.025,
6090,0.78,-0.04,
6091,0.83,-0.105,
6092,0.86,-0.135,N
6093,0.825,-0.16,
6094,0.77,-0.16,
6095,0.69,-0.155,
6096,0.57,-0.08,
6097,0.405,-0.01,
6098,0.23,0.04,
6099,0.06,0.075,
6100,-0.045,0.095,
6101,-0.105,0.105,
6102,-0.15,0.13,
6103,-0.19,0.16,
6104,-0.2,0.19,
6105,-0.21,0.18,
6106,-0.225,0.185,
6107,-0.24,0.195,
6108,-0.26,0.195,
6109,-0.275,0.21,
6110,-0.265,0.2,
6111,-0.265,0.205,
6112,-0.28,0.195,
6113,-0.305,0.185,
6114,-0.325,0.185,
6115,-0.325,0.2,
6116,-0.31,0.195,
6117,-0.315,0.18,
6118,-0.33,0.18,
6119,-0.325,0.165,
6120,-0.345,0.17,
6121,-0.33,0.185,
6122,-0.34,0.175,
6123,-0.33,0.18,
6124,-0.345,0.165,
6125,-0.355,0.145,
6126,-0.375,0.155,
6127,-0.355,0.16,
6128,-0.35,0.17,
6129,-0.36,0.17,
6130,-0.375,0.155,
6131,-0.39,0.145,
6132,-0.4,0.17,
6133,-0.395,0.165,
6134,-0.365,0.185,
6135,-0.365,0.18,
6136,-0.365,0.17,
6137,-0.375,0.17,
6138,-0.38,0.165,
6139,-0.375,0.17,
6140,-0.365,0.18,
6141,-0.335,0.185,
6142,-0.35,0.17,
6143,-0.365,0.16,
6144,-0.355,0.165,
6145,-0.36,0.185,
6146,-0.335,0.19,
6147,-0.32,0.205,
6148,-0.315,0.185,
6149,-0.335,0.185,
6150,-0.33,0.205,
6151,-0.315,0.22,
6152,-0.3,0.22,
6153,-0.295,0.225,
6154,-0.29,0.215,
6155,-0.31,0.205,
6156,-0.295,0.205,
6157,-0.295,0.21,
6158,-0.295,0.23,
6159,-0.285,0.225,
6160,-0.29,0.205,
6161,-0.29,0.19,
6162,-0.305,0.2,
6163,-0.29,0.19,
6164,-0.28,0.19,
6165,-0.28,0.175,
6166,-0.285,0.16,
6167,-0.295,0.16,
6168,-0.29,0.165,
6169,-0.28,0.16,
6170,-0.275,0.165,
6171,-0.26,0.145,
6172,-0.275,0.125,
6173,-0.26,0.115,
6174,-0.255,0.1,
6175,-0.235,0.12,
6176,-0.22,0.125,
6177,-0.22,0.115,
6178,-0.21,0.11,
6179,-0.225,0.09,
6180,-0.225,0.095,
6181,-0.21,0.1,
6182,-0.19,0.12,
6183,-0.19,0.11,
6184,-0.185,0.105,
6185,-0.19,0.1,
6186,-0.185,0.125,
6187,-0.195,0.145,
6188,-0.165,0.165,
6189,-0.155,0.155,
6190,-0.155,0.16,
6191,-0.16,0.15,
6192,-0.165,0.16,
6193,-0.16,0.175,
6194,-0.16,0.18,
6195,-0.15,0.175,
6196,-0.15,0.18,
6197,-0.165,0.16,
6198,-0.16,0.16,
6199,-0.155,0.17,
6200,-0.15,0.19,
6201,-0.13,0.195,
6202,-0.15,0.19,
6203,-0.135,0.18,
6204,-0.135,0.195,
6205,-0.13,0.2,
6206,-0.12,0.205,
6207,-0.12,0.2,
6208,-0.14,0.19,
6209,-0.135,0.18,
6210,-0.145,0.175,
6211,-0.13,0.18,
6212,-0.135,0.19,
6213,-0.135,0.175,
6214,-0.14,0.155,
6215,-0.16,0.135,
6216,-0.155,0.125,
6217,-0.155,0.125,
6218,-0.135,0.14,
6219,-0.13,0.125,
6220,-0.15,0.13,
6221,-0.16,0.11,
6222,-0.165,0.135,
6223,-0.15,0.14,
6224,-0.145,0.145,
6225,-0.13,0.145,
6226,-0.15,0.135,
6227,-0.165,0.135,
6228,-0.16,0.15,
6229,-0.16,0.15,
6230,-0.15,0.155,
6231,-0.145,0.16,
6232,-0.165,0.165,
6233,-0.17,0.15,
6234,-0.175,0.165,
6235,-0.18,0.175,
6236,-0.16,0.19,
6237,-0.16,0.2,
6238,-0.16,0.2,
6239,-0.165,0.2,
6240,-0.16,0.2,
6241,-0.15,0.22,
6242,-0.155,0.225,
6243,-0.145,0.225,
6244,-0.16,0.21,
6245,-0.16,0.205,
6246,-0.155,0.21,
6247,-0.155,0.185,
6248,-0.14,0.185,
6249,-0.155,0.18,
6250,-0.17,0.165,
6251,-0.17,0.16,
6252,-0.175,0.165,
6253,-0.17,0.17,
6254,-0.165,0.18,
6255,-0.155,0.17,
6256,-0.15,0.15,
6257,-0.16,0.135,
6258,-0.155,0.135,
6259,-0.135,0.145,
6260,-0.13,0.145,
6261,-0.125,0.145,
6262,-0.14,0.14,
6263,-0.15,0.14,
6264,-0.15,0.145,
6265,-0.14,0.14,
6266,-0.13,0.155,
6267,-0.12,0.14,
6268,-0.14,0.13,
6269,-0.155,0.11,
6270,-0.175,0.125,
6271,-0.155,0.125,
6272,-0.145,0.13,
6273,-0.14,0.135,
6274,-0.145,0.115,
6275,-0.16,0.1,
6276,-0.18,0.12,
6277,-0.17,0.125,
6278,-0.16,0.14,
6279,-0.155,0.145,
6280,-0.15,0.135,
6281,-0.155,0.13,
6282,-0.165,0.14,
6283,-0.165,0.155,
6284,-0.17,0.18,
6285,-0.165,0.175,
6286,-0.17,0.16,
6287,-0.185,0.16,
6288,-0.185,0.175,
6289,-0.18,0.195,
6290,-0.165,0.21,
6291,-0.16,0.215,
6292,-0.17,0.21,
6293,-0.185,0.2,
6294,-0.19,0.19,
6295,-0.17,0.185,
6296,-0.17,0.18,
6297,-0.16,0.175,
6298,-0.165,0.155,
6299,-0.18,0.135,
6300,-0.18,0.13,
6301,-0.175,0.115,
6302,-0.18,0.11,
6303,-0.17,0.125,
6304,-0.17,0.12,
6305,-0.18,0.105,
6306,-0.18,0.115,
6307,-0.185,0.125,
6308,-0.155,0.14,
6309,-0.15,0.14,
6310,-0.15,0.135,
6311,-0.155,0.125,
6312,-0.155,0.13,
6313,-0.165,0.135,
6314,-0.145,0.15,
6315,-0.145,0.14,
6316,-0.145,0.125,
6317,-0.16,0.125,
6318,-0.155,0.135,
6319,-0.15,0.14,
6320,-0.145,0.155,
6321,-0.145,0.155,
6322,-0.15,0.125,
6323,-0.16,0.12,
6324,-0.165,0.125,
6325,-0.15,0.13,
6326,-0.15,0.145,
6327,-0.16,0.145,
6328,-0.16,0.125,
6329,-0.165,0.12,
6330,-0.17,0.13,
6331,-0.165,0.145,
6332,-0.155,0.15,
6333,-0.15,0.145,
6334,-0.17,0.125,
6335,-0.165,0.12,
6336,-0.17,0.125,
6337,-0.16,0.135,
6338,-0.155,0.14,
6339,-0.155,0.135,
6340,-0.155,0.13,
6341,-0.165,0.13,
6342,-0.195,0.135,
6343,-0.18,0.15,
6344,-0.16,0.175,
6345,-0.15,0.165,
6346,-0.15,0.155,
6347,-0.155,0.145,
6348,-0.155,0.15,
6349,-0.155,0.16,
6350,-0.16,0.165,
6351,-0.135,0.155,
6352,-0.115,0.14,
6353,-0.075,0.12,
6354,0.005,0.11,
6355,0.12,0.09,
6356,0.22,0.07,
6357,0.35,0.04,
6358,0.455,0.005,
6359,0.545,-0.02,
6360,0.665,-0.03,
6361,0.8,-0.025,
6362,0.925,-0.025,
6363,0.985,-0.085,
6364,0.98,-0.13,N
6365,0.94,-0.165,
6366,0.885,-0.155,
6367,0.835,-0.145,
6368,0.73,-0.1,
6369,0.57,-0.06,
6370,0.35,-0.025,
6371,0.14,0.015,
6372,0.005,0.055,
6373,-0.06,0.09,
6374,-0.09,0.12,
6375,-0.12,0.12,
6376,-0.17,0.11,
6377,-0.22,0.12,
6378,-0.225,0.095,
6379,-0.23,0.11,
6380,-0.235,0.115,
6381,-0.25,0.115,
6382,-0.27,0.105,
6383,-0.275,0.105,
6384,-0.29,0.115,
6385,-0.275,0.125,
6386,-0.295,0.12,
6387,-0.305,0.13,
6388,-0.31,0.125,
6389,-0.33,0.12,
6390,-0.315,0.125,
6391,-0.315,0.15,
6392,-0.31,0.17,
6393,-0.315,0.155,
6394,-0.33,0.16,
6395,-0.34,0.15,
6396,-0.34,0.15,
6397,-0.335,0.155,
6398,-0.35,0.175,
6399,-0.34,0.175,
6400,-0.36,0.165,
6401,-0.365,0.16,
6402,-0.365,0.18,
6403,-0.35,0.19,
6404,-0.345,0.2,
6405,-0.355,0.2,
6406,-0.34,0.195,
6407,-0.345,0.185,
6408,-0.35,0.19,
6409,-0.345,0.195,
6410,-0.335,0.215,
6411,-0.33,0.19,
6412,-0.335,0.195,
6413,-0.35,0.18,
6414,-0.35,0.185,
6415,-0.335,0.195,
6416,-0.33,0.2,
6417,-0.325,0.195,
6418,-0.33,0.19,
6419,-0.33,0.18,
6420,-0.325,0.18,
6421,-0.315,0.185,
6422,-0.315,0.2,
6423,-0.315,0.19,
6424,-0.315,0.185,
6425,-0.325,0.17,
6426,-0.33,0.165,
6427,-0.325,0.18,
6428,-0.3,0.17,
6429,-0.31,0.18,
6430,-0.315,0.165,
6431,-0.325,0.15,
6432,-0.325,0.145,
6433,-0.325,0.14,
6434,-0.305,0.155,
6435,-0.315,0.16,
6436,-0.31,0.14,
6437,-0.32,0.125,
6438,-0.325,0.13,
6439,-0.305,0.155,
6440,-0.305,0.165,
6441,-0.305,0.155,
6442,-0.305,0.15,
6443,-0.305,0.14,
6444,-0.3,0.135,
6445,-0.305,0.16,
6446,-0.295,0.165,
6447,-0.28,0.16,
6448,-0.285,0.15,
6449,-0.285,0.13,
6450,-0.275,0.135,
6451,-0.26,0.155,
6452,-0.26,0.175,
6453,-0.255,0.165,
6454,-0.25,0.17,
6455,-0.25,0.15,
6456,-0.235,0.155,
6457,-0.215,0.16,
6458,-0.195,0.17,
6459,-0.205,0.17,
6460,-0.195,0.16,
6461,-0.205,0.155,
6462,-0.19,0.175,
6463,-0.195,0.18,
6464,-0.165,0.185,
6465,-0.155,0.18,
6466,-0.17,0.165,
6467,-0.18,0.15,
6468,-0.18,0.17,
6469,-0.17,0.18,
6470,-0.155,0.19,
6471,-0.16,0.195,
6472,-0.15,0.185,
6473,-0.165,0.165,
6474,-0.15,0.175,
6475,-0.16,0.19,
6476,-0.145,0.18,
6477,-0.135,0.18,
6478,-0.145,0.175,
6479,-0.15,0.155,
6480,-0.17,0.17,
6481,-0.165,0.185,
6482,-0.155,0.17,
6483,-0.155,0.17,
6484,-0.17,0.17,
6485,-0.185,0.15,
6486,-0.19,0.15,
6487,-0.185,0.145,
6488,-0.185,0.16,
6489,-0.185,0.145,
6490,-0.19,0.135,
6491,-0.185,0.12,
6492,-0.185,0.12,
6493,-0.175,0.115,
6494,-0.185,0.14,
6495,-0.185,0.155,
6496,-0.185,0.145,
6497,-0.185,0.14,
6498,-0.195,0.16,
6499,-0.18,0.18,
6500,-0.17,0.185,
6501,-0.18,0.185,
6502,-0.185,0.17,
6503,-0.19,0.18,
6504,-0.19,0.195,
6505,-0.18,0.2,
6506,-0.18,0.22,
6507,-0.175,0.22,
6508,-0.185,0.205,
6509,-0.18,0.205,
6510,-0.205,0.2,
6511,-0.195,0.21,
6512,-0.2,0.2,
6513,-0.22,0.2,
6514,-0.27,0.17,
6515,-0.275,0.15,
6516,-0.23,0.115,
6517,-0.185,0.105,
6518,-0.14,0.095,
6519,-0.085,0.065,
6520,-0.06,0.05,
6521,-0.09,0.05,
6522,-0.17,0.1,
6523,-0.295,0.165,
6524,-0.41,0.22,
6525,-0.485,0.24,
6526,-0.54,0.275,
6527,-0.57,0.28,
6528,-0.58,0.325,
6529,-0.595,0.33,
6530,-0.58,0.33,
6531,-0.59,0.32,V
6532,-0.58,0.315,
6533,-0.555,0.3,
6534,-0.52,0.305,
6535,-0.495,0.345,
6536,-0.475,0.425,
6537,-0.47,0.495,
6538,-0.5,0.53,
6539,-0.495,0.57,
6540,-0.49,0.585,
6541,-0.47,0.625,
6542,-0.45,0.645,
6543,-0.44,0.67,
6544,-0.435,0.665,
6545,-0.445,0.695,
6546,-0.395,0.675,
6547,-0.33,0.585,
6548,-0.26,0.49,
6549,-0.22,0.375,
6550,-0.22,0.275,
6551,-0.215,0.205,
6552,-0.215,0.155,
6553,-0.2,0.155,
6554,-0.18,0.165,
6555,-0.15,0.165,
6556,-0.18,0.155,
6557,-0.18,0.125,
6558,-0.185,0.135,
6559,-0.155,0.145,
6560,-0.145,0.155,
6561,-0.13,0.14,
6562,-0.125,0.13,
6563,-0.15,0.105,
6564,-0.16,0.11,
6565,-0.13,0.11,
6566,-0.11,0.1,
6567,-0.11,0.09,
6568,-0.115,0.075,
6569,-0.125,0.055,
6570,-0.12,0.055,
6571,-0.105,0.055,
6572,-0.08,0.055,
6573,-0.08,0.035,
6574,-0.075,0.0,
6575,-0.08,-0.025,
6576,-0.06,-0.03,
6577,-0.045,-0.04,
6578,-0.03,-0.045,
6579,-0.01,-0.055,
6580,-0.015,-0.06,
6581,-0.005,-0.07,
6582,-0.005,-0.08,
6583,0.025,-0.07,
6584,0.045,-0.075,
6585,0.06,-0.09,
6586,0.07,-0.095,
6587,0.075,-0.11,
6588,0.055,-0.11,
6589,0.075,-0.1,
6590,0.1,-0.09,
6591,0.125,-0.105,
6592,0.13,-0.115,
6593,0.12,-0.115,
6594,0.115,-0.105,
6595,0.13,-0.1,
6596,0.145,-0.08,
6597,0.14,-0.08,
6598,0.12,-0.1,
6599,0.11,-0.095,
6600,0.08,-0.085,
6601,0.08,-0.085,
6602,0.06,-0.07,
6603,0.06,-0.06,
6604,0.025,-0.07,
6605,-0.01,-0.07,
6606,-0.01,-0.055,
6607,-0.01,-0.04,
6608,-0.015,-0.04,
6609,-0.035,-0.035,
6610,-0.05,-0.035,
6611,-0.07,-0.06,
6612,-0.09,-0.045,
6613,-0.105,-0.045,
6614,-0.115,-0.01,
6615,-0.115,-0.015,
6616,-0.125,-0.02,
6617,-0.125,-0.02,
6618,-0.155,-0.015,
6619,-0.15,0.02,
6620,-0.145,0.035,
6621,-0.14,0.045,
6622,-0.145,0.035,
6623,-0.16,0.045,
6624,-0.165,0.055,
6625,-0.17,0.075,
6626,-0.155,0.085,
6627,-0.15,0.08,
6628,-0.155,0.08,
6629,-0.17,0.075,
6630,-0.19,0.075,
6631,-0.195,0.09,
6632,-0.195,0.105,
6633,-0.185,0.085,
6634,-0.185,0.08,
6635,-0.19,0.09,
6636,-0.2,0.095,
6637,-0.2,0.095,
6638,-0.19,0.115,
6639,-0.2,0.105,
6640,-0.2,0.1,
6641,-0.205,0.105,
6642,-0.22,0.11,
6643,-0.21,0.135,
6644,-0.21,0.135,
6645,-0.225,0.135,
6646,-0.235,0.125,
6647,-0.24,0.115,
6648,-0.24,0.12,
6649,-0.24,0.11,
6650,-0.235,0.125,
6651,-0.25,0.12,
6652,-0.24,0.125,
6653,-0.25,0.125,
6654,-0.245,0.15,
6655,-0.23,0.145,
6656,-0.215,0.155,
6657,-0.23,0.145,
6658,-0.23,0.13,
6659,-0.24,0.115,
6660,-0.23,0.135,
6661,-0.215,0.13,
6662,-0.215,0.14,
6663,-0.225,0.145,
6664,-0.23,0.125,
6665,-0.24,0.11,
6666,-0.245,0.13,
6667,-0.225,0.13,
6668,-0.215,0.14,
6669,-0.21,0.145,
6670,-0.22,0.16,
6671,-0.22,0.145,
6672,-0.225,0.14,
6673,-0.215,0.155,
6674,-0.2,0.155,
6675,-0.205,0.16,
6676,-0.225,0.135,
6677,-0.225,0.135,
6678,-0.23,0.15,
6679,-0.22,0.15,
6680,-0.21,0.17,
6681,-0.225,0.16,
6682,-0.235,0.135,
6683,-0.235,0.125,
6684,-0.225,0.125,
6685,-0.22,0.125,
6686,-0.23,0.14,
6687,-0.23,0.12,
6688,-0.24,0.1,
6689,-0.245,0.09,
6690,-0.245,0.09,
6691,-0.245,0.095,
6692,-0.245,0.1,
6693,-0.25,0.1,
6694,-0.29,0.09,
6695,-0.265,0.085,
6696,-0.265,0.085,
6697,-0.27,0.08,
6698,-0.25,0.1,
6699,-0.26,0.085,
6700,-0.26,0.075,
6701,-0.27,0.07,
6702,-0.27,0.085,
6703,-0.255,0.095,
6704,-0.25,0.115,
6705,-0.25,0.125,
6706,-0.25,0.1,
6707,-0.255,0.105,
6708,-0.26,0.115,
6709,-0.235,0.13,
6710,-0.235,0.135,
6711,-0.23,0.135,
6712,-0.23,0.125,
6713,-0.245,0.115,
6714,-0.245,0.12,
6715,-0.24,0.125,
6716,-0.23,0.145,
6717,-0.22,0.135,
6718,-0.235,0.13,
6719,-0.22,0.13,
6720,-0.23,0.14,
6721,-0.205,0.135,
6722,-0.195,0.155,
6723,-0.205,0.16,
6724,-0.21,0.16,
6725,-0.215,0.135,
6726,-0.21,0.145,
6727,-0.185,0.155,
6728,-0.165,0.155,
6729,-0.14,0.145,
6730,-0.09,0.12,
6731,-0.015,0.095,
6732,0.085,0.075,
6733,0.205,0.07,
6734,0.31,0.055,
6735,0.4,0.015,
6736,0.5,-0.025,
6737,0.59,-0.055,
6738,0.66,-0.08,
6739,0.73,-0.1,
6740,0.74,-0.13,N
6741,0.725,-0.155,
