,MLII,V1,symbol
0,-0.01,-0.615,
1,-0.01,-0.615,
2,-0.01,-0.615,
3,-0.01,-0.615,
4,-0.01,-0.615,
5,-0.01,-0.615,
6,-0.01,-0.615,
7,-0.01,-0.615,
8,-0.01,-0.62,
9,-0.035,-0.61,
10,-0.07,-0.595,
11,-0.1,-0.555,
12,-0.125,-0.555,
13,-0.15,-0.53,
14,-0.16,-0.525,
15,-0.175,-0.525,
16,-0.18,-0.51,
17,-0.195,-0.505,
18,-0.225,-0.495,+
19,-0.255,-0.485,
20,-0.31,-0.485,
21,-0.34,-0.48,
22,-0.37,-0.485,
23,-0.385,-0.475,
24,-0.4,-0.475,
25,-0.405,-0.44,
26,-0.395,-0.39,
27,-0.395,-0.37,
28,-0.39,-0.35,
29,-0.395,-0.325,
30,-0.385,-0.305,
31,-0.39,-0.29,
32,-0.395,-0.265,
33,-0.395,-0.255,
34,-0.415,-0.26,
35,-0.41,-0.26,
36,-0.4,-0.27,
37,-0.355,-0.305,
38,-0.32,-0.33,
39,-0.275,-0.35,
40,-0.215,-0.37,
41,-0.16,-0.42,
42,-0.135,-0.45,
43,-0.12,-0.49,
44,-0.115,-0.525,
45,-0.105,-0.55,
46,-0.09,-0.57,
47,-0.08,-0.58,
48,-0.075,-0.58,
49,-0.05,-0.57,
50,-0.055,-0.585,
51,-0.085,-0.58,
52,-0.13,-0.595,
53,-0.19,-0.605,
54,-0.265,-0.605,
55,-0.325,-0.64,
56,-0.38,-0.665,
57,-0.425,-0.675,
58,-0.45,-0.7,
59,-0.465,-0.69,
60,-0.5,-0.68,
61,-0.5,-0.66,
62,-0.5,-0.675,
63,-0.49,-0.665,
64,-0.475,-0.66,
65,-0.47,-0.67,
66,-0.475,-0.69,
67,-0.485,-0.71,
68,-0.485,-0.705,
69,-0.505,-0.705,
70,-0.505,-0.7,
71,-0.51,-0.69,
72,-0.495,-0.69,
73,-0.49,-0.69,
74,-0.485,-0.685,
75,-0.48,-0.68,
76,-0.5,-0.675,
77,-0.505,-0.675,
78,-0.5,-0.65,
79,-0.49,-0.64,
80,-0.49,-0.61,
81,-0.485,-0.57,
82,-0.505,-0.53,
83,-0.53,-0.52,
84,-0.56,-0.585,
85,-0.56,-0.775,
86,-0.505,-1.065,
87,-0.38,-1.455,
88,-0.175,-1.87,
89,0.105,-2.24,
90,0.445,-2.505,
91,0.815,-2.68,
92,1.215,-2.74,
93,1.575,-2.735,
94,1.855,-2.7,
95,1.965,-2.65,N
96,1.88,-2.6,
97,1.62,-2.545,
98,1.26,-2.465,
99,0.86,-2.37,
100,0.43,-2.205,
101,0.01,-1.965,
102,-0.375,-1.655,
103,-0.72,-1.38,
104,-1.01,-1.16,
105,-1.21,-1.03,
106,-1.325,-0.97,
107,-1.32,-0.93,
108,-1.23,-0.915,
109,-1.1,-0.88,
110,-0.96,-0.86,
111,-0.845,-0.82,
112,-0.78,-0.785,
113,-0.75,-0.765,
114,-0.76,-0.755,
115,-0.8,-0.75,
116,-0.85,-0.76,
117,-0.885,-0.765,
118,-0.905,-0.76,
119,-0.9,-0.745,
120,-0.905,-0.73,
121,-0.895,-0.715,
122,-0.905,-0.705,
123,-0.92,-0.685,
124,-0.93,-0.665,
125,-0.935,-0.665,
126,-0.93,-0.65,
127,-0.92,-0.66,
128,-0.91,-0.655,
129,-0.905,-0.645,
130,-0.92,-0.65,
131,-0.925,-0.64,
132,-0.94,-0.615,
133,-0.94,-0.61,
134,-0.935,-0.59,
135,-0.93,-0.58,
136,-0.915,-0.555,
137,-0.9,-0.53,
138,-0.885,-0.51,
139,-0.89,-0.51,
140,-0.905,-0.505,
141,-0.91,-0.505,
142,-0.905,-0.49,
143,-0.885,-0.46,
144,-0.85,-0.44,
145,-0.815,-0.405,
146,-0.795,-0.385,
147,-0.775,-0.365,
148,-0.77,-0.355,
149,-0.755,-0.345,
150,-0.73,-0.33,
151,-0.71,-0.345,
152,-0.675,-0.315,
153,-0.64,-0.315,
154,-0.615,-0.31,
155,-0.585,-0.28,
156,-0.56,-0.28,
157,-0.54,-0.26,
158,-0.515,-0.255,
159,-0.48,-0.25,
160,-0.44,-0.235,
161,-0.395,-0.235,
162,-0.355,-0.225,
163,-0.33,-0.22,
164,-0.3,-0.225,
165,-0.28,-0.24,
166,-0.26,-0.255,
167,-0.24,-0.26,
168,-0.21,-0.27,
169,-0.155,-0.27,
170,-0.105,-0.26,
171,-0.06,-0.255,
172,-0.025,-0.27,
173,0.01,-0.275,
174,0.045,-0.3,
175,0.07,-0.315,
176,0.1,-0.35,
177,0.15,-0.385,
178,0.18,-0.4,
179,0.22,-0.41,
180,0.255,-0.42,
181,0.275,-0.41,
182,0.3,-0.39,
183,0.31,-0.375,
184,0.325,-0.36,
185,0.36,-0.355,
186,0.39,-0.35,
187,0.4,-0.33,
188,0.38,-0.33,
189,0.365,-0.32,
190,0.335,-0.325,
191,0.3,-0.335,
192,0.275,-0.35,
193,0.25,-0.375,
194,0.23,-0.375,
195,0.185,-0.38,
196,0.125,-0.37,
197,0.09,-0.355,
198,0.035,-0.335,
199,-0.01,-0.33,
200,-0.065,-0.31,
201,-0.105,-0.29,
202,-0.145,-0.27,
203,-0.175,-0.245,
204,-0.205,-0.215,
205,-0.23,-0.205,
206,-0.255,-0.2,
207,-0.265,-0.21,
208,-0.275,-0.225,
209,-0.275,-0.26,
210,-0.265,-0.295,
211,-0.265,-0.335,
212,-0.275,-0.37,
213,-0.315,-0.375,
214,-0.355,-0.405,
215,-0.405,-0.4,
216,-0.445,-0.41,
217,-0.455,-0.425,
218,-0.47,-0.43,
219,-0.475,-0.455,
220,-0.49,-0.475,
221,-0.5,-0.49,
222,-0.515,-0.505,
223,-0.525,-0.51,
224,-0.555,-0.52,
225,-0.55,-0.535,
226,-0.555,-0.545,
227,-0.555,-0.57,
228,-0.55,-0.575,
229,-0.545,-0.575,
230,-0.54,-0.57,
231,-0.53,-0.58,
232,-0.515,-0.58,
233,-0.505,-0.575,
234,-0.49,-0.59,
235,-0.475,-0.585,
236,-0.465,-0.595,
237,-0.48,-0.565,
238,-0.49,-0.555,
239,-0.52,-0.545,
240,-0.54,-0.555,
241,-0.55,-0.625,
242,-0.535,-0.775,
243,-0.48,-1.03,
244,-0.375,-1.325,
245,-0.21,-1.655,
246,0.005,-1.955,
247,0.29,-2.2,
248,0.655,-2.37,
249,1.08,-2.455,
250,1.51,-2.505,
251,1.865,-2.525,
252,2.11,-2.53,
253,2.175,-2.52,N
254,2.065,-2.53,
255,1.815,-2.53,
256,1.51,-2.5,
257,1.155,-2.41,
258,0.775,-2.195,
259,0.41,-1.89,
260,0.045,-1.55,
261,-0.36,-1.26,
262,-0.72,-1.065,
263,-1.0,-0.945,
264,-1.14,-0.895,
265,-1.165,-0.88,
266,-1.06,-0.87,
267,-0.92,-0.855,
268,-0.795,-0.825,
269,-0.715,-0.815,
270,-0.705,-0.795,
271,-0.745,-0.795,
272,-0.8,-0.79,
273,-0.87,-0.8,
274,-0.895,-0.785,
275,-0.91,-0.78,
276,-0.93,-0.755,
277,-0.91,-0.735,
278,-0.905,-0.72,
279,-0.92,-0.705,
280,-0.93,-0.69,
281,-0.95,-0.675,
282,-0.955,-0.66,
283,-0.975,-0.645,
284,-0.99,-0.63,
285,-1.025,-0.625,
286,-1.04,-0.625,
287,-1.065,-0.62,
288,-1.07,-0.605,
289,-1.08,-0.59,
290,-1.065,-0.56,
291,-1.055,-0.54,
292,-1.05,-0.51,
293,-1.045,-0.495,
294,-1.065,-0.495,
295,-1.065,-0.485,
296,-1.09,-0.49,
297,-1.105,-0.48,
298,-1.11,-0.445,
299,-1.1,-0.43,
300,-1.1,-0.405,
301,-1.1,-0.38,
302,-1.075,-0.36,
303,-1.065,-0.355,
304,-1.045,-0.345,
305,-1.025,-0.345,
306,-1.0,-0.32,
307,-0.98,-0.325,
308,-0.945,-0.3,
309,-0.915,-0.305,
310,-0.895,-0.295,
311,-0.88,-0.305,
312,-0.85,-0.315,
313,-0.805,-0.32,
314,-0.75,-0.31,
315,-0.695,-0.305,
316,-0.63,-0.29,
317,-0.59,-0.3,
318,-0.55,-0.29,
319,-0.515,-0.31,
320,-0.505,-0.355,
321,-0.45,-0.38,
322,-0.4,-0.4,
323,-0.365,-0.41,
324,-0.315,-0.425,
325,-0.275,-0.44,
326,-0.23,-0.44,
327,-0.185,-0.46,
328,-0.145,-0.485,
329,-0.105,-0.5,
330,-0.06,-0.53,
331,-0.02,-0.54,
332,0.0,-0.56,
333,-0.015,-0.56,
334,-0.015,-0.565,
335,-0.02,-0.56,
336,-0.015,-0.575,
337,-0.005,-0.58,
338,0.0,-0.585,
339,0.0,-0.585,
340,-0.005,-0.57,
341,-0.015,-0.57,
342,-0.04,-0.575,
343,-0.075,-0.575,
344,-0.09,-0.59,
345,-0.11,-0.595,
346,-0.135,-0.61,
347,-0.17,-0.6,
348,-0.195,-0.59,
349,-0.205,-0.575,
350,-0.24,-0.555,
351,-0.245,-0.54,
352,-0.25,-0.525,
353,-0.25,-0.535,
354,-0.26,-0.555,
355,-0.295,-0.545,
356,-0.325,-0.53,
357,-0.355,-0.525,
358,-0.39,-0.52,
359,-0.41,-0.495,
360,-0.43,-0.48,
361,-0.435,-0.465,
362,-0.455,-0.455,
363,-0.46,-0.44,
364,-0.495,-0.425,
365,-0.49,-0.425,
366,-0.515,-0.42,
367,-0.53,-0.42,
368,-0.545,-0.435,
369,-0.555,-0.455,
370,-0.575,-0.445,
371,-0.575,-0.45,
372,-0.6,-0.45,
373,-0.6,-0.45,
374,-0.605,-0.445,
375,-0.605,-0.455,
376,-0.585,-0.455,
377,-0.555,-0.455,
378,-0.555,-0.465,
379,-0.555,-0.475,
380,-0.565,-0.475,
381,-0.59,-0.485,
382,-0.6,-0.485,
383,-0.6,-0.5,
384,-0.605,-0.515,
385,-0.595,-0.515,
386,-0.595,-0.52,
387,-0.575,-0.52,
388,-0.595,-0.515,
389,-0.59,-0.5,
390,-0.585,-0.505,
391,-0.59,-0.51,
392,-0.6,-0.51,
393,-0.6,-0.52,
394,-0.595,-0.535,
395,-0.605,-0.555,
396,-0.63,-0.56,
397,-0.63,-0.54,
398,-0.625,-0.535,
399,-0.595,-0.53,
400,-0.58,-0.525,
401,-0.56,-0.515,
402,-0.565,-0.525,
403,-0.575,-0.535,
404,-0.6,-0.535,
405,-0.62,-0.55,
406,-0.64,-0.545,
407,-0.615,-0.535,
408,-0.61,-0.52,
409,-0.6,-0.49,
410,-0.58,-0.465,
411,-0.575,-0.435,
412,-0.565,-0.415,
413,-0.555,-0.37,
414,-0.55,-0.325,
415,-0.545,-0.28,
416,-0.555,-0.25,
417,-0.555,-0.23,
418,-0.545,-0.25,
419,-0.555,-0.285,
420,-0.55,-0.325,
421,-0.535,-0.365,
422,-0.495,-0.395,
423,-0.455,-0.405,
424,-0.405,-0.415,
425,-0.365,-0.43,
426,-0.34,-0.455,
427,-0.325,-0.475,
428,-0.32,-0.5,
429,-0.315,-0.53,
430,-0.315,-0.55,
431,-0.3,-0.545,
432,-0.29,-0.525,
433,-0.28,-0.525,
434,-0.285,-0.525,
435,-0.29,-0.54,
436,-0.305,-0.555,
437,-0.34,-0.59,
438,-0.39,-0.6,
439,-0.445,-0.625,
440,-0.5,-0.64,
441,-0.565,-0.64,
442,-0.615,-0.645,
443,-0.66,-0.635,
444,-0.695,-0.645,
445,-0.7,-0.65,
446,-0.68,-0.645,
447,-0.665,-0.63,
448,-0.645,-0.62,
449,-0.625,-0.62,
450,-0.63,-0.62,
451,-0.63,-0.625,
452,-0.655,-0.63,
453,-0.665,-0.655,
454,-0.675,-0.66,
455,-0.68,-0.675,
456,-0.675,-0.665,
457,-0.665,-0.65,
458,-0.66,-0.635,
459,-0.66,-0.62,
460,-0.66,-0.605,
461,-0.66,-0.58,
462,-0.675,-0.565,
463,-0.665,-0.52,
464,-0.68,-0.475,
465,-0.685,-0.44,
466,-0.72,-0.475,
467,-0.745,-0.585,
468,-0.735,-0.805,
469,-0.67,-1.13,
470,-0.53,-1.51,
471,-0.295,-1.895,
472,-0.01,-2.235,
473,0.35,-2.505,
474,0.77,-2.685,
475,1.22,-2.77,
476,1.61,-2.79,
477,1.885,-2.77,
478,1.975,-2.72,N
479,1.865,-2.66,
480,1.58,-2.575,
481,1.195,-2.46,
482,0.755,-2.25,
483,0.31,-1.935,
484,-0.11,-1.56,
485,-0.52,-1.235,
486,-0.88,-1.0,
487,-1.15,-0.87,
488,-1.31,-0.83,
489,-1.32,-0.835,
490,-1.235,-0.845,
491,-1.11,-0.84,
492,-0.985,-0.845,
493,-0.895,-0.81,
494,-0.86,-0.795,
495,-0.875,-0.78,
496,-0.91,-0.755,
497,-0.955,-0.735,
498,-0.995,-0.715,
499,-1.02,-0.71,
500,-1.025,-0.71,
501,-1.02,-0.72,
502,-1.02,-0.72,
503,-1.03,-0.72,
504,-1.04,-0.695,
505,-1.055,-0.675,
506,-1.07,-0.64,
507,-1.08,-0.63,
508,-1.085,-0.605,
509,-1.085,-0.6,
510,-1.075,-0.6,
511,-1.08,-0.59,
512,-1.085,-0.585,
513,-1.1,-0.59,
514,-1.12,-0.575,
515,-1.125,-0.57,
516,-1.125,-0.545,
517,-1.125,-0.54,
518,-1.11,-0.54,
519,-1.085,-0.525,
520,-1.065,-0.49,
521,-1.085,-0.47,
522,-1.07,-0.47,
523,-1.05,-0.46,
524,-1.045,-0.445,
525,-1.03,-0.45,
526,-1.025,-0.46,
527,-1.005,-0.44,
528,-0.99,-0.42,
529,-0.99,-0.4,
530,-0.975,-0.37,
531,-0.95,-0.33,
532,-0.92,-0.305,
533,-0.89,-0.3,
534,-0.855,-0.285,
535,-0.82,-0.28,
536,-0.825,-0.285,
537,-0.805,-0.265,
538,-0.795,-0.245,
539,-0.77,-0.215,
540,-0.75,-0.19,
541,-0.705,-0.18,
542,-0.645,-0.145,
543,-0.615,-0.14,
544,-0.58,-0.12,
545,-0.545,-0.115,
546,-0.51,-0.105,
547,-0.485,-0.1,
548,-0.44,-0.09,
549,-0.4,-0.095,
550,-0.375,-0.09,
551,-0.345,-0.08,
552,-0.315,-0.07,
553,-0.295,-0.07,
554,-0.265,-0.075,
555,-0.22,-0.055,
556,-0.175,-0.045,
557,-0.13,-0.045,
558,-0.085,-0.05,
559,-0.055,-0.06,
560,-0.02,-0.085,
561,0.0,-0.1,
562,0.015,-0.11,
563,0.03,-0.12,
564,0.055,-0.14,
565,0.085,-0.155,
566,0.135,-0.17,
567,0.14,-0.19,
568,0.18,-0.215,
569,0.185,-0.225,
570,0.19,-0.275,
571,0.185,-0.285,
572,0.2,-0.325,
573,0.22,-0.34,
574,0.215,-0.375,
575,0.215,-0.395,
576,0.195,-0.405,
577,0.19,-0.42,
578,0.165,-0.435,
579,0.155,-0.425,
580,0.15,-0.425,
581,0.155,-0.435,
582,0.125,-0.445,
583,0.105,-0.45,
584,0.085,-0.47,
585,0.045,-0.485,
586,0.0,-0.485,
587,-0.035,-0.49,
588,-0.05,-0.47,
589,-0.09,-0.45,
590,-0.105,-0.45,
591,-0.13,-0.43,
592,-0.145,-0.44,
593,-0.17,-0.445,
594,-0.205,-0.44,
595,-0.235,-0.435,
596,-0.265,-0.435,
597,-0.275,-0.43,
598,-0.3,-0.435,
599,-0.32,-0.435,
600,-0.35,-0.42,
601,-0.36,-0.42,
602,-0.375,-0.41,
603,-0.38,-0.395,
604,-0.36,-0.37,
605,-0.345,-0.34,
606,-0.345,-0.32,
607,-0.335,-0.285,
608,-0.35,-0.27,
609,-0.375,-0.255,
610,-0.39,-0.255,
611,-0.4,-0.255,
612,-0.39,-0.255,
613,-0.37,-0.27,
614,-0.34,-0.28,
615,-0.31,-0.295,
616,-0.285,-0.32,
617,-0.25,-0.355,
618,-0.23,-0.4,
619,-0.215,-0.44,
620,-0.2,-0.5,
621,-0.18,-0.52,
622,-0.16,-0.53,
623,-0.155,-0.54,
624,-0.15,-0.535,
625,-0.145,-0.545,
626,-0.15,-0.545,
627,-0.14,-0.55,
628,-0.145,-0.55,
629,-0.16,-0.57,
630,-0.2,-0.58,
631,-0.25,-0.59,
632,-0.315,-0.6,
633,-0.4,-0.61,
634,-0.455,-0.635,
635,-0.505,-0.655,
636,-0.54,-0.67,
637,-0.55,-0.675,
638,-0.575,-0.675,
639,-0.56,-0.655,
640,-0.565,-0.65,
641,-0.57,-0.645,
642,-0.565,-0.66,
643,-0.57,-0.665,
644,-0.58,-0.68,
645,-0.575,-0.695,
646,-0.58,-0.7,
647,-0.585,-0.705,
648,-0.605,-0.69,
649,-0.605,-0.685,
650,-0.595,-0.69,
651,-0.585,-0.695,
652,-0.57,-0.685,
653,-0.565,-0.7,
654,-0.545,-0.7,
655,-0.545,-0.685,
656,-0.555,-0.665,
657,-0.565,-0.64,
658,-0.585,-0.595,
659,-0.595,-0.56,
660,-0.61,-0.52,
661,-0.62,-0.545,
662,-0.63,-0.635,
663,-0.62,-0.825,
664,-0.555,-1.105,
665,-0.415,-1.465,
666,-0.21,-1.87,
667,0.035,-2.24,
668,0.345,-2.545,
669,0.69,-2.78,
670,1.06,-2.895,
671,1.43,-2.94,
672,1.745,-2.93,
673,1.9,-2.885,N
674,1.85,-2.815,
675,1.635,-2.745,
676,1.29,-2.665,
677,0.855,-2.55,
678,0.395,-2.335,
679,-0.045,-1.995,
680,-0.445,-1.61,
681,-0.77,-1.28,
682,-1.04,-1.065,
683,-1.22,-0.945,
684,-1.31,-0.89,
685,-1.3,-0.9,
686,-1.19,-0.9,
687,-1.06,-0.895,
688,-0.93,-0.875,
689,-0.845,-0.85,
690,-0.805,-0.84,
691,-0.82,-0.825,
692,-0.845,-0.82,
693,-0.885,-0.81,
694,-0.92,-0.8,
695,-0.95,-0.81,
696,-0.965,-0.8,
697,-0.975,-0.77,
698,-0.99,-0.765,
699,-0.98,-0.75,
700,-0.985,-0.735,
701,-0.965,-0.725,
702,-0.965,-0.725,
703,-0.965,-0.72,
704,-0.985,-0.71,
705,-0.995,-0.71,
706,-1.03,-0.695,
707,-1.05,-0.68,
708,-1.06,-0.665,
709,-1.055,-0.67,
710,-1.06,-0.64,
711,-1.055,-0.62,
712,-1.065,-0.625,
713,-1.055,-0.605,
714,-1.06,-0.605,
715,-1.06,-0.59,
716,-1.055,-0.57,
717,-1.045,-0.56,
718,-1.04,-0.56,
719,-1.05,-0.55,
720,-1.055,-0.54,
721,-1.06,-0.51,
722,-1.055,-0.505,
723,-1.035,-0.47,
724,-1.015,-0.45,
725,-0.995,-0.425,
726,-0.955,-0.41,
727,-0.925,-0.405,
728,-0.91,-0.4,
729,-0.91,-0.395,
730,-0.875,-0.39,
731,-0.87,-0.375,
732,-0.835,-0.365,
733,-0.795,-0.33,
734,-0.745,-0.305,
735,-0.705,-0.295,
736,-0.655,-0.28,
737,-0.635,-0.265,
738,-0.6,-0.26,
739,-0.57,-0.255,
740,-0.535,-0.25,
741,-0.505,-0.245,
742,-0.46,-0.225,
743,-0.41,-0.23,
744,-0.37,-0.215,
745,-0.335,-0.22,
746,-0.285,-0.22,
747,-0.245,-0.225,
748,-0.205,-0.235,
749,-0.155,-0.235,
750,-0.105,-0.24,
751,-0.055,-0.24,
752,-0.025,-0.245,
753,0.0,-0.245,
754,0.02,-0.265,
755,0.04,-0.29,
756,0.06,-0.315,
757,0.09,-0.345,
758,0.12,-0.35,
759,0.155,-0.35,
760,0.185,-0.35,
761,0.21,-0.35,
762,0.21,-0.37,
763,0.2,-0.395,
764,0.21,-0.41,
765,0.185,-0.44,
766,0.2,-0.46,
767,0.195,-0.47,
768,0.19,-0.465,
769,0.19,-0.485,
770,0.17,-0.5,
771,0.16,-0.515,
772,0.14,-0.515,
773,0.135,-0.525,
774,0.12,-0.555,
775,0.1,-0.555,
776,0.095,-0.56,
777,0.075,-0.565,
778,0.04,-0.58,
779,0.005,-0.585,
780,-0.025,-0.59,
781,-0.05,-0.585,
782,-0.075,-0.575,
783,-0.08,-0.565,
784,-0.095,-0.555,
785,-0.095,-0.54,
786,-0.115,-0.545,
787,-0.145,-0.53,
788,-0.18,-0.53,
789,-0.21,-0.55,
790,-0.245,-0.545,
791,-0.27,-0.54,
792,-0.275,-0.53,
793,-0.305,-0.515,
794,-0.325,-0.495,
795,-0.345,-0.475,
796,-0.365,-0.455,
797,-0.38,-0.445,
798,-0.39,-0.445,
799,-0.4,-0.45,
800,-0.41,-0.445,
801,-0.42,-0.425,
802,-0.435,-0.4,
803,-0.445,-0.38,
804,-0.47,-0.355,
805,-0.485,-0.33,
806,-0.49,-0.305,
807,-0.495,-0.27,
808,-0.485,-0.25,
809,-0.475,-0.26,
810,-0.45,-0.27,
811,-0.435,-0.295,
812,-0.43,-0.325,
813,-0.41,-0.37,
814,-0.385,-0.405,
815,-0.345,-0.445,
816,-0.32,-0.47,
817,-0.29,-0.505,
818,-0.26,-0.535,
819,-0.24,-0.555,
820,-0.225,-0.55,
821,-0.215,-0.555,
822,-0.195,-0.57,
823,-0.19,-0.585,
824,-0.185,-0.595,
825,-0.19,-0.62,
826,-0.195,-0.615,
827,-0.215,-0.64,
828,-0.26,-0.64,
829,-0.32,-0.645,
830,-0.375,-0.645,
831,-0.435,-0.645,
832,-0.47,-0.65,
833,-0.505,-0.655,
834,-0.54,-0.67,
835,-0.57,-0.685,
836,-0.59,-0.695,
837,-0.62,-0.715,
838,-0.63,-0.72,
839,-0.63,-0.73,
840,-0.635,-0.72,
841,-0.61,-0.715,
842,-0.6,-0.705,
843,-0.595,-0.715,
844,-0.58,-0.705,
845,-0.59,-0.695,
846,-0.595,-0.7,
847,-0.61,-0.69,
848,-0.605,-0.72,
849,-0.615,-0.73,
850,-0.61,-0.735,
851,-0.595,-0.76,
852,-0.595,-0.745,
853,-0.595,-0.75,
854,-0.59,-0.735,
855,-0.59,-0.72,
856,-0.58,-0.685,
857,-0.57,-0.63,
858,-0.565,-0.605,
859,-0.57,-0.56,
860,-0.585,-0.565,
861,-0.605,-0.655,
862,-0.605,-0.835,
863,-0.58,-1.145,
864,-0.46,-1.535,
865,-0.27,-1.965,
866,-0.025,-2.34,
867,0.295,-2.645,
868,0.695,-2.855,
869,1.095,-2.975,
870,1.495,-3.035,
871,1.82,-3.04,
872,2.025,-3.04,
873,2.055,-3.025,N
874,1.89,-2.995,
875,1.585,-2.95,
876,1.175,-2.895,
877,0.72,-2.795,
878,0.265,-2.605,
879,-0.14,-2.29,
880,-0.485,-1.9,
881,-0.77,-1.51,
882,-0.985,-1.205,
883,-1.125,-1.03,
884,-1.185,-0.955,
885,-1.155,-0.965,
886,-1.075,-0.985,
887,-0.975,-0.995,
888,-0.865,-0.995,
889,-0.775,-0.955,
890,-0.72,-0.925,
891,-0.73,-0.89,
892,-0.73,-0.865,
893,-0.755,-0.86,
894,-0.78,-0.845,
895,-0.8,-0.84,
896,-0.82,-0.85,
897,-0.85,-0.86,
898,-0.865,-0.845,
899,-0.865,-0.825,
900,-0.86,-0.805,
901,-0.855,-0.79,
902,-0.855,-0.765,
903,-0.855,-0.745,
904,-0.85,-0.745,
905,-0.86,-0.735,
906,-0.86,-0.72,
907,-0.865,-0.7,
908,-0.885,-0.7,
909,-0.88,-0.69,
910,-0.885,-0.685,
911,-0.89,-0.675,
912,-0.905,-0.66,
913,-0.91,-0.66,
914,-0.915,-0.64,
915,-0.915,-0.625,
916,-0.91,-0.6,
917,-0.89,-0.565,
918,-0.875,-0.56,
919,-0.86,-0.545,
920,-0.855,-0.54,
921,-0.87,-0.55,
922,-0.87,-0.545,
923,-0.86,-0.545,
924,-0.845,-0.52,
925,-0.825,-0.51,
926,-0.79,-0.48,
927,-0.76,-0.445,
928,-0.725,-0.415,
929,-0.7,-0.39,
930,-0.69,-0.38,
931,-0.665,-0.38,
932,-0.64,-0.38,
933,-0.61,-0.365,
934,-0.58,-0.355,
935,-0.55,-0.345,
936,-0.52,-0.315,
937,-0.485,-0.29,
938,-0.45,-0.27,
939,-0.42,-0.265,
940,-0.38,-0.255,
941,-0.345,-0.245,
942,-0.305,-0.25,
943,-0.27,-0.24,
944,-0.225,-0.23,
945,-0.21,-0.215,
946,-0.175,-0.235,
947,-0.15,-0.245,
948,-0.125,-0.235,
949,-0.085,-0.21,
950,-0.035,-0.22,
951,0.025,-0.225,
952,0.08,-0.2,
953,0.12,-0.2,
954,0.155,-0.215,
955,0.18,-0.235,
956,0.195,-0.25,
957,0.21,-0.27,
958,0.235,-0.295,
959,0.265,-0.335,
960,0.28,-0.34,
961,0.29,-0.345,
962,0.305,-0.365,
963,0.3,-0.36,
964,0.305,-0.375,
965,0.325,-0.395,
966,0.33,-0.435,
967,0.34,-0.45,
968,0.335,-0.47,
969,0.32,-0.485,
970,0.305,-0.505,
971,0.27,-0.525,
972,0.24,-0.525,
973,0.225,-0.53,
974,0.21,-0.525,
975,0.225,-0.555,
976,0.225,-0.56,
977,0.215,-0.565,
978,0.195,-0.58,
979,0.16,-0.575,
980,0.11,-0.58,
981,0.075,-0.605,
982,0.04,-0.61,
983,0.025,-0.63,
984,-0.005,-0.625,
985,-0.03,-0.62,
986,-0.045,-0.61,
987,-0.06,-0.59,
988,-0.065,-0.565,
989,-0.08,-0.565,
990,-0.115,-0.565,
991,-0.14,-0.565,
992,-0.16,-0.565,
993,-0.2,-0.57,
994,-0.235,-0.555,
995,-0.29,-0.55,
996,-0.315,-0.54,
997,-0.345,-0.525,
998,-0.37,-0.515,
999,-0.375,-0.51,
1000,-0.38,-0.495,
1001,-0.38,-0.51,
1002,-0.39,-0.48,
1003,-0.42,-0.475,
1004,-0.46,-0.46,
1005,-0.46,-0.45,
1006,-0.46,-0.45,
1007,-0.48,-0.425,
1008,-0.465,-0.41,
1009,-0.455,-0.4,
1010,-0.465,-0.37,
1011,-0.465,-0.345,
1012,-0.465,-0.305,
1013,-0.47,-0.29,
1014,-0.475,-0.285,
1015,-0.445,-0.3,
1016,-0.43,-0.325,
1017,-0.395,-0.35,
1018,-0.355,-0.37,
1019,-0.35,-0.375,
1020,-0.325,-0.38,
1021,-0.31,-0.385,
1022,-0.275,-0.415,
1023,-0.245,-0.44,
1024,-0.19,-0.48,
1025,-0.15,-0.525,
1026,-0.12,-0.555,
1027,-0.1,-0.59,
1028,-0.105,-0.595,
1029,-0.11,-0.595,
1030,-0.13,-0.605,
1031,-0.145,-0.6,
1032,-0.18,-0.605,
1033,-0.215,-0.62,
1034,-0.265,-0.625,
1035,-0.325,-0.64,
1036,-0.39,-0.63,
1037,-0.445,-0.655,
1038,-0.505,-0.655,
1039,-0.535,-0.665,
1040,-0.565,-0.665,
1041,-0.565,-0.68,
1042,-0.57,-0.705,
1043,-0.555,-0.705,
1044,-0.565,-0.72,
1045,-0.57,-0.715,
1046,-0.57,-0.715,
1047,-0.57,-0.705,
1048,-0.565,-0.68,
1049,-0.555,-0.685,
1050,-0.545,-0.685,
1051,-0.555,-0.705,
1052,-0.565,-0.715,
1053,-0.585,-0.73,
1054,-0.59,-0.74,
1055,-0.605,-0.735,
1056,-0.59,-0.735,
1057,-0.585,-0.7,
1058,-0.56,-0.685,
1059,-0.555,-0.645,
1060,-0.56,-0.59,
1061,-0.565,-0.54,
1062,-0.585,-0.495,
1063,-0.615,-0.485,
1064,-0.62,-0.555,
1065,-0.62,-0.715,
1066,-0.59,-1.02,
1067,-0.48,-1.38,
1068,-0.305,-1.765,
1069,-0.06,-2.1,
1070,0.2,-2.375,
1071,0.505,-2.53,
1072,0.855,-2.625,
1073,1.215,-2.655,
1074,1.56,-2.63,
1075,1.81,-2.6,
1076,1.88,-2.54,N
1077,1.76,-2.465,
1078,1.45,-2.405,
1079,1.015,-2.295,
1080,0.52,-2.14,
1081,0.035,-1.895,
1082,-0.39,-1.63,
1083,-0.76,-1.39,
1084,-1.055,-1.215,
1085,-1.31,-1.12,
1086,-1.46,-1.055,
1087,-1.5,-1.0,
1088,-1.43,-0.95,
1089,-1.305,-0.9,
1090,-1.15,-0.855,
1091,-1.015,-0.81,
1092,-0.93,-0.79,
1093,-0.905,-0.775,
1094,-0.91,-0.77,
1095,-0.915,-0.76,
1096,-0.935,-0.735,
1097,-0.945,-0.74,
1098,-0.97,-0.725,
1099,-0.98,-0.715,
1100,-0.995,-0.72,
1101,-1.01,-0.725,
1102,-1.015,-0.73,
1103,-1.01,-0.72,
1104,-1.015,-0.705,
1105,-1.02,-0.69,
1106,-1.015,-0.655,
1107,-1.025,-0.66,
1108,-1.025,-0.655,
1109,-1.025,-0.645,
1110,-1.02,-0.645,
1111,-1.015,-0.645,
1112,-1.015,-0.64,
1113,-1.015,-0.62,
1114,-1.02,-0.605,
1115,-1.025,-0.59,
1116,-1.045,-0.58,
1117,-1.03,-0.58,
1118,-1.02,-0.575,
1119,-1.0,-0.57,
1120,-0.975,-0.535,
1121,-0.96,-0.52,
1122,-0.945,-0.485,
1123,-0.935,-0.47,
1124,-0.935,-0.46,
1125,-0.935,-0.455,
1126,-0.91,-0.46,
1127,-0.885,-0.465,
1128,-0.855,-0.445,
1129,-0.82,-0.42,
1130,-0.79,-0.38,
1131,-0.775,-0.355,
1132,-0.745,-0.33,
1133,-0.72,-0.315,
1134,-0.695,-0.32,
1135,-0.675,-0.33,
1136,-0.625,-0.325,
1137,-0.605,-0.325,
1138,-0.595,-0.315,
1139,-0.575,-0.3,
1140,-0.56,-0.285,
1141,-0.53,-0.285,
1142,-0.47,-0.28,
1143,-0.43,-0.29,
1144,-0.375,-0.295,
1145,-0.335,-0.295,
1146,-0.295,-0.285,
1147,-0.27,-0.29,
1148,-0.25,-0.285,
1149,-0.22,-0.3,
1150,-0.18,-0.325,
1151,-0.14,-0.34,
1152,-0.115,-0.37,
1153,-0.065,-0.38,
1154,-0.025,-0.385,
1155,-0.015,-0.4,
1156,0.015,-0.395,
1157,0.03,-0.43,
1158,0.04,-0.445,
1159,0.05,-0.48,
1160,0.07,-0.515,
1161,0.085,-0.535,
1162,0.095,-0.55,
1163,0.095,-0.56,
1164,0.095,-0.57,
1165,0.095,-0.57,
1166,0.09,-0.565,
1167,0.11,-0.585,
1168,0.115,-0.585,
1169,0.105,-0.595,
1170,0.1,-0.605,
1171,0.07,-0.61,
1172,0.035,-0.64,
1173,0.005,-0.64,
1174,-0.03,-0.635,
1175,-0.06,-0.62,
1176,-0.08,-0.63,
1177,-0.1,-0.62,
1178,-0.1,-0.6,
1179,-0.13,-0.595,
1180,-0.15,-0.575,
1181,-0.185,-0.58,
1182,-0.215,-0.56,
1183,-0.255,-0.555,
1184,-0.28,-0.555,
1185,-0.29,-0.555,
1186,-0.31,-0.55,
1187,-0.345,-0.545,
1188,-0.375,-0.535,
1189,-0.385,-0.525,
1190,-0.415,-0.5,
1191,-0.44,-0.48,
1192,-0.435,-0.47,
1193,-0.45,-0.46,
1194,-0.465,-0.47,
1195,-0.49,-0.475,
1196,-0.52,-0.475,
1197,-0.545,-0.485,
1198,-0.585,-0.48,
1199,-0.595,-0.445,
1200,-0.605,-0.435,
1201,-0.59,-0.42,
1202,-0.575,-0.385,
1203,-0.58,-0.36,
1204,-0.57,-0.355,
1205,-0.57,-0.34,
1206,-0.57,-0.325,
1207,-0.575,-0.305,
1208,-0.58,-0.265,
1209,-0.57,-0.24,
1210,-0.565,-0.235,
1211,-0.555,-0.23,
1212,-0.55,-0.26,
1213,-0.525,-0.28,
1214,-0.515,-0.3,
1215,-0.475,-0.305,
1216,-0.42,-0.31,
1217,-0.385,-0.315,
1218,-0.335,-0.345,
1219,-0.32,-0.385,
1220,-0.3,-0.435,
1221,-0.305,-0.485,
1222,-0.31,-0.53,
1223,-0.305,-0.535,
1224,-0.285,-0.54,
1225,-0.265,-0.53,
1226,-0.25,-0.515,
1227,-0.255,-0.515,
1228,-0.265,-0.54,
1229,-0.3,-0.555,
1230,-0.35,-0.575,
1231,-0.42,-0.595,
1232,-0.485,-0.615,
1233,-0.535,-0.62,
1234,-0.58,-0.635,
1235,-0.62,-0.63,
1236,-0.66,-0.63,
1237,-0.67,-0.625,
1238,-0.675,-0.645,
1239,-0.675,-0.655,
1240,-0.67,-0.65,
1241,-0.655,-0.65,
1242,-0.66,-0.655,
1243,-0.645,-0.675,
1244,-0.67,-0.68,
1245,-0.695,-0.705,
1246,-0.695,-0.71,
1247,-0.705,-0.71,
1248,-0.71,-0.715,
1249,-0.685,-0.695,
1250,-0.67,-0.68,
1251,-0.665,-0.665,
1252,-0.66,-0.67,
1253,-0.67,-0.665,
1254,-0.675,-0.665,
1255,-0.675,-0.665,
1256,-0.675,-0.64,
1257,-0.685,-0.595,
1258,-0.685,-0.545,
1259,-0.715,-0.505,
1260,-0.735,-0.525,
1261,-0.755,-0.62,
1262,-0.75,-0.84,
1263,-0.69,-1.16,
1264,-0.55,-1.54,
1265,-0.33,-1.955,
1266,-0.035,-2.285,
1267,0.29,-2.51,
1268,0.655,-2.65,
1269,1.02,-2.715,
1270,1.36,-2.745,
1271,1.645,-2.735,
1272,1.825,-2.72,N
1273,1.86,-2.68,
1274,1.725,-2.61,
1275,1.43,-2.55,
1276,1.045,-2.45,
1277,0.605,-2.295,
1278,0.11,-2.06,
1279,-0.33,-1.75,
1280,-0.735,-1.47,
1281,-1.045,-1.235,
1282,-1.305,-1.085,
1283,-1.46,-0.985,
1284,-1.495,-0.94,
1285,-1.42,-0.915,
1286,-1.3,-0.895,
1287,-1.165,-0.89,
1288,-1.045,-0.845,
1289,-0.96,-0.835,
1290,-0.935,-0.815,
1291,-0.945,-0.805,
1292,-0.975,-0.79,
1293,-1.02,-0.78,
1294,-1.06,-0.785,
1295,-1.085,-0.77,
1296,-1.095,-0.775,
1297,-1.09,-0.76,
1298,-1.075,-0.76,
1299,-1.075,-0.73,
1300,-1.07,-0.72,
1301,-1.065,-0.7,
1302,-1.085,-0.695,
1303,-1.115,-0.7,
1304,-1.125,-0.695,
1305,-1.14,-0.705,
1306,-1.13,-0.71,
1307,-1.14,-0.685,
1308,-1.125,-0.675,
1309,-1.13,-0.645,
1310,-1.13,-0.625,
1311,-1.145,-0.615,
1312,-1.15,-0.6,
1313,-1.15,-0.6,
1314,-1.15,-0.6,
1315,-1.13,-0.59,
1316,-1.14,-0.58,
1317,-1.14,-0.565,
1318,-1.165,-0.555,
1319,-1.155,-0.545,
1320,-1.145,-0.51,
1321,-1.13,-0.5,
1322,-1.115,-0.48,
1323,-1.095,-0.47,
1324,-1.065,-0.455,
1325,-1.04,-0.445,
1326,-1.04,-0.44,
1327,-1.025,-0.415,
1328,-1.015,-0.41,
1329,-0.995,-0.39,
1330,-0.975,-0.395,
1331,-0.945,-0.38,
1332,-0.91,-0.36,
1333,-0.88,-0.345,
1334,-0.84,-0.325,
1335,-0.805,-0.3,
1336,-0.77,-0.27,
1337,-0.74,-0.275,
1338,-0.7,-0.28,
1339,-0.655,-0.28,
1340,-0.645,-0.285,
1341,-0.6,-0.29,
1342,-0.585,-0.295,
1343,-0.555,-0.3,
1344,-0.525,-0.285,
1345,-0.475,-0.28,
1346,-0.41,-0.27,
1347,-0.36,-0.265,
1348,-0.3,-0.28,
1349,-0.265,-0.29,
1350,-0.225,-0.305,
1351,-0.195,-0.315,
1352,-0.17,-0.34,
1353,-0.125,-0.36,
1354,-0.095,-0.375,
1355,-0.055,-0.4,
1356,-0.025,-0.41,
1357,0.005,-0.425,
1358,0.035,-0.43,
1359,0.03,-0.435,
1360,0.045,-0.45,
1361,0.06,-0.465,
1362,0.085,-0.475,
1363,0.1,-0.505,
1364,0.115,-0.525,
1365,0.115,-0.545,
1366,0.1,-0.57,
1367,0.085,-0.575,
1368,0.065,-0.575,
1369,0.055,-0.585,
1370,0.045,-0.58,
1371,0.04,-0.585,
1372,0.045,-0.575,
1373,0.045,-0.59,
1374,0.035,-0.605,
1375,0.0,-0.615,
1376,-0.03,-0.625,
1377,-0.065,-0.625,
1378,-0.1,-0.63,
1379,-0.12,-0.635,
1380,-0.145,-0.62,
1381,-0.155,-0.595,
1382,-0.185,-0.595,
1383,-0.195,-0.585,
1384,-0.22,-0.57,
1385,-0.26,-0.56,
1386,-0.28,-0.55,
1387,-0.315,-0.555,
1388,-0.33,-0.545,
1389,-0.365,-0.54,
1390,-0.39,-0.545,
1391,-0.42,-0.53,
1392,-0.455,-0.52,
1393,-0.475,-0.505,
1394,-0.505,-0.49,
1395,-0.505,-0.465,
1396,-0.51,-0.445,
1397,-0.51,-0.405,
1398,-0.51,-0.38,
1399,-0.52,-0.37,
1400,-0.54,-0.35,
1401,-0.545,-0.33,
1402,-0.565,-0.295,
1403,-0.56,-0.27,
1404,-0.565,-0.235,
1405,-0.55,-0.22,
1406,-0.54,-0.21,
1407,-0.535,-0.23,
1408,-0.52,-0.255,
1409,-0.495,-0.28,
1410,-0.455,-0.31,
1411,-0.415,-0.34,
1412,-0.38,-0.375,
1413,-0.36,-0.41,
1414,-0.325,-0.46,
1415,-0.32,-0.5,
1416,-0.315,-0.53,
1417,-0.29,-0.55,
1418,-0.27,-0.56,
1419,-0.24,-0.55,
1420,-0.215,-0.535,
1421,-0.225,-0.525,
1422,-0.235,-0.525,
1423,-0.285,-0.535,
1424,-0.34,-0.565,
1425,-0.405,-0.595,
1426,-0.47,-0.615,
1427,-0.535,-0.63,
1428,-0.595,-0.63,
1429,-0.625,-0.635,
1430,-0.67,-0.635,
1431,-0.71,-0.625,
1432,-0.705,-0.64,
1433,-0.71,-0.65,
1434,-0.705,-0.675,
1435,-0.705,-0.675,
1436,-0.7,-0.675,
1437,-0.7,-0.675,
1438,-0.72,-0.68,
1439,-0.735,-0.685,
1440,-0.75,-0.69,
1441,-0.75,-0.685,
1442,-0.74,-0.68,
1443,-0.72,-0.68,
1444,-0.695,-0.675,
1445,-0.68,-0.675,
1446,-0.685,-0.675,
1447,-0.69,-0.69,
1448,-0.71,-0.685,
1449,-0.705,-0.67,
1450,-0.72,-0.665,
1451,-0.71,-0.625,
1452,-0.74,-0.57,
1453,-0.74,-0.505,
1454,-0.755,-0.475,
1455,-0.78,-0.49,
1456,-0.79,-0.6,
1457,-0.75,-0.865,
1458,-0.645,-1.235,
1459,-0.48,-1.675,
1460,-0.24,-2.11,
1461,0.07,-2.47,
1462,0.43,-2.715,
1463,0.855,-2.865,
1464,1.27,-2.895,
1465,1.64,-2.89,
1466,1.82,-2.845,N
1467,1.76,-2.79,
1468,1.515,-2.73,
1469,1.135,-2.685,
1470,0.66,-2.615,
1471,0.2,-2.47,
1472,-0.23,-2.21,
1473,-0.59,-1.85,
1474,-0.89,-1.47,
1475,-1.14,-1.165,
1476,-1.315,-0.97,
1477,-1.405,-0.865,
1478,-1.395,-0.845,
1479,-1.3,-0.845,
1480,-1.16,-0.85,
1481,-1.02,-0.845,
1482,-0.935,-0.845,
1483,-0.91,-0.82,
1484,-0.935,-0.815,
1485,-0.975,-0.795,
1486,-1.025,-0.79,
1487,-1.08,-0.775,
1488,-1.095,-0.775,
1489,-1.09,-0.755,
1490,-1.07,-0.745,
1491,-1.065,-0.73,
1492,-1.055,-0.71,
1493,-1.05,-0.705,
1494,-1.075,-0.7,
1495,-1.095,-0.69,
1496,-1.105,-0.685,
1497,-1.125,-0.68,
1498,-1.135,-0.66,
1499,-1.135,-0.66,
1500,-1.145,-0.655,
1501,-1.15,-0.64,
1502,-1.175,-0.615,
1503,-1.17,-0.6,
1504,-1.16,-0.58,
1505,-1.15,-0.575,
1506,-1.145,-0.545,
1507,-1.135,-0.545,
1508,-1.15,-0.55,
1509,-1.15,-0.545,
1510,-1.17,-0.545,
1511,-1.175,-0.525,
1512,-1.175,-0.51,
1513,-1.155,-0.475,
1514,-1.125,-0.455,
1515,-1.105,-0.435,
1516,-1.085,-0.415,
1517,-1.07,-0.405,
1518,-1.065,-0.395,
1519,-1.045,-0.375,
1520,-1.03,-0.37,
1521,-1.0,-0.355,
1522,-0.97,-0.34,
1523,-0.94,-0.33,
1524,-0.905,-0.315,
1525,-0.875,-0.295,
1526,-0.835,-0.265,
1527,-0.77,-0.24,
1528,-0.715,-0.22,
1529,-0.665,-0.21,
1530,-0.61,-0.21,
1531,-0.575,-0.205,
1532,-0.545,-0.205,
1533,-0.51,-0.225,
1534,-0.48,-0.22,
1535,-0.435,-0.21,
1536,-0.39,-0.2,
1537,-0.335,-0.2,
1538,-0.285,-0.19,
1539,-0.255,-0.21,
1540,-0.215,-0.23,
1541,-0.175,-0.24,
1542,-0.105,-0.265,
1543,-0.06,-0.27,
1544,-0.025,-0.285,
1545,0.015,-0.305,
1546,0.02,-0.34,
1547,0.03,-0.355,
1548,0.035,-0.38,
1549,0.055,-0.385,
1550,0.055,-0.39,
1551,0.095,-0.405,
1552,0.11,-0.395,
1553,0.115,-0.41,
1554,0.115,-0.435,
1555,0.085,-0.46,
1556,0.06,-0.49,
1557,0.04,-0.53,
1558,0.02,-0.545,
1559,0.025,-0.545,
1560,0.005,-0.545,
1561,-0.015,-0.55,
1562,-0.035,-0.565,
1563,-0.05,-0.58,
1564,-0.07,-0.575,
1565,-0.09,-0.59,
1566,-0.095,-0.585,
1567,-0.115,-0.585,
1568,-0.14,-0.6,
1569,-0.165,-0.6,
1570,-0.205,-0.605,
1571,-0.25,-0.605,
1572,-0.275,-0.6,
1573,-0.305,-0.6,
1574,-0.305,-0.575,
1575,-0.325,-0.545,
1576,-0.34,-0.51,
1577,-0.36,-0.495,
1578,-0.4,-0.49,
1579,-0.425,-0.5,
1580,-0.44,-0.495,
1581,-0.455,-0.495,
1582,-0.48,-0.48,
1583,-0.485,-0.465,
1584,-0.515,-0.44,
1585,-0.53,-0.415,
1586,-0.55,-0.385,
1587,-0.57,-0.35,
1588,-0.58,-0.325,
1589,-0.58,-0.305,
1590,-0.575,-0.26,
1591,-0.575,-0.23,
1592,-0.59,-0.21,
1593,-0.595,-0.21,
1594,-0.6,-0.22,
1595,-0.59,-0.255,
1596,-0.58,-0.27,
1597,-0.53,-0.295,
1598,-0.48,-0.31,
1599,-0.435,-0.32,
1600,-0.4,-0.355,
1601,-0.37,-0.39,
1602,-0.345,-0.445,
1603,-0.335,-0.505,
1604,-0.3,-0.555,
1605,-0.27,-0.58,
1606,-0.25,-0.59,
1607,-0.235,-0.595,
1608,-0.245,-0.565,
1609,-0.255,-0.575,
1610,-0.265,-0.565,
1611,-0.295,-0.585,
1612,-0.335,-0.605,
1613,-0.385,-0.615,
1614,-0.44,-0.64,
1615,-0.495,-0.645,
1616,-0.55,-0.66,
1617,-0.585,-0.68,
1618,-0.625,-0.69,
1619,-0.64,-0.705,
1620,-0.64,-0.7,
1621,-0.62,-0.695,
1622,-0.62,-0.685,
1623,-0.62,-0.68,
1624,-0.625,-0.675,
1625,-0.605,-0.685,
1626,-0.605,-0.67,
1627,-0.615,-0.69,
1628,-0.625,-0.715,
1629,-0.625,-0.705,
1630,-0.635,-0.72,
1631,-0.65,-0.725,
1632,-0.66,-0.715,
1633,-0.65,-0.71,
1634,-0.645,-0.705,
1635,-0.635,-0.705,
1636,-0.605,-0.69,
1637,-0.575,-0.68,
1638,-0.57,-0.66,
1639,-0.575,-0.625,
1640,-0.585,-0.575,
1641,-0.61,-0.53,
1642,-0.645,-0.5,
1643,-0.665,-0.54,
1644,-0.675,-0.665,
1645,-0.655,-0.9,
1646,-0.59,-1.25,
1647,-0.435,-1.645,
1648,-0.22,-2.045,
1649,0.035,-2.405,
1650,0.38,-2.67,
1651,0.75,-2.84,
1652,1.14,-2.92,
1653,1.52,-2.945,
1654,1.775,-2.935,
1655,1.82,-2.89,N
1656,1.625,-2.855,
1657,1.275,-2.785,
1658,0.845,-2.73,
1659,0.375,-2.66,
1660,-0.04,-2.475,
1661,-0.405,-2.175,
1662,-0.7,-1.805,
1663,-0.945,-1.46,
1664,-1.135,-1.195,
1665,-1.29,-1.025,
1666,-1.345,-0.95,
1667,-1.335,-0.92,
1668,-1.24,-0.915,
1669,-1.115,-0.895,
1670,-0.965,-0.89,
1671,-0.88,-0.865,
1672,-0.845,-0.84,
1673,-0.855,-0.825,
1674,-0.885,-0.805,
1675,-0.93,-0.805,
1676,-0.96,-0.79,
1677,-0.98,-0.785,
1678,-0.99,-0.79,
1679,-0.99,-0.785,
1680,-0.98,-0.775,
1681,-0.985,-0.755,
1682,-1.005,-0.725,
1683,-1.015,-0.705,
1684,-1.005,-0.68,
1685,-1.0,-0.67,
1686,-0.99,-0.65,
1687,-0.99,-0.655,
1688,-1.015,-0.65,
1689,-1.03,-0.66,
1690,-1.045,-0.65,
1691,-1.04,-0.64,
1692,-1.045,-0.615,
1693,-1.025,-0.585,
1694,-1.01,-0.55,
1695,-0.995,-0.53,
1696,-1.005,-0.53,
1697,-1.02,-0.535,
1698,-1.01,-0.52,
1699,-0.995,-0.52,
1700,-0.99,-0.5,
1701,-0.99,-0.485,
1702,-0.975,-0.46,
1703,-0.95,-0.44,
1704,-0.95,-0.425,
1705,-0.925,-0.42,
1706,-0.905,-0.4,
1707,-0.88,-0.37,
1708,-0.865,-0.365,
1709,-0.84,-0.345,
1710,-0.795,-0.33,
1711,-0.77,-0.305,
1712,-0.75,-0.3,
1713,-0.715,-0.295,
1714,-0.695,-0.29,
1715,-0.67,-0.28,
1716,-0.635,-0.27,
1717,-0.57,-0.255,
1718,-0.52,-0.235,
1719,-0.5,-0.225,
1720,-0.45,-0.22,
1721,-0.405,-0.215,
1722,-0.375,-0.225,
1723,-0.35,-0.21,
1724,-0.335,-0.225,
1725,-0.3,-0.23,
1726,-0.245,-0.205,
1727,-0.22,-0.215,
1728,-0.185,-0.205,
1729,-0.16,-0.205,
1730,-0.125,-0.225,
1731,-0.08,-0.24,
1732,-0.03,-0.255,
1733,0.01,-0.265,
1734,0.055,-0.28,
1735,0.095,-0.295,
1736,0.11,-0.315,
1737,0.125,-0.335,
1738,0.125,-0.36,
1739,0.14,-0.385,
1740,0.14,-0.395,
1741,0.16,-0.405,
1742,0.18,-0.41,
1743,0.19,-0.425,
1744,0.205,-0.415,
1745,0.205,-0.425,
1746,0.195,-0.45,
1747,0.19,-0.475,
1748,0.175,-0.51,
1749,0.16,-0.54,
1750,0.15,-0.56,
1751,0.135,-0.585,
1752,0.095,-0.57,
1753,0.065,-0.56,
1754,0.05,-0.57,
1755,0.025,-0.575,
1756,0.01,-0.575,
1757,0.015,-0.585,
1758,0.01,-0.6,
1759,-0.005,-0.6,
1760,-0.03,-0.62,
1761,-0.07,-0.615,
1762,-0.11,-0.62,
1763,-0.155,-0.605,
1764,-0.19,-0.61,
1765,-0.21,-0.59,
1766,-0.23,-0.585,
1767,-0.25,-0.565,
1768,-0.28,-0.535,
1769,-0.305,-0.525,
1770,-0.32,-0.525,
1771,-0.355,-0.515,
1772,-0.385,-0.525,
1773,-0.415,-0.525,
1774,-0.42,-0.53,
1775,-0.455,-0.515,
1776,-0.47,-0.525,
1777,-0.5,-0.49,
1778,-0.525,-0.485,
1779,-0.535,-0.46,
1780,-0.54,-0.43,
1781,-0.54,-0.41,
1782,-0.53,-0.4,
1783,-0.535,-0.39,
1784,-0.555,-0.365,
1785,-0.58,-0.345,
1786,-0.6,-0.325,
1787,-0.605,-0.29,
1788,-0.6,-0.26,
1789,-0.59,-0.255,
1790,-0.57,-0.23,
1791,-0.55,-0.235,
1792,-0.53,-0.245,
1793,-0.51,-0.28,
1794,-0.475,-0.295,
1795,-0.44,-0.32,
1796,-0.4,-0.345,
1797,-0.365,-0.385,
1798,-0.34,-0.415,
1799,-0.325,-0.465,
1800,-0.3,-0.49,
1801,-0.28,-0.505,
1802,-0.24,-0.525,
1803,-0.205,-0.535,
1804,-0.18,-0.54,
1805,-0.17,-0.53,
1806,-0.185,-0.54,
1807,-0.235,-0.56,
1808,-0.3,-0.58,
1809,-0.38,-0.59,
1810,-0.46,-0.615,
1811,-0.525,-0.63,
1812,-0.57,-0.63,
1813,-0.6,-0.64,
1814,-0.63,-0.64,
1815,-0.645,-0.645,
1816,-0.655,-0.63,
1817,-0.655,-0.64,
1818,-0.66,-0.635,
1819,-0.645,-0.65,
1820,-0.63,-0.655,
1821,-0.635,-0.67,
1822,-0.655,-0.68,
1823,-0.66,-0.695,
1824,-0.68,-0.69,
1825,-0.675,-0.68,
1826,-0.67,-0.675,
1827,-0.64,-0.655,
1828,-0.63,-0.65,
1829,-0.625,-0.65,
1830,-0.62,-0.64,
1831,-0.62,-0.635,
1832,-0.64,-0.625,
1833,-0.655,-0.595,
1834,-0.65,-0.565,
1835,-0.665,-0.52,
1836,-0.675,-0.465,
1837,-0.685,-0.445,
1838,-0.7,-0.515,
1839,-0.72,-0.66,
1840,-0.7,-0.945,
1841,-0.6,-1.32,
1842,-0.415,-1.75,
1843,-0.145,-2.115,
1844,0.18,-2.4,
1845,0.56,-2.575,
1846,0.96,-2.65,
1847,1.345,-2.665,
1848,1.675,-2.605,
1849,1.86,-2.545,N
1850,1.825,-2.465,
1851,1.59,-2.375,
1852,1.21,-2.31,
1853,0.75,-2.22,
1854,0.27,-2.11,
1855,-0.16,-1.91,
1856,-0.525,-1.67,
1857,-0.825,-1.43,
1858,-1.08,-1.22,
1859,-1.285,-1.095,
1860,-1.425,-0.975,
1861,-1.46,-0.915,
1862,-1.41,-0.87,
1863,-1.305,-0.855,
1864,-1.165,-0.815,
1865,-1.045,-0.79,
1866,-0.965,-0.765,
1867,-0.93,-0.745,
1868,-0.93,-0.73,
1869,-0.96,-0.725,
1870,-1.0,-0.725,
1871,-1.04,-0.72,
1872,-1.065,-0.715,
1873,-1.07,-0.71,
1874,-1.06,-0.7,
1875,-1.05,-0.685,
1876,-1.045,-0.66,
1877,-1.045,-0.64,
1878,-1.025,-0.65,
1879,-1.04,-0.64,
1880,-1.06,-0.645,
1881,-1.08,-0.655,
1882,-1.095,-0.66,
1883,-1.09,-0.645,
1884,-1.1,-0.63,
1885,-1.1,-0.605,
1886,-1.09,-0.585,
1887,-1.095,-0.575,
1888,-1.085,-0.565,
1889,-1.085,-0.54,
1890,-1.07,-0.55,
1891,-1.05,-0.545,
1892,-1.045,-0.525,
1893,-1.045,-0.515,
1894,-1.045,-0.49,
1895,-1.055,-0.49,
1896,-1.06,-0.46,
1897,-1.045,-0.455,
1898,-1.025,-0.435,
1899,-0.995,-0.415,
1900,-0.975,-0.375,
1901,-0.95,-0.37,
1902,-0.935,-0.355,
1903,-0.92,-0.345,
1904,-0.91,-0.345,
1905,-0.905,-0.335,
1906,-0.88,-0.34,
1907,-0.85,-0.335,
1908,-0.82,-0.32,
1909,-0.78,-0.3,
1910,-0.745,-0.26,
1911,-0.725,-0.245,
1912,-0.69,-0.225,
1913,-0.65,-0.215,
1914,-0.61,-0.225,
1915,-0.575,-0.235,
1916,-0.53,-0.225,
1917,-0.495,-0.23,
1918,-0.47,-0.235,
1919,-0.445,-0.22,
1920,-0.425,-0.235,
1921,-0.395,-0.235,
1922,-0.36,-0.245,
1923,-0.32,-0.25,
1924,-0.285,-0.275,
1925,-0.23,-0.275,
1926,-0.21,-0.29,
1927,-0.17,-0.305,
1928,-0.145,-0.325,
1929,-0.115,-0.35,
1930,-0.09,-0.395,
1931,-0.065,-0.41,
1932,-0.035,-0.43,
1933,-0.01,-0.46,
1934,0.02,-0.46,
1935,0.035,-0.465,
1936,0.05,-0.465,
1937,0.055,-0.46,
1938,0.07,-0.48,
1939,0.07,-0.5,
1940,0.085,-0.53,
1941,0.085,-0.555,
1942,0.06,-0.575,
1943,0.05,-0.58,
1944,0.02,-0.575,
1945,0.005,-0.57,
1946,-0.015,-0.57,
1947,-0.015,-0.575,
1948,-0.015,-0.59,
1949,-0.02,-0.59,
1950,-0.035,-0.605,
1951,-0.065,-0.595,
1952,-0.11,-0.595,
1953,-0.145,-0.59,
1954,-0.17,-0.585,
1955,-0.21,-0.58,
1956,-0.22,-0.58,
1957,-0.23,-0.575,
1958,-0.27,-0.555,
1959,-0.285,-0.545,
1960,-0.32,-0.525,
1961,-0.345,-0.505,
1962,-0.36,-0.495,
1963,-0.38,-0.485,
1964,-0.4,-0.49,
1965,-0.425,-0.485,
1966,-0.46,-0.5,
1967,-0.49,-0.485,
1968,-0.53,-0.47,
1969,-0.53,-0.46,
1970,-0.535,-0.445,
1971,-0.55,-0.43,
1972,-0.555,-0.42,
1973,-0.555,-0.395,
1974,-0.58,-0.395,
1975,-0.595,-0.37,
1976,-0.62,-0.35,
1977,-0.625,-0.345,
1978,-0.635,-0.325,
1979,-0.625,-0.28,
1980,-0.605,-0.26,
1981,-0.58,-0.21,
1982,-0.555,-0.195,
1983,-0.55,-0.175,
1984,-0.545,-0.19,
1985,-0.54,-0.215,
1986,-0.515,-0.25,
1987,-0.495,-0.275,
1988,-0.46,-0.28,
1989,-0.43,-0.305,
1990,-0.43,-0.34,
1991,-0.42,-0.37,
1992,-0.405,-0.41,
1993,-0.395,-0.435,
1994,-0.355,-0.475,
1995,-0.335,-0.485,
1996,-0.285,-0.495,
1997,-0.245,-0.5,
1998,-0.22,-0.51,
1999,-0.23,-0.495,
2000,-0.24,-0.52,
2001,-0.27,-0.54,
2002,-0.32,-0.56,
2003,-0.385,-0.565,
2004,-0.45,-0.57,
2005,-0.495,-0.57,
2006,-0.555,-0.575,
2007,-0.585,-0.595,
2008,-0.625,-0.59,
2009,-0.66,-0.6,
2010,-0.68,-0.625,
2011,-0.69,-0.63,
2012,-0.695,-0.635,
2013,-0.695,-0.645,
2014,-0.685,-0.64,
2015,-0.685,-0.64,
2016,-0.69,-0.645,
2017,-0.705,-0.65,
2018,-0.715,-0.655,
2019,-0.725,-0.67,
2020,-0.71,-0.665,
2021,-0.69,-0.655,
2022,-0.69,-0.65,
2023,-0.69,-0.645,
2024,-0.68,-0.655,
2025,-0.69,-0.67,
2026,-0.695,-0.69,
2027,-0.72,-0.705,
2028,-0.73,-0.695,
2029,-0.735,-0.675,
2030,-0.735,-0.635,
2031,-0.715,-0.595,
2032,-0.725,-0.53,
2033,-0.705,-0.485,
2034,-0.725,-0.465,
2035,-0.75,-0.515,
2036,-0.745,-0.67,
2037,-0.72,-0.93,
2038,-0.635,-1.295,
2039,-0.47,-1.705,
2040,-0.23,-2.095,
2041,0.07,-2.41,
2042,0.43,-2.61,
2043,0.84,-2.735,
2044,1.265,-2.765,
2045,1.64,-2.75,
2046,1.9,-2.72,
2047,1.955,-2.67,N
2048,1.81,-2.61,
2049,1.47,-2.555,
2050,1.03,-2.495,
2051,0.55,-2.36,
2052,0.05,-2.135,
2053,-0.385,-1.805,
2054,-0.77,-1.48,
2055,-1.085,-1.2,
2056,-1.31,-1.025,
2057,-1.445,-0.925,
2058,-1.46,-0.885,
2059,-1.385,-0.88,
2060,-1.265,-0.88,
2061,-1.12,-0.87,
2062,-1.005,-0.85,
2063,-0.955,-0.825,
2064,-0.945,-0.815,
2065,-0.96,-0.785,
2066,-1.0,-0.765,
2067,-1.05,-0.75,
2068,-1.07,-0.73,
2069,-1.08,-0.745,
2070,-1.07,-0.725,
2071,-1.06,-0.74,
2072,-1.06,-0.725,
2073,-1.075,-0.71,
2074,-1.085,-0.7,
2075,-1.12,-0.685,
2076,-1.12,-0.68,
2077,-1.125,-0.66,
2078,-1.115,-0.66,
2079,-1.11,-0.645,
2080,-1.105,-0.64,
2081,-1.115,-0.625,
2082,-1.12,-0.605,
2083,-1.135,-0.6,
2084,-1.14,-0.595,
2085,-1.145,-0.59,
2086,-1.145,-0.58,
2087,-1.145,-0.59,
2088,-1.16,-0.565,
2089,-1.155,-0.545,
2090,-1.165,-0.515,
2091,-1.16,-0.49,
2092,-1.135,-0.485,
2093,-1.115,-0.475,
2094,-1.085,-0.47,
2095,-1.07,-0.455,
2096,-1.06,-0.435,
2097,-1.06,-0.44,
2098,-1.05,-0.43,
2099,-1.045,-0.415,
2100,-1.035,-0.375,
2101,-1.015,-0.375,
2102,-0.96,-0.355,
2103,-0.93,-0.35,
2104,-0.89,-0.345,
2105,-0.865,-0.335,
2106,-0.84,-0.315,
2107,-0.825,-0.29,
2108,-0.8,-0.29,
2109,-0.77,-0.28,
2110,-0.735,-0.28,
2111,-0.685,-0.285,
2112,-0.655,-0.27,
2113,-0.605,-0.26,
2114,-0.565,-0.255,
2115,-0.52,-0.245,
2116,-0.485,-0.23,
2117,-0.445,-0.24,
2118,-0.375,-0.24,
2119,-0.325,-0.26,
2120,-0.285,-0.265,
2121,-0.255,-0.3,
2122,-0.235,-0.3,
2123,-0.22,-0.31,
2124,-0.17,-0.33,
2125,-0.12,-0.33,
2126,-0.075,-0.345,
2127,-0.03,-0.365,
2128,0.005,-0.375,
2129,0.035,-0.4,
2130,0.04,-0.415,
2131,0.065,-0.425,
2132,0.07,-0.43,
2133,0.08,-0.455,
2134,0.09,-0.46,
2135,0.095,-0.495,
2136,0.085,-0.52,
2137,0.08,-0.53,
2138,0.07,-0.535,
2139,0.07,-0.545,
2140,0.065,-0.53,
2141,0.075,-0.55,
2142,0.07,-0.575,
2143,0.025,-0.58,
2144,-0.01,-0.59,
2145,-0.04,-0.595,
2146,-0.065,-0.615,
2147,-0.09,-0.61,
2148,-0.11,-0.615,
2149,-0.13,-0.59,
2150,-0.135,-0.605,
2151,-0.16,-0.595,
2152,-0.185,-0.59,
2153,-0.22,-0.585,
2154,-0.255,-0.57,
2155,-0.29,-0.575,
2156,-0.295,-0.57,
2157,-0.315,-0.56,
2158,-0.345,-0.545,
2159,-0.38,-0.545,
2160,-0.41,-0.53,
2161,-0.46,-0.53,
2162,-0.475,-0.5,
2163,-0.475,-0.485,
2164,-0.48,-0.47,
2165,-0.49,-0.455,
2166,-0.5,-0.43,
2167,-0.505,-0.42,
2168,-0.53,-0.4,
2169,-0.55,-0.39,
2170,-0.56,-0.37,
2171,-0.57,-0.325,
2172,-0.57,-0.275,
2173,-0.565,-0.23,
2174,-0.57,-0.205,
2175,-0.57,-0.2,
2176,-0.565,-0.21,
2177,-0.535,-0.225,
2178,-0.51,-0.26,
2179,-0.48,-0.29,
2180,-0.435,-0.31,
2181,-0.41,-0.335,
2182,-0.385,-0.375,
2183,-0.37,-0.425,
2184,-0.37,-0.47,
2185,-0.35,-0.51,
2186,-0.325,-0.525,
2187,-0.29,-0.54,
2188,-0.25,-0.53,
2189,-0.24,-0.525,
2190,-0.245,-0.535,
2191,-0.265,-0.535,
2192,-0.3,-0.565,
2193,-0.365,-0.585,
2194,-0.405,-0.6,
2195,-0.46,-0.61,
2196,-0.51,-0.61,
2197,-0.585,-0.625,
2198,-0.64,-0.635,
2199,-0.665,-0.63,
2200,-0.7,-0.64,
2201,-0.715,-0.65,
2202,-0.715,-0.655,
2203,-0.705,-0.64,
2204,-0.71,-0.645,
2205,-0.73,-0.65,
2206,-0.73,-0.665,
2207,-0.735,-0.68,
2208,-0.735,-0.685,
2209,-0.735,-0.7,
2210,-0.735,-0.705,
2211,-0.715,-0.685,
2212,-0.71,-0.67,
2213,-0.695,-0.665,
2214,-0.71,-0.66,
2215,-0.72,-0.66,
2216,-0.735,-0.68,
2217,-0.72,-0.69,
2218,-0.735,-0.695,
2219,-0.73,-0.67,
2220,-0.73,-0.63,
2221,-0.75,-0.575,
2222,-0.76,-0.51,
2223,-0.765,-0.475,
2224,-0.77,-0.46,
2225,-0.775,-0.54,
2226,-0.76,-0.695,
2227,-0.71,-0.955,
2228,-0.62,-1.29,
2229,-0.465,-1.685,
2230,-0.27,-2.08,
2231,0.005,-2.39,
2232,0.345,-2.635,
2233,0.745,-2.795,
2234,1.165,-2.86,
2235,1.55,-2.865,
2236,1.79,-2.83,N
2237,1.84,-2.8,
2238,1.635,-2.755,
2239,1.28,-2.69,
2240,0.815,-2.605,
2241,0.3,-2.415,
2242,-0.19,-2.09,
2243,-0.615,-1.715,
2244,-0.98,-1.36,
2245,-1.25,-1.115,
2246,-1.425,-0.955,
2247,-1.48,-0.875,
2248,-1.43,-0.86,
2249,-1.315,-0.87,
2250,-1.16,-0.89,
2251,-1.025,-0.88,
2252,-0.925,-0.885,
2253,-0.91,-0.855,
2254,-0.935,-0.84,
2255,-1.0,-0.825,
2256,-1.045,-0.795,
2257,-1.075,-0.805,
2258,-1.08,-0.79,
2259,-1.085,-0.78,
2260,-1.065,-0.775,
2261,-1.06,-0.75,
2262,-1.06,-0.735,
2263,-1.075,-0.735,
2264,-1.075,-0.705,
2265,-1.08,-0.715,
2266,-1.09,-0.71,
2267,-1.08,-0.69,
2268,-1.105,-0.69,
2269,-1.115,-0.68,
2270,-1.125,-0.655,
2271,-1.125,-0.64,
2272,-1.14,-0.63,
2273,-1.125,-0.62,
2274,-1.115,-0.615,
2275,-1.12,-0.61,
2276,-1.105,-0.6,
2277,-1.115,-0.595,
2278,-1.12,-0.57,
2279,-1.125,-0.57,
2280,-1.11,-0.535,
2281,-1.09,-0.515,
2282,-1.06,-0.505,
2283,-1.025,-0.475,
2284,-0.995,-0.445,
2285,-0.985,-0.435,
2286,-0.965,-0.42,
2287,-0.955,-0.41,
2288,-0.94,-0.395,
2289,-0.9,-0.385,
2290,-0.87,-0.375,
2291,-0.845,-0.365,
2292,-0.81,-0.365,
2293,-0.76,-0.355,
2294,-0.735,-0.33,
2295,-0.69,-0.315,
2296,-0.64,-0.29,
2297,-0.58,-0.275,
2298,-0.54,-0.26,
2299,-0.495,-0.23,
2300,-0.45,-0.24,
2301,-0.43,-0.25,
2302,-0.41,-0.255,
2303,-0.39,-0.255,
2304,-0.36,-0.26,
2305,-0.31,-0.255,
2306,-0.255,-0.26,
2307,-0.21,-0.245,
2308,-0.17,-0.23,
2309,-0.125,-0.235,
2310,-0.1,-0.245,
2311,-0.065,-0.255,
2312,-0.015,-0.27,
2313,0.03,-0.285,
2314,0.085,-0.29,
2315,0.115,-0.305,
2316,0.135,-0.315,
2317,0.145,-0.335,
2318,0.15,-0.355,
2319,0.155,-0.37,
2320,0.16,-0.395,
2321,0.185,-0.39,
2322,0.215,-0.41,
2323,0.24,-0.43,
2324,0.235,-0.445,
2325,0.225,-0.47,
2326,0.21,-0.49,
2327,0.175,-0.53,
2328,0.16,-0.535,
2329,0.145,-0.55,
2330,0.14,-0.545,
2331,0.135,-0.555,
2332,0.11,-0.56,
2333,0.095,-0.56,
2334,0.065,-0.565,
2335,0.045,-0.585,
2336,0.015,-0.605,
2337,-0.01,-0.62,
2338,-0.015,-0.635,
2339,-0.025,-0.645,
2340,-0.06,-0.65,
2341,-0.1,-0.64,
2342,-0.12,-0.64,
2343,-0.14,-0.625,
2344,-0.175,-0.62,
2345,-0.17,-0.615,
2346,-0.185,-0.61,
2347,-0.21,-0.595,
2348,-0.245,-0.58,
2349,-0.26,-0.575,
2350,-0.32,-0.565,
2351,-0.365,-0.565,
2352,-0.4,-0.555,
2353,-0.415,-0.545,
2354,-0.42,-0.53,
2355,-0.425,-0.515,
2356,-0.435,-0.505,
2357,-0.445,-0.47,
2358,-0.465,-0.465,
2359,-0.495,-0.46,
2360,-0.535,-0.445,
2361,-0.54,-0.45,
2362,-0.56,-0.44,
2363,-0.57,-0.43,
2364,-0.57,-0.39,
2365,-0.57,-0.35,
2366,-0.575,-0.31,
2367,-0.585,-0.275,
2368,-0.575,-0.255,
2369,-0.58,-0.25,
2370,-0.575,-0.265,
2371,-0.555,-0.275,
2372,-0.545,-0.305,
2373,-0.53,-0.32,
2374,-0.515,-0.335,
2375,-0.495,-0.35,
2376,-0.465,-0.365,
2377,-0.425,-0.375,
2378,-0.385,-0.405,
2379,-0.35,-0.445,
2380,-0.31,-0.48,
2381,-0.28,-0.505,
2382,-0.26,-0.555,
2383,-0.25,-0.565,
2384,-0.245,-0.585,
2385,-0.235,-0.595,
2386,-0.245,-0.605,
2387,-0.255,-0.62,
2388,-0.275,-0.635,
2389,-0.3,-0.645,
2390,-0.335,-0.64,
2391,-0.385,-0.64,
2392,-0.445,-0.645,
2393,-0.505,-0.64,
2394,-0.545,-0.65,
2395,-0.575,-0.68,
2396,-0.6,-0.7,
2397,-0.605,-0.705,
2398,-0.61,-0.71,
2399,-0.62,-0.715,
2400,-0.63,-0.71,
2401,-0.65,-0.7,
2402,-0.655,-0.705,
2403,-0.655,-0.705,
2404,-0.63,-0.7,
2405,-0.615,-0.7,
2406,-0.615,-0.715,
2407,-0.63,-0.715,
2408,-0.625,-0.725,
2409,-0.645,-0.72,
2410,-0.65,-0.745,
2411,-0.655,-0.745,
2412,-0.65,-0.75,
2413,-0.655,-0.76,
2414,-0.655,-0.74,
2415,-0.645,-0.7,
2416,-0.65,-0.675,
2417,-0.64,-0.62,
2418,-0.63,-0.56,
2419,-0.64,-0.5,
2420,-0.66,-0.47,
2421,-0.67,-0.48,
2422,-0.69,-0.57,
2423,-0.705,-0.75,
2424,-0.665,-1.035,
2425,-0.55,-1.41,
2426,-0.38,-1.81,
2427,-0.125,-2.18,
2428,0.185,-2.455,
2429,0.55,-2.63,
2430,0.95,-2.73,
2431,1.355,-2.745,
2432,1.675,-2.72,
2433,1.83,-2.67,N
2434,1.785,-2.605,
2435,1.51,-2.535,
2436,1.115,-2.465,
2437,0.625,-2.365,
2438,0.13,-2.185,
2439,-0.31,-1.915,
2440,-0.685,-1.62,
2441,-0.97,-1.36,
2442,-1.19,-1.2,
2443,-1.36,-1.095,
2444,-1.45,-1.04,
2445,-1.475,-0.995,
2446,-1.405,-0.985,
2447,-1.305,-0.945,
2448,-1.18,-0.91,
2449,-1.07,-0.875,
2450,-0.98,-0.84,
2451,-0.935,-0.825,
2452,-0.91,-0.805,
2453,-0.92,-0.815,
2454,-0.945,-0.805,
2455,-0.97,-0.785,
2456,-0.995,-0.78,
2457,-1.025,-0.78,
2458,-1.03,-0.76,
2459,-1.04,-0.765,
2460,-1.04,-0.765,
2461,-1.04,-0.75,
2462,-1.045,-0.73,
2463,-1.04,-0.72,
2464,-1.05,-0.695,
2465,-1.055,-0.685,
2466,-1.055,-0.695,
2467,-1.05,-0.675,
2468,-1.05,-0.665,
2469,-1.035,-0.66,
2470,-1.04,-0.655,
2471,-1.045,-0.655,
2472,-1.06,-0.63,
2473,-1.065,-0.645,
2474,-1.07,-0.63,
2475,-1.08,-0.615,
2476,-1.075,-0.6,
2477,-1.055,-0.575,
2478,-1.035,-0.555,
2479,-1.01,-0.53,
2480,-0.995,-0.535,
2481,-0.985,-0.52,
2482,-0.985,-0.52,
2483,-0.985,-0.52,
2484,-0.965,-0.495,
2485,-0.955,-0.465,
2486,-0.925,-0.445,
2487,-0.885,-0.41,
2488,-0.865,-0.395,
2489,-0.825,-0.35,
2490,-0.815,-0.36,
2491,-0.785,-0.355,
2492,-0.765,-0.36,
2493,-0.74,-0.35,
2494,-0.72,-0.36,
2495,-0.685,-0.335,
2496,-0.635,-0.315,
2497,-0.605,-0.31,
2498,-0.58,-0.31,
2499,-0.545,-0.315,
2500,-0.515,-0.29,
2501,-0.475,-0.28,
2502,-0.43,-0.28,
2503,-0.385,-0.265,
2504,-0.355,-0.27,
2505,-0.33,-0.29,
2506,-0.3,-0.315,
2507,-0.28,-0.33,
2508,-0.245,-0.34,
2509,-0.2,-0.35,
2510,-0.155,-0.35,
2511,-0.105,-0.35,
2512,-0.07,-0.345,
2513,-0.04,-0.355,
2514,-0.015,-0.39,
2515,0.005,-0.41,
2516,0.025,-0.45,
2517,0.03,-0.475,
2518,0.07,-0.5,
2519,0.075,-0.52,
2520,0.085,-0.53,
2521,0.095,-0.555,
2522,0.105,-0.555,
2523,0.1,-0.575,
2524,0.09,-0.565,
2525,0.105,-0.565,
2526,0.11,-0.585,
2527,0.11,-0.585,
2528,0.1,-0.58,
2529,0.065,-0.605,
2530,0.025,-0.61,
2531,-0.02,-0.625,
2532,-0.04,-0.635,
2533,-0.065,-0.65,
2534,-0.09,-0.645,
2535,-0.105,-0.64,
2536,-0.135,-0.615,
2537,-0.16,-0.61,
2538,-0.17,-0.605,
2539,-0.195,-0.61,
2540,-0.21,-0.61,
2541,-0.225,-0.625,
2542,-0.255,-0.615,
2543,-0.27,-0.6,
2544,-0.32,-0.59,
2545,-0.355,-0.575,
2546,-0.375,-0.555,
2547,-0.4,-0.545,
2548,-0.41,-0.55,
2549,-0.405,-0.525,
2550,-0.435,-0.515,
2551,-0.45,-0.495,
2552,-0.5,-0.485,
2553,-0.525,-0.475,
2554,-0.56,-0.48,
2555,-0.58,-0.485,
2556,-0.575,-0.485,
2557,-0.6,-0.49,
2558,-0.595,-0.465,
2559,-0.6,-0.45,
2560,-0.605,-0.405,
2561,-0.605,-0.37,
2562,-0.615,-0.355,
2563,-0.61,-0.32,
2564,-0.61,-0.305,
2565,-0.595,-0.28,
2566,-0.61,-0.255,
2567,-0.605,-0.25,
2568,-0.605,-0.24,
2569,-0.595,-0.24,
2570,-0.58,-0.23,
2571,-0.535,-0.265,
2572,-0.49,-0.285,
2573,-0.44,-0.29,
2574,-0.4,-0.315,
2575,-0.375,-0.34,
2576,-0.36,-0.375,
2577,-0.36,-0.435,
2578,-0.35,-0.455,
2579,-0.34,-0.485,
2580,-0.33,-0.49,
2581,-0.31,-0.505,
2582,-0.28,-0.51,
2583,-0.265,-0.52,
2584,-0.28,-0.52,
2585,-0.305,-0.53,
2586,-0.335,-0.555,
2587,-0.375,-0.56,
2588,-0.43,-0.575,
2589,-0.475,-0.6,
2590,-0.535,-0.62,
2591,-0.585,-0.65,
2592,-0.64,-0.665,
2593,-0.68,-0.66,
2594,-0.705,-0.66,
2595,-0.715,-0.65,
2596,-0.7,-0.63,
2597,-0.695,-0.635,
2598,-0.68,-0.64,
2599,-0.685,-0.645,
2600,-0.69,-0.655,
2601,-0.705,-0.66,
2602,-0.72,-0.66,
2603,-0.715,-0.675,
2604,-0.725,-0.67,
2605,-0.715,-0.67,
2606,-0.715,-0.68,
2607,-0.69,-0.665,
2608,-0.69,-0.67,
2609,-0.695,-0.665,
2610,-0.695,-0.68,
2611,-0.69,-0.67,
2612,-0.7,-0.675,
2613,-0.71,-0.655,
2614,-0.705,-0.65,
2615,-0.71,-0.63,
2616,-0.715,-0.575,
2617,-0.73,-0.525,
2618,-0.745,-0.475,
2619,-0.77,-0.49,
2620,-0.775,-0.595,
2621,-0.76,-0.8,
2622,-0.685,-1.125,
2623,-0.54,-1.505,
2624,-0.34,-1.915,
2625,-0.065,-2.25,
2626,0.25,-2.505,
2627,0.63,-2.65,
2628,1.025,-2.715,
2629,1.4,-2.735,
2630,1.71,-2.72,
2631,1.895,-2.685,
2632,1.915,-2.63,N
2633,1.75,-2.565,
2634,1.45,-2.5,
2635,1.04,-2.435,
2636,0.595,-2.325,
2637,0.125,-2.135,
2638,-0.285,-1.855,
2639,-0.64,-1.56,
2640,-0.97,-1.285,
2641,-1.235,-1.115,
2642,-1.43,-1.01,
2643,-1.515,-0.95,
2644,-1.485,-0.935,
2645,-1.4,-0.9,
2646,-1.265,-0.88,
2647,-1.11,-0.835,
2648,-1.015,-0.8,
2649,-0.96,-0.785,
2650,-0.965,-0.77,
2651,-1.0,-0.785,
2652,-1.05,-0.775,
2653,-1.095,-0.775,
2654,-1.125,-0.765,
2655,-1.12,-0.74,
2656,-1.13,-0.725,
2657,-1.115,-0.705,
2658,-1.1,-0.705,
2659,-1.11,-0.69,
2660,-1.12,-0.7,
2661,-1.155,-0.695,
2662,-1.165,-0.69,
2663,-1.18,-0.69,
2664,-1.18,-0.655,
2665,-1.18,-0.645,
2666,-1.175,-0.63,
2667,-1.16,-0.625,
2668,-1.17,-0.625,
2669,-1.175,-0.6,
2670,-1.18,-0.605,
2671,-1.19,-0.6,
2672,-1.19,-0.59,
2673,-1.195,-0.595,
2674,-1.195,-0.585,
2675,-1.195,-0.55,
2676,-1.195,-0.54,
2677,-1.2,-0.535,
2678,-1.205,-0.52,
2679,-1.2,-0.505,
2680,-1.175,-0.475,
2681,-1.155,-0.465,
2682,-1.125,-0.45,
2683,-1.115,-0.43,
2684,-1.11,-0.415,
2685,-1.1,-0.415,
2686,-1.105,-0.41,
2687,-1.11,-0.42,
2688,-1.085,-0.41,
2689,-1.05,-0.395,
2690,-1.025,-0.355,
2691,-0.99,-0.345,
2692,-0.965,-0.3,
2693,-0.93,-0.285,
2694,-0.91,-0.27,
2695,-0.87,-0.28,
2696,-0.85,-0.3,
2697,-0.815,-0.305,
2698,-0.78,-0.3,
2699,-0.745,-0.285,
2700,-0.715,-0.27,
2701,-0.685,-0.27,
2702,-0.66,-0.255,
2703,-0.635,-0.25,
2704,-0.6,-0.245,
2705,-0.555,-0.25,
2706,-0.52,-0.27,
2707,-0.475,-0.28,
2708,-0.41,-0.275,
2709,-0.38,-0.285,
2710,-0.345,-0.285,
2711,-0.32,-0.305,
2712,-0.29,-0.32,
2713,-0.265,-0.355,
2714,-0.225,-0.355,
2715,-0.175,-0.375,
2716,-0.135,-0.37,
2717,-0.105,-0.385,
2718,-0.075,-0.385,
2719,-0.055,-0.41,
2720,-0.05,-0.425,
2721,-0.04,-0.46,
2722,-0.04,-0.485,
2723,-0.02,-0.52,
2724,-0.015,-0.525,
2725,-0.015,-0.53,
2726,-0.01,-0.535,
2727,-0.005,-0.525,
2728,-0.01,-0.535,
2729,-0.025,-0.55,
2730,-0.035,-0.57,
2731,-0.04,-0.575,
2732,-0.05,-0.595,
2733,-0.065,-0.595,
2734,-0.105,-0.59,
2735,-0.15,-0.6,
2736,-0.155,-0.6,
2737,-0.205,-0.6,
2738,-0.225,-0.605,
2739,-0.225,-0.61,
2740,-0.215,-0.61,
2741,-0.225,-0.585,
2742,-0.235,-0.585,
2743,-0.265,-0.565,
2744,-0.31,-0.56,
2745,-0.335,-0.565,
2746,-0.375,-0.56,
2747,-0.4,-0.565,
2748,-0.415,-0.56,
2749,-0.445,-0.55,
2750,-0.46,-0.53,
2751,-0.49,-0.495,
2752,-0.51,-0.475,
2753,-0.54,-0.455,
2754,-0.555,-0.445,
2755,-0.565,-0.44,
2756,-0.575,-0.44,
2757,-0.59,-0.445,
2758,-0.595,-0.44,
2759,-0.615,-0.43,
2760,-0.64,-0.4,
2761,-0.67,-0.36,
2762,-0.675,-0.31,
2763,-0.675,-0.28,
2764,-0.66,-0.25,
2765,-0.655,-0.205,
2766,-0.64,-0.175,
2767,-0.645,-0.17,
2768,-0.64,-0.175,
2769,-0.65,-0.205,
2770,-0.66,-0.23,
2771,-0.62,-0.26,
2772,-0.6,-0.29,
2773,-0.555,-0.29,
2774,-0.515,-0.315,
2775,-0.475,-0.33,
2776,-0.455,-0.365,
2777,-0.435,-0.395,
2778,-0.42,-0.435,
2779,-0.415,-0.46,
2780,-0.405,-0.495,
2781,-0.375,-0.51,
2782,-0.35,-0.53,
2783,-0.34,-0.535,
2784,-0.345,-0.55,
2785,-0.37,-0.56,
2786,-0.4,-0.56,
2787,-0.44,-0.55,
2788,-0.485,-0.545,
2789,-0.52,-0.55,
2790,-0.56,-0.565,
2791,-0.595,-0.565,
2792,-0.64,-0.59,
2793,-0.685,-0.605,
2794,-0.74,-0.625,
2795,-0.79,-0.64,
2796,-0.815,-0.63,
2797,-0.82,-0.625,
2798,-0.785,-0.625,
2799,-0.775,-0.61,
2800,-0.76,-0.61,
2801,-0.755,-0.62,
2802,-0.76,-0.625,
2803,-0.77,-0.635,
2804,-0.785,-0.645,
2805,-0.79,-0.655,
2806,-0.775,-0.655,
2807,-0.775,-0.665,
2808,-0.78,-0.66,
2809,-0.775,-0.665,
2810,-0.77,-0.66,
2811,-0.775,-0.655,
2812,-0.775,-0.655,
2813,-0.775,-0.65,
2814,-0.765,-0.635,
2815,-0.76,-0.615,
2816,-0.745,-0.575,
2817,-0.76,-0.53,
2818,-0.775,-0.485,
2819,-0.805,-0.475,
2820,-0.835,-0.505,
2821,-0.835,-0.615,
2822,-0.805,-0.795,
2823,-0.72,-1.06,
2824,-0.575,-1.38,
2825,-0.375,-1.765,
2826,-0.135,-2.11,
2827,0.16,-2.42,
2828,0.49,-2.64,
2829,0.845,-2.78,
2830,1.22,-2.83,
2831,1.54,-2.845,
2832,1.74,-2.82,N
2833,1.775,-2.78,
2834,1.61,-2.715,
2835,1.305,-2.68,
2836,0.9,-2.63,
2837,0.45,-2.505,
2838,-0.005,-2.25,
2839,-0.42,-1.89,
2840,-0.805,-1.52,
2841,-1.125,-1.215,
2842,-1.35,-1.02,
2843,-1.485,-0.92,
2844,-1.51,-0.885,
2845,-1.44,-0.88,
2846,-1.305,-0.885,
2847,-1.15,-0.875,
2848,-1.03,-0.855,
2849,-0.955,-0.815,
2850,-0.935,-0.78,
2851,-0.97,-0.77,
2852,-1.025,-0.765,
2853,-1.065,-0.765,
2854,-1.1,-0.765,
2855,-1.135,-0.76,
2856,-1.13,-0.755,
2857,-1.135,-0.74,
2858,-1.125,-0.725,
2859,-1.13,-0.7,
2860,-1.125,-0.69,
2861,-1.145,-0.685,
2862,-1.145,-0.66,
2863,-1.145,-0.66,
2864,-1.15,-0.645,
2865,-1.16,-0.64,
2866,-1.175,-0.62,
2867,-1.19,-0.615,
2868,-1.21,-0.605,
2869,-1.22,-0.59,
2870,-1.22,-0.58,
2871,-1.195,-0.565,
2872,-1.195,-0.545,
2873,-1.19,-0.525,
2874,-1.18,-0.505,
2875,-1.18,-0.49,
2876,-1.19,-0.49,
2877,-1.195,-0.475,
2878,-1.185,-0.475,
2879,-1.18,-0.47,
2880,-1.155,-0.45,
2881,-1.14,-0.43,
2882,-1.135,-0.405,
2883,-1.11,-0.38,
2884,-1.085,-0.36,
2885,-1.05,-0.34,
2886,-1.015,-0.33,
2887,-0.965,-0.33,
2888,-0.935,-0.305,
2889,-0.915,-0.285,
2890,-0.89,-0.275,
2891,-0.865,-0.275,
2892,-0.835,-0.265,
2893,-0.81,-0.265,
2894,-0.76,-0.255,
2895,-0.7,-0.245,
2896,-0.635,-0.22,
2897,-0.595,-0.2,
2898,-0.54,-0.185,
2899,-0.5,-0.195,
2900,-0.455,-0.21,
2901,-0.4,-0.225,
2902,-0.365,-0.245,
2903,-0.32,-0.25,
2904,-0.27,-0.25,
2905,-0.245,-0.24,
2906,-0.22,-0.225,
2907,-0.19,-0.24,
2908,-0.14,-0.245,
2909,-0.095,-0.245,
2910,-0.045,-0.29,
2911,-0.005,-0.315,
2912,0.025,-0.335,
2913,0.045,-0.37,
2914,0.06,-0.375,
2915,0.065,-0.4,
2916,0.085,-0.41,
2917,0.08,-0.43,
2918,0.09,-0.45,
2919,0.105,-0.46,
2920,0.09,-0.475,
2921,0.095,-0.47,
2922,0.095,-0.475,
2923,0.08,-0.49,
2924,0.07,-0.5,
2925,0.05,-0.54,
2926,0.035,-0.56,
2927,0.02,-0.575,
2928,-0.025,-0.585,
2929,-0.055,-0.58,
2930,-0.065,-0.585,
2931,-0.09,-0.585,
2932,-0.09,-0.59,
2933,-0.1,-0.59,
2934,-0.12,-0.59,
2935,-0.14,-0.58,
2936,-0.165,-0.585,
2937,-0.19,-0.585,
2938,-0.215,-0.575,
2939,-0.22,-0.57,
2940,-0.25,-0.56,
2941,-0.27,-0.565,
2942,-0.29,-0.545,
2943,-0.325,-0.515,
2944,-0.365,-0.495,
2945,-0.4,-0.485,
2946,-0.42,-0.465,
2947,-0.425,-0.45,
2948,-0.435,-0.45,
2949,-0.46,-0.445,
2950,-0.48,-0.455,
2951,-0.51,-0.445,
2952,-0.54,-0.425,
2953,-0.565,-0.4,
2954,-0.565,-0.375,
2955,-0.565,-0.34,
2956,-0.55,-0.31,
2957,-0.54,-0.26,
2958,-0.525,-0.225,
2959,-0.525,-0.215,
2960,-0.54,-0.215,
2961,-0.545,-0.23,
2962,-0.53,-0.27,
2963,-0.52,-0.29,
2964,-0.49,-0.31,
2965,-0.455,-0.325,
2966,-0.415,-0.345,
2967,-0.38,-0.365,
2968,-0.35,-0.395,
2969,-0.315,-0.42,
2970,-0.31,-0.465,
2971,-0.275,-0.51,
2972,-0.26,-0.53,
2973,-0.235,-0.55,
2974,-0.22,-0.55,
2975,-0.225,-0.57,
2976,-0.22,-0.565,
2977,-0.24,-0.585,
2978,-0.265,-0.6,
2979,-0.285,-0.615,
2980,-0.315,-0.615,
2981,-0.36,-0.615,
2982,-0.42,-0.625,
2983,-0.48,-0.64,
2984,-0.535,-0.655,
2985,-0.59,-0.67,
2986,-0.62,-0.68,
2987,-0.63,-0.7,
2988,-0.61,-0.705,
2989,-0.595,-0.695,
2990,-0.595,-0.68,
2991,-0.6,-0.675,
2992,-0.605,-0.675,
2993,-0.63,-0.68,
2994,-0.63,-0.69,
2995,-0.63,-0.69,
2996,-0.615,-0.69,
2997,-0.615,-0.69,
2998,-0.605,-0.7,
2999,-0.61,-0.71,
3000,-0.625,-0.73,
3001,-0.625,-0.73,
3002,-0.605,-0.73,
3003,-0.615,-0.71,
3004,-0.605,-0.695,
3005,-0.6,-0.64,
3006,-0.605,-0.6,
3007,-0.62,-0.555,
3008,-0.645,-0.51,
3009,-0.67,-0.53,
3010,-0.665,-0.61,
3011,-0.645,-0.795,
3012,-0.575,-1.105,
3013,-0.43,-1.49,
3014,-0.235,-1.91,
3015,0.015,-2.285,
3016,0.315,-2.565,
3017,0.655,-2.75,
3018,1.04,-2.865,
3019,1.4,-2.91,
3020,1.7,-2.91,
3021,1.83,-2.89,N
3022,1.755,-2.86,
3023,1.465,-2.82,
3024,1.055,-2.765,
3025,0.595,-2.695,
3026,0.11,-2.54,
3027,-0.295,-2.25,
3028,-0.65,-1.865,
3029,-0.925,-1.49,
3030,-1.135,-1.195,
3031,-1.285,-0.985,
3032,-1.38,-0.91,
3033,-1.375,-0.89,
3034,-1.295,-0.9,
3035,-1.165,-0.91,
3036,-1.035,-0.905,
3037,-0.935,-0.875,
3038,-0.88,-0.845,
3039,-0.88,-0.805,
3040,-0.905,-0.785,
3041,-0.94,-0.77,
3042,-0.965,-0.76,
3043,-0.975,-0.75,
3044,-0.99,-0.745,
3045,-1.0,-0.755,
3046,-1.01,-0.73,
3047,-1.015,-0.72,
3048,-1.025,-0.7,
3049,-1.045,-0.685,
3050,-1.025,-0.67,
3051,-1.02,-0.665,
3052,-1.025,-0.63,
3053,-1.03,-0.615,
3054,-1.045,-0.6,
3055,-1.05,-0.59,
3056,-1.07,-0.595,
3057,-1.075,-0.595,
3058,-1.065,-0.59,
3059,-1.05,-0.595,
3060,-1.06,-0.575,
3061,-1.055,-0.555,
3062,-1.055,-0.525,
3063,-1.05,-0.5,
3064,-1.055,-0.49,
3065,-1.03,-0.48,
3066,-1.005,-0.46,
3067,-0.97,-0.445,
3068,-0.95,-0.43,
3069,-0.94,-0.425,
3070,-0.94,-0.415,
3071,-0.935,-0.4,
3072,-0.93,-0.375,
3073,-0.905,-0.36,
3074,-0.875,-0.335,
3075,-0.84,-0.31,
3076,-0.81,-0.29,
3077,-0.795,-0.275,
3078,-0.77,-0.26,
3079,-0.735,-0.26,
3080,-0.715,-0.235,
3081,-0.68,-0.235,
3082,-0.645,-0.235,
3083,-0.6,-0.24,
3084,-0.555,-0.225,
3085,-0.52,-0.22,
3086,-0.495,-0.205,
3087,-0.465,-0.2,
3088,-0.435,-0.17,
3089,-0.4,-0.175,
3090,-0.34,-0.165,
3091,-0.295,-0.175,
3092,-0.24,-0.175,
3093,-0.19,-0.195,
3094,-0.165,-0.22,
3095,-0.15,-0.23,
3096,-0.13,-0.235,
3097,-0.105,-0.23,
3098,-0.065,-0.235,
3099,-0.025,-0.225,
3100,0.005,-0.24,
3101,0.03,-0.25,
3102,0.055,-0.28,
3103,0.075,-0.3,
3104,0.105,-0.315,
3105,0.12,-0.335,
3106,0.14,-0.36,
3107,0.15,-0.39,
3108,0.16,-0.395,
3109,0.145,-0.415,
3110,0.12,-0.425,
3111,0.1,-0.44,
3112,0.09,-0.45,
3113,0.08,-0.46,
3114,0.07,-0.455,
3115,0.08,-0.475,
3116,0.085,-0.48,
3117,0.07,-0.495,
3118,0.055,-0.52,
3119,0.02,-0.54,
3120,-0.005,-0.555,
3121,-0.045,-0.565,
3122,-0.08,-0.57,
3123,-0.095,-0.565,
3124,-0.11,-0.57,
3125,-0.11,-0.56,
3126,-0.135,-0.555,
3127,-0.16,-0.555,
3128,-0.19,-0.56,
3129,-0.225,-0.56,
3130,-0.245,-0.54,
3131,-0.275,-0.535,
3132,-0.29,-0.535,
3133,-0.335,-0.515,
3134,-0.345,-0.505,
3135,-0.38,-0.5,
3136,-0.4,-0.49,
3137,-0.44,-0.46,
3138,-0.43,-0.465,
3139,-0.455,-0.45,
3140,-0.49,-0.44,
3141,-0.51,-0.445,
3142,-0.545,-0.435,
3143,-0.58,-0.455,
3144,-0.61,-0.465,
3145,-0.61,-0.445,
3146,-0.62,-0.425,
3147,-0.62,-0.395,
3148,-0.62,-0.355,
3149,-0.61,-0.32,
3150,-0.625,-0.29,
3151,-0.625,-0.29,
3152,-0.64,-0.275,
3153,-0.65,-0.26,
3154,-0.665,-0.215,
3155,-0.675,-0.205,
3156,-0.68,-0.195,
3157,-0.67,-0.195,
3158,-0.64,-0.215,
3159,-0.6,-0.24,
3160,-0.555,-0.26,
3161,-0.505,-0.285,
3162,-0.455,-0.295,
3163,-0.415,-0.295,
3164,-0.405,-0.31,
3165,-0.395,-0.355,
3166,-0.375,-0.4,
3167,-0.375,-0.455,
3168,-0.365,-0.49,
3169,-0.34,-0.495,
3170,-0.3,-0.51,
3171,-0.28,-0.5,
3172,-0.27,-0.5,
3173,-0.275,-0.49,
3174,-0.3,-0.505,
3175,-0.345,-0.51,
3176,-0.395,-0.525,
3177,-0.465,-0.56,
3178,-0.52,-0.58,
3179,-0.57,-0.6,
3180,-0.615,-0.595,
3181,-0.645,-0.605,
3182,-0.67,-0.615,
3183,-0.69,-0.61,
3184,-0.715,-0.61,
3185,-0.705,-0.62,
3186,-0.7,-0.625,
3187,-0.695,-0.635,
3188,-0.7,-0.64,
3189,-0.715,-0.635,
3190,-0.7,-0.655,
3191,-0.715,-0.655,
3192,-0.71,-0.655,
3193,-0.72,-0.66,
3194,-0.725,-0.66,
3195,-0.715,-0.655,
3196,-0.705,-0.65,
3197,-0.695,-0.65,
3198,-0.68,-0.645,
3199,-0.69,-0.635,
3200,-0.675,-0.64,
3201,-0.695,-0.645,
3202,-0.7,-0.62,
3203,-0.7,-0.605,
3204,-0.7,-0.58,
3205,-0.725,-0.52,
3206,-0.735,-0.46,
3207,-0.77,-0.45,
3208,-0.785,-0.505,
3209,-0.785,-0.665,
3210,-0.72,-0.965,
3211,-0.595,-1.37,
3212,-0.38,-1.79,
3213,-0.105,-2.165,
3214,0.255,-2.415,
3215,0.635,-2.575,
3216,1.05,-2.62,
3217,1.435,-2.635,
3218,1.75,-2.595,
3219,1.905,-2.54,N
3220,1.86,-2.49,
3221,1.615,-2.43,
3222,1.26,-2.345,
3223,0.82,-2.255,
3224,0.355,-2.095,
3225,-0.1,-1.865,
3226,-0.52,-1.575,
3227,-0.905,-1.34,
3228,-1.22,-1.145,
3229,-1.445,-0.99,
3230,-1.525,-0.915,
3231,-1.515,-0.86,
3232,-1.395,-0.82,
3233,-1.25,-0.785,
3234,-1.115,-0.755,
3235,-1.02,-0.74,
3236,-0.955,-0.72,
3237,-0.96,-0.715,
3238,-0.99,-0.705,
3239,-1.025,-0.715,
3240,-1.08,-0.705,
3241,-1.105,-0.695,
3242,-1.11,-0.685,
3243,-1.105,-0.655,
3244,-1.08,-0.645,
3245,-1.075,-0.645,
3246,-1.08,-0.64,
3247,-1.095,-0.645,
3248,-1.115,-0.63,
3249,-1.14,-0.61,
3250,-1.15,-0.605,
3251,-1.155,-0.6,
3252,-1.15,-0.595,
3253,-1.16,-0.59,
3254,-1.16,-0.58,
3255,-1.17,-0.57,
3256,-1.16,-0.565,
3257,-1.15,-0.545,
3258,-1.12,-0.52,
3259,-1.1,-0.505,
3260,-1.085,-0.49,
3261,-1.09,-0.485,
3262,-1.09,-0.465,
3263,-1.1,-0.465,
3264,-1.1,-0.445,
3265,-1.08,-0.425,
3266,-1.07,-0.4,
3267,-1.045,-0.38,
3268,-1.02,-0.375,
3269,-0.995,-0.345,
3270,-0.97,-0.35,
3271,-0.955,-0.335,
3272,-0.925,-0.325,
3273,-0.9,-0.305,
3274,-0.87,-0.3,
3275,-0.835,-0.285,
3276,-0.815,-0.27,
3277,-0.8,-0.265,
3278,-0.78,-0.265,
3279,-0.75,-0.255,
3280,-0.71,-0.235,
3281,-0.66,-0.225,
3282,-0.615,-0.2,
3283,-0.57,-0.205,
3284,-0.525,-0.21,
3285,-0.5,-0.22,
3286,-0.475,-0.225,
3287,-0.435,-0.245,
3288,-0.4,-0.24,
3289,-0.355,-0.25,
3290,-0.31,-0.245,
3291,-0.27,-0.245,
3292,-0.25,-0.25,
3293,-0.235,-0.27,
3294,-0.185,-0.295,
3295,-0.155,-0.315,
3296,-0.115,-0.33,
3297,-0.095,-0.355,
3298,-0.075,-0.375,
3299,-0.055,-0.405,
3300,-0.055,-0.435,
3301,-0.035,-0.445,
3302,-0.02,-0.465,
3303,-0.005,-0.48,
3304,0.015,-0.48,
3305,0.04,-0.47,
3306,0.05,-0.48,
3307,0.04,-0.5,
3308,0.02,-0.52,
3309,-0.005,-0.54,
3310,-0.035,-0.555,
3311,-0.055,-0.575,
3312,-0.06,-0.57,
3313,-0.075,-0.58,
3314,-0.085,-0.57,
3315,-0.115,-0.545,
3316,-0.14,-0.54,
3317,-0.15,-0.535,
3318,-0.18,-0.54,
3319,-0.2,-0.56,
3320,-0.21,-0.565,
3321,-0.23,-0.565,
3322,-0.255,-0.56,
3323,-0.3,-0.54,
3324,-0.335,-0.545,
3325,-0.38,-0.53,
3326,-0.39,-0.515,
3327,-0.415,-0.51,
3328,-0.425,-0.485,
3329,-0.44,-0.475,
3330,-0.46,-0.46,
3331,-0.48,-0.445,
3332,-0.52,-0.43,
3333,-0.545,-0.435,
3334,-0.58,-0.44,
3335,-0.6,-0.44,
3336,-0.625,-0.435,
3337,-0.635,-0.415,
3338,-0.65,-0.4,
3339,-0.64,-0.365,
3340,-0.64,-0.35,
3341,-0.655,-0.32,
3342,-0.66,-0.295,
3343,-0.645,-0.28,
3344,-0.645,-0.26,
3345,-0.635,-0.235,
3346,-0.645,-0.2,
3347,-0.65,-0.17,
3348,-0.66,-0.165,
3349,-0.66,-0.165,
3350,-0.635,-0.195,
3351,-0.6,-0.225,
3352,-0.55,-0.235,
3353,-0.505,-0.255,
3354,-0.465,-0.265,
3355,-0.435,-0.295,
3356,-0.42,-0.335,
3357,-0.415,-0.375,
3358,-0.395,-0.415,
3359,-0.375,-0.445,
3360,-0.36,-0.475,
3361,-0.345,-0.475,
3362,-0.34,-0.475,
3363,-0.34,-0.47,
3364,-0.35,-0.47,
3365,-0.37,-0.47,
3366,-0.41,-0.48,
3367,-0.455,-0.505,
3368,-0.5,-0.53,
3369,-0.55,-0.555,
3370,-0.615,-0.58,
3371,-0.67,-0.595,
3372,-0.71,-0.595,
3373,-0.75,-0.595,
3374,-0.77,-0.585,
3375,-0.755,-0.585,
3376,-0.73,-0.585,
3377,-0.73,-0.585,
3378,-0.735,-0.6,
3379,-0.75,-0.615,
3380,-0.765,-0.605,
3381,-0.77,-0.615,
3382,-0.775,-0.63,
3383,-0.78,-0.625,
3384,-0.775,-0.635,
3385,-0.79,-0.63,
3386,-0.79,-0.635,
3387,-0.795,-0.635,
3388,-0.795,-0.63,
3389,-0.765,-0.61,
3390,-0.76,-0.59,
3391,-0.745,-0.58,
3392,-0.73,-0.575,
3393,-0.74,-0.525,
3394,-0.765,-0.485,
3395,-0.805,-0.445,
3396,-0.835,-0.455,
3397,-0.86,-0.535,
3398,-0.825,-0.705,
3399,-0.745,-0.99,
3400,-0.615,-1.36,
3401,-0.4,-1.74,
3402,-0.15,-2.115,
3403,0.195,-2.385,
3404,0.56,-2.57,
3405,0.96,-2.675,
3406,1.345,-2.72,
3407,1.66,-2.705,
3408,1.83,-2.67,N
3409,1.81,-2.65,
3410,1.61,-2.615,
3411,1.29,-2.56,
3412,0.92,-2.495,
3413,0.515,-2.375,
3414,0.105,-2.175,
3415,-0.295,-1.875,
3416,-0.67,-1.525,
3417,-1.015,-1.245,
3418,-1.29,-1.035,
3419,-1.485,-0.925,
3420,-1.535,-0.86,
3421,-1.475,-0.84,
3422,-1.35,-0.82,
3423,-1.185,-0.805,
3424,-1.075,-0.78,
3425,-0.995,-0.76,
3426,-0.975,-0.74,
3427,-1.02,-0.74,
3428,-1.08,-0.735,
3429,-1.12,-0.72,
3430,-1.145,-0.72,
3431,-1.155,-0.705,
3432,-1.145,-0.69,
3433,-1.15,-0.675,
3434,-1.14,-0.675,
3435,-1.15,-0.665,
3436,-1.16,-0.67,
3437,-1.17,-0.65,
3438,-1.175,-0.635,
3439,-1.175,-0.625,
3440,-1.17,-0.6,
3441,-1.18,-0.6,
3442,-1.195,-0.585,
3443,-1.215,-0.585,
3444,-1.235,-0.6,
3445,-1.25,-0.59,
3446,-1.26,-0.575,
3447,-1.24,-0.555,
3448,-1.23,-0.52,
3449,-1.215,-0.49,
3450,-1.215,-0.475,
3451,-1.205,-0.485,
3452,-1.215,-0.485,
3453,-1.21,-0.47,
3454,-1.22,-0.465,
3455,-1.205,-0.455,
3456,-1.185,-0.45,
3457,-1.18,-0.41,
3458,-1.175,-0.39,
3459,-1.16,-0.38,
3460,-1.145,-0.36,
3461,-1.135,-0.35,
3462,-1.095,-0.34,
3463,-1.065,-0.32,
3464,-1.03,-0.3,
3465,-1.01,-0.285,
3466,-0.995,-0.29,
3467,-0.98,-0.27,
3468,-0.95,-0.27,
3469,-0.925,-0.265,
3470,-0.89,-0.26,
3471,-0.845,-0.235,
3472,-0.78,-0.22,
3473,-0.73,-0.205,
3474,-0.695,-0.185,
3475,-0.665,-0.185,
3476,-0.635,-0.195,
3477,-0.605,-0.215,
3478,-0.545,-0.22,
3479,-0.505,-0.23,
3480,-0.46,-0.235,
3481,-0.41,-0.24,
3482,-0.37,-0.24,
3483,-0.325,-0.24,
3484,-0.285,-0.25,
3485,-0.25,-0.26,
3486,-0.185,-0.26,
3487,-0.145,-0.28,
3488,-0.11,-0.29,
3489,-0.075,-0.315,
3490,-0.07,-0.34,
3491,-0.065,-0.35,
3492,-0.06,-0.385,
3493,-0.045,-0.39,
3494,-0.015,-0.41,
3495,0.005,-0.415,
3496,0.03,-0.42,
3497,0.035,-0.43,
3498,0.045,-0.43,
3499,0.035,-0.46,
3500,0.025,-0.47,
3501,0.01,-0.5,
3502,-0.01,-0.525,
3503,-0.015,-0.55,
3504,-0.04,-0.55,
3505,-0.07,-0.545,
3506,-0.085,-0.52,
3507,-0.12,-0.535,
3508,-0.135,-0.525,
3509,-0.15,-0.52,
3510,-0.17,-0.525,
3511,-0.17,-0.525,
3512,-0.175,-0.535,
3513,-0.2,-0.53,
3514,-0.24,-0.535,
3515,-0.27,-0.53,
3516,-0.31,-0.525,
3517,-0.34,-0.505,
3518,-0.355,-0.505,
3519,-0.365,-0.495,
3520,-0.395,-0.485,
3521,-0.415,-0.465,
3522,-0.44,-0.445,
3523,-0.475,-0.44,
3524,-0.49,-0.43,
3525,-0.515,-0.425,
3526,-0.525,-0.42,
3527,-0.54,-0.44,
3528,-0.56,-0.435,
3529,-0.57,-0.415,
3530,-0.595,-0.38,
3531,-0.615,-0.35,
3532,-0.63,-0.305,
3533,-0.645,-0.27,
3534,-0.64,-0.235,
3535,-0.635,-0.19,
3536,-0.625,-0.17,
3537,-0.635,-0.15,
3538,-0.655,-0.125,
3539,-0.66,-0.125,
3540,-0.685,-0.15,
3541,-0.67,-0.155,
3542,-0.665,-0.19,
3543,-0.615,-0.205,
3544,-0.56,-0.23,
3545,-0.53,-0.225,
3546,-0.485,-0.255,
3547,-0.465,-0.295,
3548,-0.455,-0.32,
3549,-0.445,-0.36,
3550,-0.44,-0.41,
3551,-0.42,-0.435,
3552,-0.395,-0.47,
3553,-0.37,-0.49,
3554,-0.36,-0.495,
3555,-0.35,-0.475,
3556,-0.35,-0.475,
3557,-0.37,-0.48,
3558,-0.39,-0.475,
3559,-0.42,-0.495,
3560,-0.455,-0.505,
3561,-0.505,-0.525,
3562,-0.56,-0.555,
3563,-0.625,-0.575,
3564,-0.695,-0.58,
3565,-0.75,-0.585,
3566,-0.78,-0.59,
3567,-0.795,-0.575,
3568,-0.795,-0.57,
3569,-0.77,-0.575,
3570,-0.745,-0.58,
3571,-0.75,-0.6,
3572,-0.765,-0.595,
3573,-0.77,-0.61,
3574,-0.785,-0.62,
3575,-0.79,-0.625,
3576,-0.79,-0.625,
3577,-0.78,-0.62,
3578,-0.775,-0.625,
3579,-0.78,-0.62,
3580,-0.78,-0.615,
3581,-0.775,-0.61,
3582,-0.765,-0.605,
3583,-0.76,-0.6,
3584,-0.755,-0.58,
3585,-0.745,-0.575,
3586,-0.745,-0.545,
3587,-0.765,-0.51,
3588,-0.79,-0.465,
3589,-0.82,-0.42,
3590,-0.855,-0.4,
3591,-0.87,-0.45,
3592,-0.84,-0.58,
3593,-0.78,-0.775,
3594,-0.66,-1.075,
3595,-0.495,-1.46,
3596,-0.28,-1.86,
3597,-0.02,-2.225,
3598,0.325,-2.505,
3599,0.695,-2.69,
3600,1.13,-2.8,
3601,1.51,-2.835,
3602,1.765,-2.815,
3603,1.845,-2.785,N
3604,1.71,-2.73,
3605,1.42,-2.7,
3606,1.02,-2.67,
3607,0.565,-2.63,
3608,0.1,-2.49,
3609,-0.31,-2.235,
3610,-0.645,-1.865,
3611,-0.925,-1.49,
3612,-1.15,-1.18,
3613,-1.325,-0.97,
3614,-1.415,-0.855,
3615,-1.42,-0.835,
3616,-1.35,-0.825,
3617,-1.22,-0.835,
3618,-1.075,-0.83,
3619,-0.98,-0.815,
3620,-0.94,-0.795,
3621,-0.965,-0.765,
3622,-1.015,-0.77,
3623,-1.07,-0.76,
3624,-1.095,-0.75,
3625,-1.1,-0.735,
3626,-1.1,-0.725,
3627,-1.09,-0.69,
3628,-1.09,-0.68,
3629,-1.09,-0.67,
3630,-1.105,-0.66,
3631,-1.115,-0.655,
3632,-1.12,-0.655,
3633,-1.115,-0.645,
3634,-1.12,-0.65,
3635,-1.12,-0.635,
3636,-1.13,-0.625,
3637,-1.145,-0.62,
3638,-1.155,-0.595,
3639,-1.16,-0.575,
3640,-1.155,-0.565,
3641,-1.14,-0.55,
3642,-1.13,-0.53,
3643,-1.13,-0.52,
3644,-1.125,-0.495,
3645,-1.13,-0.505,
3646,-1.145,-0.5,
3647,-1.155,-0.495,
3648,-1.155,-0.49,
3649,-1.13,-0.47,
3650,-1.105,-0.46,
3651,-1.075,-0.42,
3652,-1.045,-0.39,
3653,-1.02,-0.375,
3654,-1.005,-0.36,
3655,-0.99,-0.35,
3656,-0.965,-0.335,
3657,-0.945,-0.32,
3658,-0.915,-0.31,
3659,-0.88,-0.285,
3660,-0.85,-0.285,
3661,-0.83,-0.27,
3662,-0.805,-0.245,
3663,-0.77,-0.235,
3664,-0.74,-0.22,
3665,-0.695,-0.215,
3666,-0.635,-0.205,
3667,-0.585,-0.19,
3668,-0.535,-0.185,
3669,-0.49,-0.17,
3670,-0.465,-0.16,
3671,-0.455,-0.15,
3672,-0.425,-0.17,
3673,-0.4,-0.17,
3674,-0.355,-0.16,
3675,-0.31,-0.16,
3676,-0.26,-0.15,
3677,-0.215,-0.15,
3678,-0.17,-0.15,
3679,-0.14,-0.155,
3680,-0.105,-0.14,
3681,-0.05,-0.175,
3682,-0.005,-0.185,
3683,0.035,-0.205,
3684,0.065,-0.24,
3685,0.075,-0.25,
3686,0.085,-0.255,
3687,0.105,-0.26,
3688,0.125,-0.265,
3689,0.14,-0.275,
3690,0.16,-0.285,
3691,0.175,-0.305,
3692,0.185,-0.325,
3693,0.19,-0.345,
3694,0.185,-0.36,
3695,0.175,-0.385,
3696,0.155,-0.39,
3697,0.13,-0.395,
3698,0.115,-0.41,
3699,0.11,-0.415,
3700,0.105,-0.43,
3701,0.105,-0.445,
3702,0.09,-0.455,
3703,0.07,-0.47,
3704,0.035,-0.475,
3705,0.015,-0.48,
3706,-0.015,-0.495,
3707,-0.035,-0.515,
3708,-0.055,-0.545,
3709,-0.07,-0.545,
3710,-0.1,-0.545,
3711,-0.125,-0.545,
3712,-0.14,-0.525,
3713,-0.155,-0.52,
3714,-0.18,-0.505,
3715,-0.2,-0.515,
3716,-0.23,-0.505,
3717,-0.245,-0.515,
3718,-0.26,-0.505,
3719,-0.295,-0.505,
3720,-0.33,-0.5,
3721,-0.37,-0.485,
3722,-0.405,-0.47,
3723,-0.425,-0.455,
3724,-0.445,-0.445,
3725,-0.465,-0.42,
3726,-0.485,-0.415,
3727,-0.495,-0.41,
3728,-0.52,-0.41,
3729,-0.56,-0.4,
3730,-0.575,-0.395,
3731,-0.585,-0.375,
3732,-0.59,-0.36,
3733,-0.595,-0.325,
3734,-0.61,-0.31,
3735,-0.615,-0.295,
3736,-0.635,-0.275,
3737,-0.64,-0.23,
3738,-0.66,-0.205,
3739,-0.675,-0.17,
3740,-0.67,-0.145,
3741,-0.66,-0.13,
3742,-0.635,-0.145,
3743,-0.605,-0.16,
3744,-0.595,-0.195,
3745,-0.565,-0.225,
3746,-0.54,-0.25,
3747,-0.515,-0.265,
3748,-0.475,-0.265,
3749,-0.445,-0.29,
3750,-0.395,-0.315,
3751,-0.36,-0.37,
3752,-0.335,-0.415,
3753,-0.32,-0.445,
3754,-0.315,-0.48,
3755,-0.31,-0.5,
3756,-0.3,-0.505,
3757,-0.295,-0.495,
3758,-0.3,-0.48,
3759,-0.3,-0.485,
3760,-0.32,-0.485,
3761,-0.37,-0.49,
3762,-0.425,-0.51,
3763,-0.505,-0.53,
3764,-0.57,-0.55,
3765,-0.63,-0.555,
3766,-0.665,-0.57,
3767,-0.685,-0.57,
3768,-0.705,-0.58,
3769,-0.7,-0.595,
3770,-0.715,-0.595,
3771,-0.725,-0.61,
3772,-0.72,-0.6,
3773,-0.725,-0.6,
3774,-0.695,-0.58,
3775,-0.705,-0.565,
3776,-0.69,-0.575,
3777,-0.695,-0.59,
3778,-0.715,-0.585,
3779,-0.715,-0.615,
3780,-0.715,-0.62,
3781,-0.73,-0.63,
3782,-0.735,-0.625,
3783,-0.71,-0.605,
3784,-0.7,-0.6,
3785,-0.685,-0.585,
3786,-0.675,-0.575,
3787,-0.685,-0.565,
3788,-0.705,-0.55,
3789,-0.71,-0.525,
3790,-0.725,-0.49,
3791,-0.735,-0.435,
3792,-0.75,-0.38,
3793,-0.775,-0.36,
3794,-0.78,-0.4,
3795,-0.785,-0.53,
3796,-0.72,-0.775,
3797,-0.64,-1.125,
3798,-0.465,-1.53,
3799,-0.23,-1.935,
3800,0.055,-2.25,
3801,0.415,-2.495,
3802,0.795,-2.615,
3803,1.185,-2.655,
3804,1.52,-2.65,
3805,1.755,-2.63,
3806,1.79,-2.57,N
3807,1.625,-2.515,
3808,1.315,-2.45,
3809,0.92,-2.395,
3810,0.49,-2.34,
3811,0.05,-2.225,
3812,-0.34,-2.02,
3813,-0.65,-1.745,
3814,-0.895,-1.465,
3815,-1.115,-1.225,
3816,-1.295,-1.065,
3817,-1.435,-0.95,
3818,-1.49,-0.885,
3819,-1.45,-0.845,
3820,-1.36,-0.81,
3821,-1.235,-0.78,
3822,-1.115,-0.76,
3823,-1.045,-0.735,
3824,-0.99,-0.715,
3825,-0.965,-0.705,
3826,-0.985,-0.695,
3827,-1.005,-0.7,
3828,-1.055,-0.695,
3829,-1.08,-0.68,
3830,-1.095,-0.66,
3831,-1.105,-0.65,
3832,-1.09,-0.645,
3833,-1.085,-0.64,
3834,-1.07,-0.625,
3835,-1.07,-0.61,
3836,-1.08,-0.61,
3837,-1.095,-0.6,
3838,-1.105,-0.58,
3839,-1.13,-0.585,
3840,-1.14,-0.575,
3841,-1.15,-0.565,
3842,-1.155,-0.545,
3843,-1.14,-0.53,
3844,-1.13,-0.52,
3845,-1.135,-0.49,
3846,-1.125,-0.475,
3847,-1.125,-0.465,
3848,-1.125,-0.465,
3849,-1.12,-0.465,
3850,-1.11,-0.465,
3851,-1.125,-0.455,
3852,-1.11,-0.45,
3853,-1.1,-0.435,
3854,-1.1,-0.43,
3855,-1.09,-0.395,
3856,-1.075,-0.37,
3857,-1.06,-0.35,
3858,-1.03,-0.335,
3859,-1.0,-0.325,
3860,-0.965,-0.305,
3861,-0.96,-0.3,
3862,-0.945,-0.295,
3863,-0.925,-0.275,
3864,-0.91,-0.275,
3865,-0.875,-0.255,
3866,-0.845,-0.25,
3867,-0.8,-0.24,
3868,-0.77,-0.235,
3869,-0.74,-0.23,
3870,-0.72,-0.2,
3871,-0.68,-0.175,
3872,-0.665,-0.165,
3873,-0.625,-0.165,
3874,-0.56,-0.16,
3875,-0.525,-0.175,
3876,-0.495,-0.19,
3877,-0.47,-0.195,
3878,-0.435,-0.19,
3879,-0.425,-0.185,
3880,-0.38,-0.185,
3881,-0.345,-0.17,
3882,-0.3,-0.175,
3883,-0.24,-0.215,
3884,-0.2,-0.21,
3885,-0.165,-0.24,
3886,-0.14,-0.27,
3887,-0.13,-0.29,
3888,-0.11,-0.3,
3889,-0.08,-0.305,
3890,-0.04,-0.31,
3891,-0.025,-0.33,
3892,0.01,-0.345,
3893,0.035,-0.365,
3894,0.035,-0.385,
3895,0.04,-0.4,
3896,0.045,-0.41,
3897,0.055,-0.43,
3898,0.05,-0.44,
3899,0.05,-0.46,
3900,0.06,-0.47,
3901,0.055,-0.48,
3902,0.04,-0.49,
3903,0.035,-0.5,
3904,0.025,-0.5,
3905,0.02,-0.505,
3906,0.0,-0.505,
3907,0.0,-0.51,
3908,-0.015,-0.515,
3909,-0.04,-0.52,
3910,-0.045,-0.54,
3911,-0.085,-0.545,
3912,-0.11,-0.545,
3913,-0.15,-0.55,
3914,-0.18,-0.555,
3915,-0.19,-0.54,
3916,-0.2,-0.53,
3917,-0.205,-0.515,
3918,-0.215,-0.505,
3919,-0.235,-0.5,
3920,-0.255,-0.49,
3921,-0.295,-0.5,
3922,-0.34,-0.49,
3923,-0.375,-0.5,
3924,-0.405,-0.49,
3925,-0.425,-0.47,
3926,-0.43,-0.46,
3927,-0.445,-0.455,
3928,-0.47,-0.43,
3929,-0.49,-0.42,
3930,-0.52,-0.41,
3931,-0.545,-0.39,
3932,-0.555,-0.395,
3933,-0.565,-0.375,
3934,-0.57,-0.37,
3935,-0.57,-0.365,
3936,-0.59,-0.36,
3937,-0.61,-0.335,
3938,-0.64,-0.305,
3939,-0.645,-0.275,
3940,-0.65,-0.24,
3941,-0.64,-0.21,
3942,-0.62,-0.155,
3943,-0.605,-0.135,
3944,-0.59,-0.115,
3945,-0.59,-0.115,
3946,-0.595,-0.145,
3947,-0.575,-0.19,
3948,-0.56,-0.23,
3949,-0.53,-0.24,
3950,-0.495,-0.255,
3951,-0.455,-0.255,
3952,-0.415,-0.27,
3953,-0.385,-0.295,
3954,-0.36,-0.345,
3955,-0.36,-0.4,
3956,-0.34,-0.435,
3957,-0.325,-0.465,
3958,-0.31,-0.465,
3959,-0.295,-0.475,
3960,-0.3,-0.475,
3961,-0.32,-0.47,
3962,-0.36,-0.49,
3963,-0.4,-0.5,
3964,-0.45,-0.515,
3965,-0.5,-0.515,
3966,-0.54,-0.525,
3967,-0.59,-0.54,
3968,-0.625,-0.54,
3969,-0.67,-0.545,
3970,-0.715,-0.555,
3971,-0.75,-0.57,
3972,-0.76,-0.595,
3973,-0.785,-0.59,
3974,-0.775,-0.595,
3975,-0.755,-0.6,
3976,-0.745,-0.6,
3977,-0.745,-0.585,
3978,-0.735,-0.57,
3979,-0.74,-0.58,
3980,-0.735,-0.59,
3981,-0.745,-0.585,
3982,-0.755,-0.615,
3983,-0.755,-0.625,
3984,-0.75,-0.625,
3985,-0.76,-0.63,
3986,-0.76,-0.605,
3987,-0.75,-0.615,
3988,-0.745,-0.605,
3989,-0.75,-0.585,
3990,-0.735,-0.57,
3991,-0.735,-0.54,
3992,-0.725,-0.485,
3993,-0.735,-0.44,
3994,-0.77,-0.4,
3995,-0.8,-0.425,
3996,-0.825,-0.53,
3997,-0.81,-0.73,
3998,-0.73,-1.04,
3999,-0.57,-1.41,
4000,-0.35,-1.775,
4001,-0.07,-2.105,
4002,0.24,-2.36,
4003,0.59,-2.54,
4004,0.965,-2.655,
4005,1.345,-2.72,
4006,1.655,-2.745,
4007,1.855,-2.76,N
4008,1.875,-2.74,
4009,1.685,-2.685,
4010,1.35,-2.635,
4011,0.91,-2.55,
4012,0.42,-2.405,
4013,-0.055,-2.145,
4014,-0.485,-1.79,
4015,-0.855,-1.445,
4016,-1.145,-1.145,
4017,-1.35,-0.95,
4018,-1.445,-0.865,
4019,-1.435,-0.82,
4020,-1.345,-0.825,
4021,-1.22,-0.815,
4022,-1.1,-0.815,
4023,-1.0,-0.8,
4024,-0.945,-0.78,
4025,-0.95,-0.745,
4026,-0.975,-0.73,
4027,-1.025,-0.715,
4028,-1.05,-0.71,
4029,-1.08,-0.71,
4030,-1.09,-0.715,
4031,-1.085,-0.71,
4032,-1.08,-0.71,
4033,-1.085,-0.695,
4034,-1.095,-0.68,
4035,-1.11,-0.66,
4036,-1.12,-0.64,
4037,-1.115,-0.615,
4038,-1.115,-0.59,
4039,-1.11,-0.595,
4040,-1.11,-0.585,
4041,-1.125,-0.59,
4042,-1.15,-0.58,
4043,-1.16,-0.585,
4044,-1.17,-0.57,
4045,-1.18,-0.55,
4046,-1.175,-0.53,
4047,-1.175,-0.5,
4048,-1.17,-0.505,
4049,-1.16,-0.49,
4050,-1.155,-0.455,
4051,-1.145,-0.445,
4052,-1.145,-0.415,
4053,-1.135,-0.41,
4054,-1.12,-0.405,
4055,-1.105,-0.385,
4056,-1.1,-0.39,
4057,-1.105,-0.38,
4058,-1.095,-0.375,
4059,-1.08,-0.345,
4060,-1.05,-0.33,
4061,-1.04,-0.3,
4062,-1.0,-0.28,
4063,-0.96,-0.27,
4064,-0.915,-0.26,
4065,-0.88,-0.26,
4066,-0.87,-0.25,
4067,-0.84,-0.24,
4068,-0.81,-0.235,
4069,-0.795,-0.23,
4070,-0.735,-0.21,
4071,-0.67,-0.185,
4072,-0.645,-0.19,
4073,-0.595,-0.185,
4074,-0.565,-0.175,
4075,-0.525,-0.175,
4076,-0.5,-0.17,
4077,-0.47,-0.175,
4078,-0.44,-0.18,
4079,-0.365,-0.18,
4080,-0.32,-0.19,
4081,-0.27,-0.185,
4082,-0.225,-0.185,
4083,-0.185,-0.205,
4084,-0.155,-0.22,
4085,-0.115,-0.225,
4086,-0.055,-0.22,
4087,-0.025,-0.225,
4088,0.02,-0.24,
4089,0.04,-0.265,
4090,0.04,-0.295,
4091,0.04,-0.32,
4092,0.04,-0.345,
4093,0.075,-0.355,
4094,0.08,-0.355,
4095,0.105,-0.38,
4096,0.12,-0.38,
4097,0.13,-0.38,
4098,0.13,-0.405,
4099,0.12,-0.425,
4100,0.115,-0.445,
4101,0.1,-0.465,
4102,0.07,-0.475,
4103,0.06,-0.49,
4104,0.05,-0.495,
4105,0.01,-0.495,
4106,-0.01,-0.515,
4107,-0.02,-0.52,
4108,-0.04,-0.53,
4109,-0.06,-0.535,
4110,-0.05,-0.535,
4111,-0.06,-0.545,
4112,-0.07,-0.525,
4113,-0.11,-0.53,
4114,-0.14,-0.525,
4115,-0.17,-0.53,
4116,-0.21,-0.55,
4117,-0.255,-0.54,
4118,-0.265,-0.52,
4119,-0.29,-0.515,
4120,-0.305,-0.49,
4121,-0.32,-0.465,
4122,-0.34,-0.45,
4123,-0.365,-0.45,
4124,-0.39,-0.455,
4125,-0.425,-0.455,
4126,-0.44,-0.44,
4127,-0.455,-0.445,
4128,-0.465,-0.425,
4129,-0.475,-0.4,
4130,-0.49,-0.37,
4131,-0.5,-0.345,
4132,-0.52,-0.305,
4133,-0.535,-0.275,
4134,-0.515,-0.24,
4135,-0.53,-0.205,
4136,-0.515,-0.175,
4137,-0.55,-0.145,
4138,-0.565,-0.12,
4139,-0.57,-0.13,
4140,-0.58,-0.155,
4141,-0.59,-0.19,
4142,-0.55,-0.22,
4143,-0.505,-0.25,
4144,-0.46,-0.26,
4145,-0.4,-0.275,
4146,-0.36,-0.3,
4147,-0.33,-0.345,
4148,-0.325,-0.39,
4149,-0.32,-0.445,
4150,-0.31,-0.475,
4151,-0.31,-0.515,
4152,-0.295,-0.54,
4153,-0.295,-0.53,
4154,-0.285,-0.51,
4155,-0.29,-0.51,
4156,-0.31,-0.5,
4157,-0.335,-0.495,
4158,-0.37,-0.505,
4159,-0.42,-0.55,
4160,-0.475,-0.57,
4161,-0.535,-0.57,
4162,-0.595,-0.585,
4163,-0.65,-0.6,
4164,-0.7,-0.615,
4165,-0.725,-0.62,
4166,-0.725,-0.625,
4167,-0.715,-0.625,
4168,-0.695,-0.61,
4169,-0.7,-0.605,
4170,-0.695,-0.6,
4171,-0.685,-0.595,
4172,-0.68,-0.595,
4173,-0.69,-0.595,
4174,-0.68,-0.62,
4175,-0.685,-0.635,
4176,-0.68,-0.65,
4177,-0.675,-0.64,
4178,-0.69,-0.66,
4179,-0.69,-0.65,
4180,-0.69,-0.64,
4181,-0.7,-0.645,
4182,-0.68,-0.62,
4183,-0.655,-0.61,
4184,-0.65,-0.57,
4185,-0.65,-0.545,
4186,-0.67,-0.495,
4187,-0.69,-0.46,
4188,-0.72,-0.46,
4189,-0.73,-0.53,
4190,-0.705,-0.695,
4191,-0.625,-0.95,
4192,-0.485,-1.31,
4193,-0.285,-1.68,
4194,-0.03,-2.055,
4195,0.245,-2.385,
4196,0.545,-2.605,
4197,0.885,-2.78,
4198,1.26,-2.87,
4199,1.565,-2.925,
4200,1.775,-2.93,N
4201,1.78,-2.905,
4202,1.545,-2.86,
4203,1.16,-2.795,
4204,0.7,-2.73,
4205,0.205,-2.605,
4206,-0.225,-2.35,
4207,-0.6,-1.96,
4208,-0.895,-1.575,
4209,-1.12,-1.245,
4210,-1.27,-1.03,
4211,-1.36,-0.91,
4212,-1.38,-0.88,
4213,-1.325,-0.88,
4214,-1.225,-0.885,
4215,-1.09,-0.855,
4216,-0.985,-0.83,
4217,-0.905,-0.81,
4218,-0.855,-0.78,
4219,-0.88,-0.765,
4220,-0.91,-0.75,
4221,-0.96,-0.745,
4222,-0.99,-0.74,
4223,-1.0,-0.725,
4224,-1.015,-0.72,
4225,-1.025,-0.71,
4226,-1.035,-0.695,
4227,-1.035,-0.67,
4228,-1.055,-0.655,
4229,-1.055,-0.65,
4230,-1.045,-0.625,
4231,-1.045,-0.61,
4232,-1.035,-0.595,
4233,-1.045,-0.595,
4234,-1.055,-0.595,
4235,-1.07,-0.6,
4236,-1.095,-0.6,
4237,-1.11,-0.59,
4238,-1.11,-0.56,
4239,-1.1,-0.525,
4240,-1.085,-0.505,
4241,-1.065,-0.47,
4242,-1.065,-0.465,
4243,-1.07,-0.455,
4244,-1.07,-0.46,
4245,-1.07,-0.45,
4246,-1.065,-0.435,
4247,-1.055,-0.425,
4248,-1.04,-0.415,
4249,-1.03,-0.385,
4250,-1.01,-0.365,
4251,-0.985,-0.33,
4252,-0.98,-0.325,
4253,-0.97,-0.315,
4254,-0.96,-0.295,
4255,-0.945,-0.28,
4256,-0.9,-0.27,
4257,-0.87,-0.24,
4258,-0.835,-0.225,
4259,-0.8,-0.2,
4260,-0.78,-0.2,
4261,-0.74,-0.19,
4262,-0.72,-0.18,
4263,-0.675,-0.165,
4264,-0.64,-0.17,
4265,-0.59,-0.15,
4266,-0.55,-0.14,
4267,-0.515,-0.125,
4268,-0.485,-0.11,
4269,-0.465,-0.1,
4270,-0.45,-0.115,
4271,-0.42,-0.105,
4272,-0.39,-0.13,
4273,-0.34,-0.12,
4274,-0.295,-0.12,
4275,-0.25,-0.12,
4276,-0.2,-0.1,
4277,-0.16,-0.1,
4278,-0.11,-0.105,
4279,-0.08,-0.12,
4280,-0.06,-0.145,
4281,-0.03,-0.17,
4282,-0.005,-0.185,
4283,0.015,-0.2,
4284,0.04,-0.21,
4285,0.055,-0.215,
4286,0.065,-0.23,
4287,0.08,-0.24,
4288,0.095,-0.245,
4289,0.115,-0.265,
4290,0.11,-0.27,
4291,0.125,-0.3,
4292,0.13,-0.31,
4293,0.135,-0.33,
4294,0.12,-0.34,
4295,0.105,-0.36,
4296,0.095,-0.365,
4297,0.08,-0.39,
4298,0.07,-0.415,
4299,0.065,-0.42,
4300,0.065,-0.435,
4301,0.065,-0.44,
4302,0.045,-0.455,
4303,0.025,-0.475,
4304,0.0,-0.48,
4305,-0.035,-0.485,
4306,-0.065,-0.495,
4307,-0.1,-0.515,
4308,-0.12,-0.525,
4309,-0.14,-0.53,
4310,-0.175,-0.52,
4311,-0.185,-0.49,
4312,-0.21,-0.475,
4313,-0.245,-0.47,
4314,-0.27,-0.47,
4315,-0.3,-0.47,
4316,-0.3,-0.475,
4317,-0.33,-0.465,
4318,-0.37,-0.455,
4319,-0.395,-0.455,
4320,-0.445,-0.445,
4321,-0.485,-0.435,
4322,-0.52,-0.425,
4323,-0.52,-0.41,
4324,-0.54,-0.405,
4325,-0.55,-0.39,
4326,-0.56,-0.37,
4327,-0.575,-0.355,
4328,-0.59,-0.34,
4329,-0.625,-0.335,
4330,-0.655,-0.35,
4331,-0.66,-0.345,
4332,-0.655,-0.335,
4333,-0.665,-0.32,
4334,-0.665,-0.285,
4335,-0.67,-0.255,
4336,-0.685,-0.21,
4337,-0.7,-0.175,
4338,-0.68,-0.15,
4339,-0.67,-0.125,
4340,-0.65,-0.125,
4341,-0.64,-0.135,
4342,-0.62,-0.175,
4343,-0.59,-0.2,
4344,-0.56,-0.225,
4345,-0.525,-0.235,
4346,-0.495,-0.245,
4347,-0.435,-0.275,
4348,-0.405,-0.31,
4349,-0.365,-0.34,
4350,-0.345,-0.365,
4351,-0.34,-0.39,
4352,-0.335,-0.41,
4353,-0.335,-0.425,
4354,-0.34,-0.435,
4355,-0.34,-0.455,
4356,-0.355,-0.465,
4357,-0.37,-0.49,
4358,-0.425,-0.495,
4359,-0.475,-0.495,
4360,-0.555,-0.505,
4361,-0.63,-0.5,
4362,-0.685,-0.51,
4363,-0.695,-0.52,
4364,-0.705,-0.515,
4365,-0.705,-0.53,
4366,-0.69,-0.535,
4367,-0.695,-0.555,
4368,-0.69,-0.555,
4369,-0.705,-0.56,
4370,-0.72,-0.565,
4371,-0.72,-0.56,
4372,-0.725,-0.555,
4373,-0.74,-0.56,
4374,-0.74,-0.565,
4375,-0.745,-0.57,
4376,-0.74,-0.56,
4377,-0.74,-0.555,
4378,-0.74,-0.57,
4379,-0.735,-0.58,
4380,-0.725,-0.595,
4381,-0.715,-0.59,
4382,-0.715,-0.605,
4383,-0.72,-0.595,
4384,-0.715,-0.555,
4385,-0.71,-0.505,
4386,-0.71,-0.45,
4387,-0.71,-0.375,
4388,-0.73,-0.34,
4389,-0.735,-0.36,
4390,-0.765,-0.46,
4391,-0.755,-0.655,
4392,-0.7,-0.975,
4393,-0.575,-1.36,
4394,-0.365,-1.755,
4395,-0.055,-2.11,
4396,0.305,-2.34,
4397,0.73,-2.485,
4398,1.13,-2.545,
4399,1.525,-2.54,
4400,1.8,-2.505,
4401,1.895,-2.455,N
4402,1.775,-2.405,
4403,1.475,-2.33,
4404,1.045,-2.24,
4405,0.545,-2.135,
4406,0.025,-1.91,
4407,-0.46,-1.64,
4408,-0.865,-1.375,
4409,-1.205,-1.145,
4410,-1.425,-0.97,
4411,-1.535,-0.86,
4412,-1.52,-0.795,
4413,-1.435,-0.765,
4414,-1.31,-0.75,
4415,-1.18,-0.72,
4416,-1.1,-0.725,
4417,-1.04,-0.685,
4418,-1.02,-0.68,
4419,-1.02,-0.65,
4420,-1.035,-0.645,
4421,-1.05,-0.62,
4422,-1.07,-0.62,
4423,-1.1,-0.615,
4424,-1.11,-0.615,
4425,-1.115,-0.625,
4426,-1.12,-0.63,
4427,-1.11,-0.61,
4428,-1.115,-0.61,
4429,-1.12,-0.58,
4430,-1.12,-0.565,
4431,-1.14,-0.57,
4432,-1.135,-0.56,
4433,-1.15,-0.55,
4434,-1.14,-0.535,
4435,-1.135,-0.515,
4436,-1.135,-0.495,
4437,-1.135,-0.49,
4438,-1.135,-0.485,
4439,-1.145,-0.48,
4440,-1.14,-0.495,
4441,-1.145,-0.485,
4442,-1.14,-0.47,
4443,-1.115,-0.45,
4444,-1.095,-0.43,
4445,-1.08,-0.4,
4446,-1.075,-0.375,
4447,-1.06,-0.375,
4448,-1.045,-0.355,
4449,-1.045,-0.355,
4450,-1.025,-0.34,
4451,-1.005,-0.32,
4452,-0.975,-0.31,
4453,-0.955,-0.285,
4454,-0.935,-0.265,
4455,-0.91,-0.265,
4456,-0.9,-0.25,
4457,-0.86,-0.235,
4458,-0.82,-0.215,
4459,-0.755,-0.21,
4460,-0.72,-0.195,
4461,-0.695,-0.175,
4462,-0.67,-0.18,
4463,-0.645,-0.2,
4464,-0.615,-0.2,
4465,-0.59,-0.2,
4466,-0.545,-0.2,
4467,-0.495,-0.19,
4468,-0.455,-0.165,
4469,-0.43,-0.14,
4470,-0.39,-0.145,
4471,-0.355,-0.16,
4472,-0.315,-0.18,
4473,-0.27,-0.2,
4474,-0.235,-0.21,
4475,-0.195,-0.23,
4476,-0.17,-0.25,
4477,-0.16,-0.265,
4478,-0.14,-0.275,
4479,-0.105,-0.29,
4480,-0.06,-0.32,
4481,-0.025,-0.35,
4482,0.01,-0.355,
4483,0.04,-0.37,
4484,0.045,-0.38,
4485,0.04,-0.395,
4486,0.035,-0.405,
4487,0.02,-0.425,
4488,0.015,-0.445,
4489,0.015,-0.465,
4490,0.02,-0.485,
4491,0.025,-0.48,
4492,0.02,-0.485,
4493,-0.005,-0.48,
4494,-0.005,-0.485,
4495,-0.025,-0.495,
4496,-0.03,-0.505,
4497,-0.04,-0.51,
4498,-0.065,-0.525,
4499,-0.095,-0.525,
4500,-0.14,-0.525,
4501,-0.18,-0.51,
4502,-0.21,-0.495,
4503,-0.22,-0.495,
4504,-0.265,-0.505,
4505,-0.27,-0.485,
4506,-0.28,-0.48,
4507,-0.295,-0.455,
4508,-0.335,-0.45,
4509,-0.38,-0.43,
4510,-0.415,-0.42,
4511,-0.445,-0.415,
4512,-0.47,-0.415,
4513,-0.49,-0.41,
4514,-0.505,-0.405,
4515,-0.535,-0.39,
4516,-0.56,-0.37,
4517,-0.57,-0.36,
4518,-0.575,-0.355,
4519,-0.575,-0.345,
4520,-0.585,-0.34,
4521,-0.59,-0.335,
4522,-0.585,-0.34,
4523,-0.6,-0.32,
4524,-0.62,-0.3,
4525,-0.645,-0.275,
4526,-0.65,-0.23,
4527,-0.645,-0.2,
4528,-0.655,-0.16,
4529,-0.65,-0.11,
4530,-0.62,-0.09,
4531,-0.605,-0.085,
4532,-0.605,-0.1,
4533,-0.59,-0.13,
4534,-0.585,-0.155,
4535,-0.555,-0.175,
4536,-0.52,-0.215,
4537,-0.485,-0.23,
4538,-0.43,-0.265,
4539,-0.41,-0.305,
4540,-0.385,-0.335,
4541,-0.365,-0.36,
4542,-0.355,-0.375,
4543,-0.335,-0.385,
4544,-0.305,-0.4,
4545,-0.305,-0.41,
4546,-0.31,-0.42,
4547,-0.34,-0.44,
4548,-0.385,-0.455,
4549,-0.45,-0.465,
4550,-0.51,-0.48,
4551,-0.57,-0.485,
4552,-0.625,-0.47,
4553,-0.65,-0.47,
4554,-0.665,-0.485,
4555,-0.71,-0.5,
4556,-0.73,-0.51,
4557,-0.75,-0.53,
4558,-0.77,-0.535,
4559,-0.775,-0.535,
4560,-0.77,-0.54,
4561,-0.78,-0.55,
4562,-0.775,-0.545,
4563,-0.78,-0.545,
4564,-0.785,-0.545,
4565,-0.79,-0.55,
4566,-0.79,-0.54,
4567,-0.77,-0.535,
4568,-0.765,-0.545,
4569,-0.74,-0.55,
4570,-0.75,-0.555,
4571,-0.76,-0.56,
4572,-0.78,-0.565,
4573,-0.795,-0.575,
4574,-0.805,-0.57,
4575,-0.815,-0.545,
4576,-0.8,-0.525,
4577,-0.795,-0.455,
4578,-0.785,-0.395,
4579,-0.795,-0.365,
4580,-0.805,-0.375,
4581,-0.815,-0.5,
4582,-0.8,-0.735,
4583,-0.72,-1.05,
4584,-0.555,-1.43,
4585,-0.335,-1.795,
4586,-0.055,-2.12,
4587,0.265,-2.355,
4588,0.615,-2.525,
4589,0.985,-2.62,
4590,1.36,-2.66,
4591,1.675,-2.66,
4592,1.825,-2.63,N
4593,1.8,-2.575,
4594,1.57,-2.515,
4595,1.19,-2.46,
4596,0.72,-2.375,
4597,0.22,-2.2,
4598,-0.285,-1.91,
4599,-0.7,-1.57,
4600,-1.05,-1.26,
4601,-1.315,-1.03,
4602,-1.475,-0.875,
4603,-1.53,-0.815,
4604,-1.5,-0.79,
4605,-1.385,-0.79,
4606,-1.24,-0.785,
4607,-1.105,-0.78,
4608,-1.02,-0.75,
4609,-0.98,-0.725,
4610,-1.0,-0.69,
4611,-1.025,-0.675,
4612,-1.07,-0.665,
4613,-1.095,-0.66,
4614,-1.12,-0.655,
4615,-1.115,-0.66,
4616,-1.105,-0.655,
4617,-1.1,-0.645,
4618,-1.105,-0.64,
4619,-1.095,-0.63,
4620,-1.115,-0.63,
4621,-1.135,-0.61,
4622,-1.17,-0.6,
4623,-1.19,-0.595,
4624,-1.195,-0.575,
4625,-1.185,-0.565,
4626,-1.175,-0.54,
4627,-1.165,-0.525,
4628,-1.17,-0.525,
4629,-1.17,-0.515,
4630,-1.195,-0.52,
4631,-1.215,-0.52,
4632,-1.21,-0.525,
4633,-1.22,-0.52,
4634,-1.22,-0.5,
4635,-1.21,-0.47,
4636,-1.195,-0.44,
4637,-1.2,-0.425,
4638,-1.195,-0.395,
4639,-1.185,-0.39,
4640,-1.175,-0.385,
4641,-1.16,-0.37,
4642,-1.145,-0.37,
4643,-1.13,-0.355,
4644,-1.125,-0.355,
4645,-1.115,-0.335,
4646,-1.11,-0.325,
4647,-1.1,-0.3,
4648,-1.09,-0.29,
4649,-1.045,-0.27,
4650,-1.01,-0.265,
4651,-0.97,-0.25,
4652,-0.94,-0.23,
4653,-0.91,-0.215,
4654,-0.89,-0.205,
4655,-0.865,-0.2,
4656,-0.84,-0.215,
4657,-0.8,-0.205,
4658,-0.76,-0.215,
4659,-0.72,-0.205,
4660,-0.68,-0.185,
4661,-0.64,-0.185,
4662,-0.625,-0.16,
4663,-0.57,-0.165,
4664,-0.54,-0.15,
4665,-0.5,-0.17,
4666,-0.435,-0.19,
4667,-0.395,-0.19,
4668,-0.35,-0.215,
4669,-0.315,-0.215,
4670,-0.28,-0.22,
4671,-0.23,-0.215,
4672,-0.195,-0.22,
4673,-0.15,-0.225,
4674,-0.11,-0.24,
4675,-0.06,-0.255,
4676,-0.02,-0.285,
4677,0.005,-0.315,
4678,0.015,-0.32,
4679,0.03,-0.33,
4680,0.035,-0.335,
4681,0.05,-0.37,
4682,0.06,-0.365,
4683,0.075,-0.39,
4684,0.08,-0.405,
4685,0.075,-0.405,
4686,0.075,-0.42,
4687,0.065,-0.42,
4688,0.05,-0.42,
4689,0.04,-0.43,
4690,0.035,-0.44,
4691,0.025,-0.465,
4692,0.01,-0.475,
4693,0.0,-0.5,
4694,-0.03,-0.5,
4695,-0.06,-0.495,
4696,-0.08,-0.495,
4697,-0.1,-0.48,
4698,-0.12,-0.485,
4699,-0.125,-0.495,
4700,-0.14,-0.495,
4701,-0.17,-0.495,
4702,-0.2,-0.49,
4703,-0.245,-0.49,
4704,-0.28,-0.48,
4705,-0.315,-0.465,
4706,-0.335,-0.45,
4707,-0.35,-0.44,
4708,-0.37,-0.43,
4709,-0.4,-0.415,
4710,-0.43,-0.41,
4711,-0.45,-0.39,
4712,-0.465,-0.39,
4713,-0.48,-0.38,
4714,-0.485,-0.36,
4715,-0.505,-0.35,
4716,-0.52,-0.315,
4717,-0.54,-0.3,
4718,-0.55,-0.265,
4719,-0.575,-0.23,
4720,-0.58,-0.195,
4721,-0.58,-0.16,
4722,-0.56,-0.105,
4723,-0.555,-0.09,
4724,-0.55,-0.085,
4725,-0.56,-0.095,
4726,-0.555,-0.12,
4727,-0.56,-0.145,
4728,-0.545,-0.185,
4729,-0.52,-0.19,
4730,-0.49,-0.21,
4731,-0.44,-0.24,
4732,-0.405,-0.28,
4733,-0.395,-0.315,
4734,-0.36,-0.36,
4735,-0.35,-0.385,
4736,-0.33,-0.405,
4737,-0.3,-0.4,
4738,-0.285,-0.405,
4739,-0.29,-0.4,
4740,-0.315,-0.41,
4741,-0.35,-0.43,
4742,-0.4,-0.445,
4743,-0.455,-0.465,
4744,-0.505,-0.48,
4745,-0.555,-0.48,
4746,-0.595,-0.465,
4747,-0.635,-0.485,
4748,-0.665,-0.48,
4749,-0.7,-0.495,
4750,-0.74,-0.52,
4751,-0.74,-0.54,
4752,-0.74,-0.545,
4753,-0.73,-0.54,
4754,-0.725,-0.535,
4755,-0.72,-0.53,
4756,-0.715,-0.515,
4757,-0.74,-0.525,
4758,-0.735,-0.525,
4759,-0.75,-0.545,
4760,-0.745,-0.545,
4761,-0.74,-0.54,
4762,-0.725,-0.55,
4763,-0.725,-0.54,
4764,-0.735,-0.555,
4765,-0.745,-0.565,
4766,-0.755,-0.555,
4767,-0.75,-0.54,
4768,-0.74,-0.515,
4769,-0.73,-0.49,
4770,-0.74,-0.43,
4771,-0.74,-0.38,
4772,-0.745,-0.36,
4773,-0.765,-0.375,
4774,-0.785,-0.47,
4775,-0.77,-0.665,
4776,-0.695,-0.985,
4777,-0.525,-1.39,
4778,-0.295,-1.805,
4779,0.045,-2.19,
4780,0.44,-2.47,
4781,0.905,-2.655,
4782,1.365,-2.74,
4783,1.73,-2.755,
4784,1.925,-2.735,
4785,1.925,-2.675,N
4786,1.705,-2.635,
4787,1.34,-2.585,
4788,0.895,-2.525,
4789,0.4,-2.42,
4790,-0.03,-2.165,
4791,-0.41,-1.805,
4792,-0.735,-1.38,
4793,-1.015,-1.05,
4794,-1.205,-0.825,
4795,-1.29,-0.72,
4796,-1.285,-0.72,
4797,-1.195,-0.745,
4798,-1.07,-0.78,
4799,-0.955,-0.79,
4800,-0.89,-0.785,
4801,-0.88,-0.75,
4802,-0.915,-0.73,
4803,-0.95,-0.695,
4804,-1.01,-0.68,
4805,-1.04,-0.675,
4806,-1.045,-0.66,
4807,-1.04,-0.65,
4808,-1.02,-0.65,
4809,-1.02,-0.64,
4810,-1.03,-0.615,
4811,-1.05,-0.605,
4812,-1.075,-0.605,
4813,-1.09,-0.59,
4814,-1.105,-0.575,
4815,-1.105,-0.565,
4816,-1.105,-0.555,
4817,-1.105,-0.525,
4818,-1.105,-0.505,
4819,-1.105,-0.48,
4820,-1.125,-0.48,
4821,-1.135,-0.465,
4822,-1.135,-0.465,
4823,-1.14,-0.465,
4824,-1.145,-0.465,
4825,-1.16,-0.45,
4826,-1.165,-0.41,
4827,-1.155,-0.405,
4828,-1.15,-0.38,
4829,-1.155,-0.36,
4830,-1.135,-0.35,
4831,-1.115,-0.33,
4832,-1.1,-0.33,
4833,-1.085,-0.31,
4834,-1.065,-0.295,
4835,-1.055,-0.285,
4836,-1.035,-0.27,
4837,-1.015,-0.255,
4838,-0.985,-0.245,
4839,-0.96,-0.225,
4840,-0.95,-0.2,
4841,-0.905,-0.175,
4842,-0.87,-0.155,
4843,-0.84,-0.13,
4844,-0.785,-0.125,
4845,-0.725,-0.1,
4846,-0.685,-0.115,
4847,-0.63,-0.11,
4848,-0.595,-0.13,
4849,-0.565,-0.115,
4850,-0.53,-0.11,
4851,-0.49,-0.09,
4852,-0.435,-0.07,
4853,-0.38,-0.065,
4854,-0.325,-0.06,
4855,-0.27,-0.065,
4856,-0.24,-0.07,
4857,-0.195,-0.09,
4858,-0.15,-0.09,
4859,-0.125,-0.1,
4860,-0.085,-0.115,
4861,-0.04,-0.13,
4862,0.0,-0.145,
4863,0.03,-0.15,
4864,0.055,-0.155,
4865,0.085,-0.17,
4866,0.1,-0.175,
4867,0.115,-0.185,
4868,0.14,-0.2,
4869,0.15,-0.205,
4870,0.165,-0.22,
4871,0.165,-0.25,
4872,0.175,-0.26,
4873,0.165,-0.29,
4874,0.155,-0.3,
4875,0.14,-0.305,
4876,0.13,-0.32,
4877,0.135,-0.335,
4878,0.14,-0.345,
4879,0.135,-0.35,
4880,0.13,-0.375,
4881,0.105,-0.39,
4882,0.09,-0.405,
4883,0.065,-0.435,
4884,0.025,-0.445,
4885,0.005,-0.46,
4886,0.0,-0.455,
4887,-0.015,-0.455,
4888,-0.02,-0.44,
4889,-0.035,-0.435,
4890,-0.05,-0.43,
4891,-0.08,-0.425,
4892,-0.1,-0.43,
4893,-0.115,-0.425,
4894,-0.14,-0.42,
4895,-0.165,-0.415,
4896,-0.205,-0.415,
4897,-0.245,-0.405,
4898,-0.29,-0.395,
4899,-0.32,-0.39,
4900,-0.345,-0.375,
4901,-0.35,-0.345,
4902,-0.36,-0.32,
4903,-0.37,-0.31,
4904,-0.375,-0.295,
4905,-0.41,-0.295,
4906,-0.425,-0.29,
4907,-0.44,-0.28,
4908,-0.46,-0.26,
4909,-0.465,-0.225,
4910,-0.45,-0.185,
4911,-0.45,-0.155,
4912,-0.46,-0.115,
4913,-0.46,-0.115,
4914,-0.465,-0.115,
4915,-0.445,-0.15,
4916,-0.425,-0.17,
4917,-0.405,-0.215,
4918,-0.37,-0.245,
4919,-0.34,-0.265,
4920,-0.31,-0.295,
4921,-0.295,-0.34,
4922,-0.28,-0.375,
4923,-0.27,-0.41,
4924,-0.255,-0.425,
4925,-0.22,-0.445,
4926,-0.19,-0.45,
4927,-0.175,-0.44,
4928,-0.175,-0.44,
4929,-0.18,-0.435,
4930,-0.2,-0.455,
4931,-0.24,-0.485,
4932,-0.285,-0.51,
4933,-0.34,-0.54,
4934,-0.4,-0.53,
4935,-0.46,-0.535,
4936,-0.515,-0.54,
4937,-0.57,-0.545,
4938,-0.615,-0.54,
4939,-0.64,-0.54,
4940,-0.65,-0.56,
4941,-0.615,-0.56,
4942,-0.605,-0.56,
4943,-0.605,-0.58,
4944,-0.61,-0.59,
4945,-0.62,-0.585,
4946,-0.645,-0.59,
4947,-0.65,-0.6,
4948,-0.655,-0.61,
4949,-0.65,-0.595,
4950,-0.645,-0.595,
4951,-0.635,-0.59,
4952,-0.62,-0.595,
4953,-0.615,-0.59,
4954,-0.615,-0.59,
4955,-0.63,-0.605,
4956,-0.63,-0.61,
4957,-0.65,-0.625,
4958,-0.645,-0.615,
4959,-0.625,-0.6,
4960,-0.615,-0.56,
4961,-0.625,-0.52,
4962,-0.62,-0.445,
4963,-0.635,-0.415,
4964,-0.65,-0.42,
4965,-0.65,-0.51,
4966,-0.63,-0.69,
4967,-0.57,-1.0,
4968,-0.42,-1.39,
4969,-0.215,-1.805,
4970,0.065,-2.185,
4971,0.4,-2.49,
4972,0.805,-2.685,
4973,1.215,-2.825,
4974,1.59,-2.87,
4975,1.86,-2.87,
4976,1.935,-2.86,N
4977,1.8,-2.82,
4978,1.49,-2.79,
4979,1.09,-2.755,
4980,0.65,-2.715,
4981,0.215,-2.66,
4982,-0.14,-2.495,
4983,-0.435,-2.185,
4984,-0.655,-1.785,
4985,-0.855,-1.38,
4986,-1.02,-1.055,
4987,-1.16,-0.855,
4988,-1.22,-0.78,
4989,-1.195,-0.77,
4990,-1.1,-0.79,
4991,-0.99,-0.825,
4992,-0.895,-0.83,
4993,-0.825,-0.825,
4994,-0.81,-0.795,
4995,-0.82,-0.755,
4996,-0.865,-0.745,
4997,-0.895,-0.715,
4998,-0.905,-0.695,
4999,-0.89,-0.68,
5000,-0.885,-0.68,
5001,-0.885,-0.67,
5002,-0.875,-0.665,
5003,-0.89,-0.675,
5004,-0.905,-0.665,
5005,-0.925,-0.66,
5006,-0.93,-0.645,
5007,-0.935,-0.635,
5008,-0.94,-0.615,
5009,-0.935,-0.6,
5010,-0.925,-0.58,
5011,-0.94,-0.555,
5012,-0.945,-0.55,
5013,-0.95,-0.53,
5014,-0.965,-0.515,
5015,-0.955,-0.52,
5016,-0.96,-0.525,
5017,-0.945,-0.53,
5018,-0.95,-0.52,
5019,-0.955,-0.51,
5020,-0.96,-0.485,
5021,-0.965,-0.445,
5022,-0.97,-0.425,
5023,-0.945,-0.405,
5024,-0.92,-0.385,
5025,-0.88,-0.365,
5026,-0.865,-0.365,
5027,-0.85,-0.34,
5028,-0.835,-0.335,
5029,-0.825,-0.325,
5030,-0.815,-0.295,
5031,-0.78,-0.275,
5032,-0.75,-0.25,
5033,-0.705,-0.23,
5034,-0.68,-0.21,
5035,-0.67,-0.195,
5036,-0.645,-0.175,
5037,-0.63,-0.175,
5038,-0.605,-0.165,
5039,-0.565,-0.14,
5040,-0.51,-0.14,
5041,-0.475,-0.11,
5042,-0.44,-0.1,
5043,-0.395,-0.085,
5044,-0.365,-0.07,
5045,-0.325,-0.07,
5046,-0.275,-0.075,
5047,-0.23,-0.06,
5048,-0.175,-0.065,
5049,-0.135,-0.055,
5050,-0.1,-0.05,
5051,-0.07,-0.05,
5052,-0.06,-0.075,
5053,-0.04,-0.08,
5054,-0.015,-0.09,
5055,0.03,-0.095,
5056,0.065,-0.095,
5057,0.115,-0.105,
5058,0.16,-0.1,
5059,0.175,-0.12,
5060,0.2,-0.145,
5061,0.2,-0.17,
5062,0.195,-0.205,
5063,0.19,-0.225,
5064,0.2,-0.25,
5065,0.205,-0.255,
5066,0.195,-0.25,
5067,0.175,-0.265,
5068,0.17,-0.265,
5069,0.16,-0.28,
5070,0.16,-0.29,
5071,0.165,-0.32,
5072,0.16,-0.335,
5073,0.155,-0.345,
5074,0.14,-0.37,
5075,0.095,-0.385,
5076,0.07,-0.41,
5077,0.035,-0.425,
5078,-0.005,-0.455,
5079,-0.02,-0.455,
5080,-0.045,-0.455,
5081,-0.065,-0.435,
5082,-0.09,-0.445,
5083,-0.12,-0.44,
5084,-0.12,-0.425,
5085,-0.15,-0.43,
5086,-0.175,-0.445,
5087,-0.195,-0.45,
5088,-0.22,-0.45,
5089,-0.24,-0.445,
5090,-0.255,-0.43,
5091,-0.29,-0.405,
5092,-0.325,-0.385,
5093,-0.36,-0.38,
5094,-0.395,-0.39,
5095,-0.41,-0.385,
5096,-0.43,-0.385,
5097,-0.47,-0.375,
5098,-0.495,-0.36,
5099,-0.525,-0.35,
5100,-0.545,-0.345,
5101,-0.57,-0.335,
5102,-0.58,-0.325,
5103,-0.595,-0.305,
5104,-0.585,-0.29,
5105,-0.585,-0.27,
5106,-0.585,-0.215,
5107,-0.58,-0.205,
5108,-0.58,-0.19,
5109,-0.585,-0.155,
5110,-0.59,-0.145,
5111,-0.595,-0.12,
5112,-0.595,-0.115,
5113,-0.595,-0.13,
5114,-0.58,-0.13,
5115,-0.56,-0.155,
5116,-0.515,-0.175,
5117,-0.46,-0.19,
5118,-0.42,-0.22,
5119,-0.365,-0.24,
5120,-0.345,-0.29,
5121,-0.32,-0.32,
5122,-0.31,-0.365,
5123,-0.325,-0.39,
5124,-0.305,-0.405,
5125,-0.28,-0.425,
5126,-0.26,-0.43,
5127,-0.25,-0.425,
5128,-0.255,-0.435,
5129,-0.275,-0.44,
5130,-0.335,-0.445,
5131,-0.375,-0.445,
5132,-0.455,-0.47,
5133,-0.525,-0.48,
5134,-0.575,-0.51,
5135,-0.605,-0.535,
5136,-0.64,-0.55,
5137,-0.66,-0.555,
5138,-0.665,-0.555,
5139,-0.68,-0.555,
5140,-0.675,-0.535,
5141,-0.655,-0.545,
5142,-0.645,-0.54,
5143,-0.645,-0.54,
5144,-0.65,-0.55,
5145,-0.66,-0.56,
5146,-0.68,-0.565,
5147,-0.695,-0.565,
5148,-0.71,-0.575,
5149,-0.7,-0.575,
5150,-0.67,-0.57,
5151,-0.66,-0.58,
5152,-0.65,-0.565,
5153,-0.645,-0.57,
5154,-0.645,-0.54,
5155,-0.65,-0.54,
5156,-0.66,-0.515,
5157,-0.66,-0.475,
5158,-0.655,-0.44,
5159,-0.655,-0.405,
5160,-0.67,-0.375,
5161,-0.685,-0.395,
5162,-0.715,-0.495,
5163,-0.71,-0.71,
5164,-0.61,-1.03,
5165,-0.445,-1.445,
5166,-0.195,-1.84,
5167,0.13,-2.17,
5168,0.54,-2.42,
5169,0.98,-2.545,
5170,1.41,-2.59,
5171,1.775,-2.57,
5172,1.985,-2.53,N
5173,1.97,-2.48,
5174,1.72,-2.415,
5175,1.34,-2.35,
5176,0.88,-2.27,
5177,0.42,-2.155,
5178,-0.03,-1.95,
5179,-0.43,-1.685,
5180,-0.785,-1.395,
5181,-1.085,-1.155,
5182,-1.315,-0.97,
5183,-1.445,-0.885,
5184,-1.475,-0.83,
5185,-1.405,-0.81,
5186,-1.3,-0.77,
5187,-1.165,-0.73,
5188,-1.05,-0.685,
5189,-0.97,-0.66,
5190,-0.925,-0.62,
5191,-0.935,-0.595,
5192,-0.965,-0.605,
5193,-0.99,-0.61,
5194,-1.02,-0.605,
5195,-1.035,-0.62,
5196,-1.045,-0.62,
5197,-1.04,-0.62,
5198,-1.05,-0.605,
5199,-1.03,-0.59,
5200,-1.035,-0.57,
5201,-1.04,-0.56,
5202,-1.055,-0.545,
5203,-1.05,-0.53,
5204,-1.06,-0.535,
5205,-1.065,-0.51,
5206,-1.055,-0.495,
5207,-1.045,-0.51,
5208,-1.055,-0.485,
5209,-1.07,-0.49,
5210,-1.08,-0.49,
5211,-1.095,-0.475,
5212,-1.1,-0.45,
5213,-1.09,-0.435,
5214,-1.06,-0.41,
5215,-1.04,-0.385,
5216,-1.02,-0.395,
5217,-1.01,-0.375,
5218,-1.005,-0.375,
5219,-1.01,-0.38,
5220,-1.01,-0.365,
5221,-1.0,-0.355,
5222,-0.985,-0.33,
5223,-0.94,-0.315,
5224,-0.915,-0.285,
5225,-0.89,-0.27,
5226,-0.875,-0.265,
5227,-0.865,-0.25,
5228,-0.845,-0.25,
5229,-0.83,-0.24,
5230,-0.805,-0.225,
5231,-0.765,-0.215,
5232,-0.745,-0.2,
5233,-0.71,-0.18,
5234,-0.705,-0.16,
5235,-0.68,-0.155,
5236,-0.645,-0.16,
5237,-0.615,-0.165,
5238,-0.58,-0.145,
5239,-0.54,-0.14,
5240,-0.505,-0.13,
5241,-0.465,-0.115,
5242,-0.43,-0.13,
5243,-0.405,-0.14,
5244,-0.39,-0.145,
5245,-0.365,-0.16,
5246,-0.33,-0.155,
5247,-0.29,-0.16,
5248,-0.245,-0.17,
5249,-0.2,-0.17,
5250,-0.17,-0.16,
5251,-0.14,-0.185,
5252,-0.105,-0.205,
5253,-0.08,-0.22,
5254,-0.055,-0.26,
5255,-0.03,-0.305,
5256,0.0,-0.315,
5257,0.02,-0.31,
5258,0.035,-0.33,
5259,0.025,-0.325,
5260,0.025,-0.34,
5261,0.045,-0.36,
5262,0.06,-0.355,
5263,0.065,-0.37,
5264,0.085,-0.39,
5265,0.095,-0.4,
5266,0.08,-0.43,
5267,0.065,-0.44,
5268,0.04,-0.45,
5269,0.015,-0.46,
5270,0.01,-0.455,
5271,-0.025,-0.465,
5272,-0.035,-0.465,
5273,-0.05,-0.46,
5274,-0.05,-0.45,
5275,-0.075,-0.445,
5276,-0.1,-0.455,
5277,-0.135,-0.445,
5278,-0.16,-0.46,
5279,-0.19,-0.465,
5280,-0.215,-0.48,
5281,-0.22,-0.49,
5282,-0.255,-0.47,
5283,-0.275,-0.455,
5284,-0.305,-0.44,
5285,-0.325,-0.405,
5286,-0.36,-0.41,
5287,-0.36,-0.395,
5288,-0.38,-0.39,
5289,-0.395,-0.375,
5290,-0.415,-0.375,
5291,-0.44,-0.365,
5292,-0.485,-0.355,
5293,-0.525,-0.35,
5294,-0.56,-0.34,
5295,-0.57,-0.345,
5296,-0.585,-0.345,
5297,-0.565,-0.32,
5298,-0.575,-0.325,
5299,-0.57,-0.3,
5300,-0.57,-0.28,
5301,-0.585,-0.255,
5302,-0.585,-0.24,
5303,-0.6,-0.235,
5304,-0.61,-0.225,
5305,-0.605,-0.21,
5306,-0.605,-0.17,
5307,-0.62,-0.145,
5308,-0.62,-0.105,
5309,-0.61,-0.07,
5310,-0.605,-0.07,
5311,-0.575,-0.08,
5312,-0.54,-0.09,
5313,-0.495,-0.13,
5314,-0.465,-0.16,
5315,-0.44,-0.185,
5316,-0.415,-0.205,
5317,-0.395,-0.24,
5318,-0.38,-0.27,
5319,-0.35,-0.3,
5320,-0.325,-0.335,
5321,-0.285,-0.365,
5322,-0.27,-0.38,
5323,-0.255,-0.39,
5324,-0.25,-0.41,
5325,-0.26,-0.405,
5326,-0.285,-0.415,
5327,-0.315,-0.43,
5328,-0.335,-0.44,
5329,-0.375,-0.445,
5330,-0.415,-0.455,
5331,-0.465,-0.47,
5332,-0.535,-0.475,
5333,-0.59,-0.5,
5334,-0.625,-0.51,
5335,-0.67,-0.505,
5336,-0.675,-0.525,
5337,-0.695,-0.525,
5338,-0.695,-0.545,
5339,-0.685,-0.54,
5340,-0.695,-0.555,
5341,-0.705,-0.565,
5342,-0.71,-0.555,
5343,-0.725,-0.555,
5344,-0.715,-0.55,
5345,-0.72,-0.55,
5346,-0.7,-0.545,
5347,-0.68,-0.545,
5348,-0.685,-0.535,
5349,-0.68,-0.545,
5350,-0.685,-0.56,
5351,-0.7,-0.58,
5352,-0.725,-0.585,
5353,-0.73,-0.585,
5354,-0.735,-0.575,
5355,-0.725,-0.56,
5356,-0.715,-0.54,
5357,-0.7,-0.515,
5358,-0.71,-0.475,
5359,-0.71,-0.415,
5360,-0.74,-0.355,
5361,-0.76,-0.325,
5362,-0.775,-0.355,
5363,-0.795,-0.445,
5364,-0.765,-0.6,
5365,-0.685,-0.86,
5366,-0.555,-1.205,
5367,-0.36,-1.595,
5368,-0.105,-1.975,
5369,0.21,-2.265,
5370,0.575,-2.455,
5371,0.97,-2.57,
5372,1.37,-2.62,
5373,1.695,-2.605,
5374,1.865,-2.58,N
5375,1.82,-2.54,
5376,1.565,-2.495,
5377,1.185,-2.46,
5378,0.715,-2.37,
5379,0.24,-2.28,
5380,-0.185,-2.04,
5381,-0.55,-1.725,
5382,-0.85,-1.405,
5383,-1.1,-1.14,
5384,-1.315,-0.995,
5385,-1.465,-0.905,
5386,-1.515,-0.855,
5387,-1.465,-0.835,
5388,-1.35,-0.815,
5389,-1.205,-0.77,
5390,-1.08,-0.745,
5391,-0.99,-0.705,
5392,-0.955,-0.68,
5393,-0.96,-0.67,
5394,-1.0,-0.665,
5395,-1.025,-0.66,
5396,-1.045,-0.655,
5397,-1.05,-0.65,
5398,-1.05,-0.64,
5399,-1.06,-0.645,
5400,-1.065,-0.625,
5401,-1.09,-0.625,
5402,-1.105,-0.63,
5403,-1.11,-0.61,
5404,-1.12,-0.59,
5405,-1.11,-0.565,
5406,-1.1,-0.55,
5407,-1.1,-0.525,
5408,-1.105,-0.52,
5409,-1.11,-0.51,
5410,-1.125,-0.525,
5411,-1.14,-0.525,
5412,-1.155,-0.515,
5413,-1.155,-0.515,
5414,-1.145,-0.5,
5415,-1.14,-0.485,
5416,-1.145,-0.455,
5417,-1.145,-0.425,
5418,-1.14,-0.425,
5419,-1.13,-0.405,
5420,-1.125,-0.41,
5421,-1.105,-0.39,
5422,-1.095,-0.395,
5423,-1.085,-0.38,
5424,-1.065,-0.36,
5425,-1.065,-0.35,
5426,-1.065,-0.33,
5427,-1.04,-0.325,
5428,-1.025,-0.315,
5429,-1.0,-0.3,
5430,-0.97,-0.28,
5431,-0.95,-0.26,
5432,-0.92,-0.24,
5433,-0.885,-0.24,
5434,-0.87,-0.23,
5435,-0.86,-0.23,
5436,-0.83,-0.235,
5437,-0.785,-0.235,
5438,-0.75,-0.23,
5439,-0.705,-0.205,
5440,-0.66,-0.185,
5441,-0.615,-0.17,
5442,-0.585,-0.16,
5443,-0.55,-0.15,
5444,-0.505,-0.155,
5445,-0.46,-0.16,
5446,-0.425,-0.18,
5447,-0.38,-0.18,
5448,-0.35,-0.185,
5449,-0.325,-0.185,
5450,-0.315,-0.205,
5451,-0.27,-0.205,
5452,-0.235,-0.21,
5453,-0.185,-0.205,
5454,-0.125,-0.22,
5455,-0.07,-0.23,
5456,-0.03,-0.245,
5457,0.0,-0.255,
5458,0.015,-0.265,
5459,0.025,-0.295,
5460,0.04,-0.32,
5461,0.065,-0.335,
5462,0.085,-0.37,
5463,0.09,-0.38,
5464,0.12,-0.385,
5465,0.125,-0.4,
5466,0.13,-0.405,
5467,0.12,-0.41,
5468,0.11,-0.425,
5469,0.11,-0.425,
5470,0.095,-0.455,
5471,0.075,-0.47,
5472,0.07,-0.485,
5473,0.055,-0.495,
5474,0.035,-0.5,
5475,0.025,-0.495,
5476,0.005,-0.485,
5477,-0.015,-0.49,
5478,-0.015,-0.49,
5479,-0.04,-0.5,
5480,-0.055,-0.505,
5481,-0.1,-0.49,
5482,-0.14,-0.49,
5483,-0.165,-0.485,
5484,-0.2,-0.48,
5485,-0.225,-0.475,
5486,-0.23,-0.47,
5487,-0.25,-0.465,
5488,-0.27,-0.45,
5489,-0.29,-0.445,
5490,-0.325,-0.425,
5491,-0.35,-0.405,
5492,-0.375,-0.395,
5493,-0.39,-0.38,
5494,-0.415,-0.38,
5495,-0.435,-0.37,
5496,-0.46,-0.375,
5497,-0.475,-0.35,
5498,-0.51,-0.325,
5499,-0.55,-0.3,
5500,-0.545,-0.27,
5501,-0.525,-0.24,
5502,-0.515,-0.205,
5503,-0.51,-0.175,
5504,-0.495,-0.15,
5505,-0.515,-0.125,
5506,-0.53,-0.11,
5507,-0.55,-0.1,
5508,-0.55,-0.105,
5509,-0.535,-0.125,
5510,-0.505,-0.135,
5511,-0.48,-0.16,
5512,-0.44,-0.175,
5513,-0.415,-0.2,
5514,-0.375,-0.22,
5515,-0.355,-0.235,
5516,-0.325,-0.27,
5517,-0.31,-0.32,
5518,-0.285,-0.35,
5519,-0.255,-0.385,
5520,-0.235,-0.41,
5521,-0.23,-0.425,
5522,-0.235,-0.445,
5523,-0.245,-0.44,
5524,-0.255,-0.435,
5525,-0.27,-0.445,
5526,-0.295,-0.445,
5527,-0.325,-0.445,
5528,-0.385,-0.45,
5529,-0.445,-0.46,
5530,-0.51,-0.485,
5531,-0.57,-0.505,
5532,-0.61,-0.525,
5533,-0.645,-0.54,
5534,-0.655,-0.545,
5535,-0.645,-0.54,
5536,-0.655,-0.53,
5537,-0.655,-0.53,
5538,-0.645,-0.54,
5539,-0.64,-0.535,
5540,-0.645,-0.55,
5541,-0.655,-0.54,
5542,-0.645,-0.55,
5543,-0.645,-0.555,
5544,-0.645,-0.545,
5545,-0.645,-0.555,
5546,-0.665,-0.57,
5547,-0.675,-0.565,
5548,-0.675,-0.59,
5549,-0.67,-0.585,
5550,-0.655,-0.575,
5551,-0.635,-0.56,
5552,-0.6,-0.555,
5553,-0.595,-0.53,
5554,-0.6,-0.535,
5555,-0.625,-0.505,
5556,-0.65,-0.465,
5557,-0.67,-0.435,
5558,-0.69,-0.405,
5559,-0.715,-0.405,
5560,-0.705,-0.485,
5561,-0.65,-0.67,
5562,-0.56,-0.96,
5563,-0.39,-1.345,
5564,-0.155,-1.77,
5565,0.16,-2.15,
5566,0.535,-2.435,
5567,0.955,-2.625,
5568,1.365,-2.73,
5569,1.72,-2.75,
5570,1.935,-2.74,
5571,1.96,-2.725,N
5572,1.795,-2.685,
5573,1.51,-2.65,
5574,1.16,-2.6,
5575,0.78,-2.545,
5576,0.4,-2.43,
5577,0.025,-2.205,
5578,-0.345,-1.845,
5579,-0.685,-1.475,
5580,-0.99,-1.155,
5581,-1.22,-0.93,
5582,-1.335,-0.81,
5583,-1.325,-0.765,
5584,-1.215,-0.765,
5585,-1.07,-0.77,
5586,-0.94,-0.76,
5587,-0.845,-0.73,
5588,-0.815,-0.71,
5589,-0.84,-0.695,
5590,-0.88,-0.68,
5591,-0.92,-0.68,
5592,-0.945,-0.69,
5593,-0.965,-0.685,
5594,-0.97,-0.675,
5595,-0.975,-0.655,
5596,-0.975,-0.63,
5597,-0.97,-0.61,
5598,-0.975,-0.6,
5599,-0.975,-0.59,
5600,-0.98,-0.605,
5601,-0.98,-0.585,
5602,-0.985,-0.58,
5603,-1.0,-0.585,
5604,-1.015,-0.57,
5605,-1.04,-0.555,
5606,-1.05,-0.565,
5607,-1.07,-0.555,
5608,-1.065,-0.54,
5609,-1.06,-0.54,
5610,-1.055,-0.525,
5611,-1.045,-0.505,
5612,-1.055,-0.49,
5613,-1.06,-0.47,
5614,-1.055,-0.47,
5615,-1.07,-0.445,
5616,-1.08,-0.455,
5617,-1.07,-0.445,
5618,-1.055,-0.415,
5619,-1.05,-0.4,
5620,-1.045,-0.38,
5621,-1.025,-0.375,
5622,-1.01,-0.36,
5623,-1.0,-0.34,
5624,-0.97,-0.335,
5625,-0.955,-0.32,
5626,-0.925,-0.305,
5627,-0.93,-0.3,
5628,-0.9,-0.295,
5629,-0.88,-0.28,
5630,-0.865,-0.255,
5631,-0.83,-0.235,
5632,-0.78,-0.215,
5633,-0.74,-0.195,
5634,-0.675,-0.175,
5635,-0.62,-0.165,
5636,-0.585,-0.16,
5637,-0.55,-0.145,
5638,-0.51,-0.125,
5639,-0.465,-0.125,
5640,-0.42,-0.125,
5641,-0.385,-0.125,
5642,-0.35,-0.13,
5643,-0.32,-0.13,
5644,-0.28,-0.12,
5645,-0.245,-0.115,
5646,-0.195,-0.11,
5647,-0.155,-0.11,
5648,-0.105,-0.12,
5649,-0.04,-0.11,
5650,0.0,-0.145,
5651,0.035,-0.155,
5652,0.055,-0.18,
5653,0.085,-0.2,
5654,0.105,-0.21,
5655,0.13,-0.215,
5656,0.165,-0.225,
5657,0.195,-0.245,
5658,0.23,-0.265,
5659,0.25,-0.275,
5660,0.28,-0.29,
5661,0.275,-0.3,
5662,0.25,-0.33,
5663,0.255,-0.35,
5664,0.24,-0.36,
5665,0.225,-0.41,
5666,0.23,-0.425,
5667,0.22,-0.435,
5668,0.21,-0.445,
5669,0.195,-0.455,
5670,0.17,-0.465,
5671,0.16,-0.47,
5672,0.13,-0.48,
5673,0.13,-0.485,
5674,0.12,-0.5,
5675,0.095,-0.505,
5676,0.05,-0.515,
5677,0.03,-0.535,
5678,0.015,-0.545,
5679,-0.01,-0.545,
5680,-0.02,-0.53,
5681,-0.03,-0.515,
5682,-0.045,-0.49,
5683,-0.045,-0.475,
5684,-0.06,-0.465,
5685,-0.1,-0.45,
5686,-0.13,-0.455,
5687,-0.175,-0.455,
5688,-0.205,-0.465,
5689,-0.235,-0.455,
5690,-0.265,-0.43,
5691,-0.275,-0.415,
5692,-0.295,-0.395,
5693,-0.315,-0.4,
5694,-0.32,-0.385,
5695,-0.345,-0.37,
5696,-0.365,-0.37,
5697,-0.405,-0.35,
5698,-0.41,-0.335,
5699,-0.41,-0.305,
5700,-0.42,-0.29,
5701,-0.44,-0.27,
5702,-0.455,-0.255,
5703,-0.47,-0.225,
5704,-0.47,-0.195,
5705,-0.475,-0.15,
5706,-0.475,-0.125,
5707,-0.46,-0.095,
5708,-0.45,-0.115,
5709,-0.43,-0.125,
5710,-0.405,-0.14,
5711,-0.38,-0.175,
5712,-0.36,-0.205,
5713,-0.335,-0.23,
5714,-0.32,-0.245,
5715,-0.29,-0.275,
5716,-0.26,-0.295,
5717,-0.235,-0.33,
5718,-0.21,-0.345,
5719,-0.185,-0.37,
5720,-0.185,-0.41,
5721,-0.155,-0.43,
5722,-0.15,-0.44,
5723,-0.15,-0.445,
5724,-0.155,-0.45,
5725,-0.17,-0.465,
5726,-0.2,-0.465,
5727,-0.25,-0.465,
5728,-0.315,-0.475,
5729,-0.375,-0.495,
5730,-0.43,-0.505,
5731,-0.49,-0.515,
5732,-0.525,-0.52,
5733,-0.53,-0.525,
5734,-0.535,-0.53,
5735,-0.56,-0.535,
5736,-0.575,-0.54,
5737,-0.59,-0.55,
5738,-0.595,-0.555,
5739,-0.6,-0.555,
5740,-0.59,-0.56,
5741,-0.595,-0.56,
5742,-0.575,-0.555,
5743,-0.57,-0.53,
5744,-0.575,-0.54,
5745,-0.59,-0.525,
5746,-0.61,-0.535,
5747,-0.615,-0.55,
5748,-0.605,-0.56,
5749,-0.615,-0.59,
5750,-0.6,-0.59,
5751,-0.605,-0.58,
5752,-0.595,-0.565,
5753,-0.605,-0.54,
5754,-0.6,-0.51,
5755,-0.595,-0.47,
5756,-0.6,-0.44,
5757,-0.59,-0.395,
5758,-0.62,-0.325,
5759,-0.635,-0.32,
5760,-0.655,-0.36,
5761,-0.655,-0.475,
5762,-0.62,-0.705,
5763,-0.52,-1.045,
5764,-0.335,-1.455,
5765,-0.08,-1.88,
5766,0.23,-2.22,
5767,0.57,-2.485,
5768,0.975,-2.64,
5769,1.37,-2.695,
5770,1.69,-2.69,
5771,1.845,-2.68,N
5772,1.77,-2.635,
5773,1.485,-2.59,
5774,1.055,-2.54,
5775,0.55,-2.47,
5776,0.055,-2.36,
5777,-0.385,-2.125,
5778,-0.745,-1.795,
5779,-1.0,-1.425,
5780,-1.195,-1.12,
5781,-1.32,-0.9,
5782,-1.37,-0.795,
5783,-1.325,-0.77,
5784,-1.245,-0.755,
5785,-1.13,-0.75,
5786,-1.025,-0.75,
5787,-0.965,-0.72,
5788,-0.92,-0.68,
5789,-0.91,-0.67,
5790,-0.91,-0.645,
5791,-0.93,-0.635,
5792,-0.955,-0.615,
5793,-0.97,-0.615,
5794,-0.98,-0.615,
5795,-0.99,-0.61,
5796,-0.99,-0.61,
5797,-0.995,-0.615,
5798,-1.005,-0.595,
5799,-1.02,-0.585,
5800,-1.025,-0.56,
5801,-1.035,-0.53,
5802,-1.04,-0.51,
5803,-1.045,-0.5,
5804,-1.045,-0.49,
5805,-1.04,-0.49,
5806,-1.035,-0.49,
5807,-1.035,-0.485,
5808,-1.045,-0.49,
5809,-1.045,-0.465,
5810,-1.055,-0.455,
5811,-1.045,-0.435,
5812,-1.035,-0.4,
5813,-1.035,-0.385,
5814,-1.015,-0.355,
5815,-0.995,-0.33,
5816,-0.98,-0.31,
5817,-0.965,-0.305,
5818,-0.945,-0.3,
5819,-0.93,-0.285,
5820,-0.915,-0.275,
5821,-0.9,-0.27,
5822,-0.875,-0.255,
5823,-0.86,-0.23,
5824,-0.845,-0.21,
5825,-0.83,-0.195,
5826,-0.81,-0.175,
5827,-0.765,-0.155,
5828,-0.73,-0.15,
5829,-0.68,-0.14,
5830,-0.65,-0.12,
5831,-0.62,-0.115,
5832,-0.59,-0.12,
5833,-0.58,-0.125,
5834,-0.545,-0.12,
5835,-0.5,-0.11,
5836,-0.45,-0.09,
5837,-0.4,-0.09,
5838,-0.355,-0.09,
5839,-0.325,-0.08,
5840,-0.3,-0.085,
5841,-0.27,-0.09,
5842,-0.245,-0.095,
5843,-0.21,-0.09,
5844,-0.17,-0.11,
5845,-0.125,-0.125,
5846,-0.1,-0.145,
5847,-0.06,-0.185,
5848,-0.025,-0.195,
5849,0.005,-0.21,
5850,0.045,-0.22,
5851,0.055,-0.235,
5852,0.09,-0.24,
5853,0.12,-0.26,
5854,0.13,-0.27,
5855,0.12,-0.305,
5856,0.115,-0.32,
5857,0.115,-0.34,
5858,0.095,-0.36,
5859,0.1,-0.365,
5860,0.095,-0.39,
5861,0.095,-0.385,
5862,0.08,-0.405,
5863,0.06,-0.41,
5864,0.04,-0.41,
5865,0.02,-0.43,
5866,-0.005,-0.44,
5867,-0.025,-0.455,
5868,-0.05,-0.455,
5869,-0.07,-0.465,
5870,-0.11,-0.47,
5871,-0.155,-0.475,
5872,-0.18,-0.465,
5873,-0.2,-0.45,
5874,-0.21,-0.43,
5875,-0.22,-0.42,
5876,-0.235,-0.41,
5877,-0.25,-0.4,
5878,-0.28,-0.405,
5879,-0.315,-0.395,
5880,-0.35,-0.405,
5881,-0.385,-0.4,
5882,-0.425,-0.385,
5883,-0.44,-0.35,
5884,-0.47,-0.345,
5885,-0.485,-0.335,
5886,-0.515,-0.315,
5887,-0.53,-0.295,
5888,-0.555,-0.29,
5889,-0.565,-0.29,
5890,-0.57,-0.275,
5891,-0.58,-0.27,
5892,-0.605,-0.27,
5893,-0.625,-0.265,
5894,-0.64,-0.27,
5895,-0.65,-0.26,
5896,-0.63,-0.235,
5897,-0.615,-0.2,
5898,-0.59,-0.17,
5899,-0.575,-0.14,
5900,-0.57,-0.11,
5901,-0.605,-0.065,
5902,-0.615,-0.045,
5903,-0.615,-0.05,
5904,-0.6,-0.075,
5905,-0.575,-0.105,
5906,-0.54,-0.115,
5907,-0.5,-0.13,
5908,-0.465,-0.15,
5909,-0.425,-0.16,
5910,-0.39,-0.19,
5911,-0.355,-0.23,
5912,-0.315,-0.285,
5913,-0.29,-0.305,
5914,-0.275,-0.34,
5915,-0.26,-0.355,
5916,-0.26,-0.37,
5917,-0.28,-0.39,
5918,-0.3,-0.395,
5919,-0.335,-0.405,
5920,-0.365,-0.4,
5921,-0.425,-0.41,
5922,-0.475,-0.415,
5923,-0.525,-0.42,
5924,-0.575,-0.43,
5925,-0.615,-0.455,
5926,-0.64,-0.475,
5927,-0.635,-0.5,
5928,-0.645,-0.505,
5929,-0.66,-0.515,
5930,-0.67,-0.515,
5931,-0.68,-0.505,
5932,-0.685,-0.5,
5933,-0.685,-0.51,
5934,-0.68,-0.505,
5935,-0.665,-0.5,
5936,-0.65,-0.52,
5937,-0.645,-0.515,
5938,-0.645,-0.51,
5939,-0.645,-0.51,
5940,-0.645,-0.505,
5941,-0.64,-0.505,
5942,-0.645,-0.52,
5943,-0.65,-0.515,
5944,-0.645,-0.525,
5945,-0.645,-0.52,
5946,-0.65,-0.485,
5947,-0.65,-0.435,
5948,-0.66,-0.39,
5949,-0.68,-0.315,
5950,-0.67,-0.285,
5951,-0.685,-0.335,
5952,-0.68,-0.465,
5953,-0.64,-0.7,
5954,-0.535,-1.06,
5955,-0.37,-1.48,
5956,-0.11,-1.865,
5957,0.2,-2.185,
5958,0.58,-2.38,
5959,0.995,-2.495,
5960,1.395,-2.54,
5961,1.725,-2.555,
5962,1.94,-2.535,
5963,1.985,-2.49,N
5964,1.845,-2.43,
5965,1.525,-2.375,
5966,1.11,-2.285,
5967,0.64,-2.165,
5968,0.165,-1.97,
5969,-0.275,-1.705,
5970,-0.66,-1.415,
5971,-0.985,-1.17,
5972,-1.25,-0.99,
5973,-1.4,-0.865,
5974,-1.43,-0.785,
5975,-1.37,-0.75,
5976,-1.26,-0.735,
5977,-1.135,-0.72,
5978,-1.035,-0.715,
5979,-0.975,-0.67,
5980,-0.945,-0.645,
5981,-0.955,-0.615,
5982,-0.97,-0.6,
5983,-0.99,-0.585,
5984,-1.0,-0.575,
5985,-1.01,-0.57,
5986,-1.015,-0.575,
5987,-1.02,-0.58,
5988,-1.04,-0.575,
5989,-1.05,-0.565,
5990,-1.05,-0.55,
5991,-1.07,-0.535,
5992,-1.07,-0.515,
5993,-1.05,-0.52,
5994,-1.06,-0.52,
5995,-1.06,-0.505,
5996,-1.07,-0.49,
5997,-1.085,-0.49,
5998,-1.09,-0.48,
5999,-1.095,-0.47,
6000,-1.09,-0.46,
6001,-1.09,-0.45,
6002,-1.09,-0.455,
6003,-1.105,-0.45,
6004,-1.105,-0.43,
6005,-1.11,-0.42,
6006,-1.095,-0.41,
6007,-1.08,-0.39,
6008,-1.065,-0.375,
6009,-1.02,-0.36,
6010,-1.005,-0.35,
6011,-1.01,-0.345,
6012,-1.005,-0.33,
6013,-1.005,-0.32,
6014,-1.01,-0.305,
6015,-0.985,-0.3,
6016,-0.955,-0.265,
6017,-0.925,-0.25,
6018,-0.885,-0.215,
6019,-0.865,-0.205,
6020,-0.835,-0.21,
6021,-0.82,-0.2,
6022,-0.795,-0.185,
6023,-0.75,-0.17,
6024,-0.715,-0.175,
6025,-0.68,-0.16,
6026,-0.65,-0.155,
6027,-0.63,-0.13,
6028,-0.615,-0.145,
6029,-0.59,-0.14,
6030,-0.555,-0.13,
6031,-0.515,-0.13,
6032,-0.465,-0.125,
6033,-0.425,-0.12,
6034,-0.375,-0.115,
6035,-0.335,-0.12,
6036,-0.31,-0.14,
6037,-0.295,-0.15,
6038,-0.265,-0.165,
6039,-0.235,-0.17,
6040,-0.19,-0.18,
6041,-0.145,-0.17,
6042,-0.105,-0.18,
6043,-0.055,-0.18,
6044,-0.02,-0.2,
6045,0.005,-0.235,
6046,0.02,-0.275,
6047,0.04,-0.305,
6048,0.065,-0.33,
6049,0.09,-0.35,
6050,0.105,-0.355,
6051,0.1,-0.365,
6052,0.1,-0.365,
6053,0.1,-0.385,
6054,0.085,-0.405,
6055,0.095,-0.405,
6056,0.1,-0.42,
6057,0.115,-0.43,
6058,0.125,-0.43,
6059,0.1,-0.45,
6060,0.075,-0.465,
6061,0.035,-0.48,
6062,0.015,-0.495,
6063,-0.005,-0.5,
6064,-0.03,-0.51,
6065,-0.035,-0.505,
6066,-0.05,-0.49,
6067,-0.07,-0.47,
6068,-0.08,-0.46,
6069,-0.115,-0.445,
6070,-0.155,-0.46,
6071,-0.175,-0.465,
6072,-0.21,-0.485,
6073,-0.225,-0.48,
6074,-0.245,-0.47,
6075,-0.27,-0.45,
6076,-0.3,-0.42,
6077,-0.325,-0.395,
6078,-0.355,-0.375,
6079,-0.375,-0.355,
6080,-0.39,-0.34,
6081,-0.405,-0.35,
6082,-0.42,-0.335,
6083,-0.455,-0.34,
6084,-0.48,-0.33,
6085,-0.495,-0.305,
6086,-0.51,-0.3,
6087,-0.52,-0.28,
6088,-0.52,-0.255,
6089,-0.495,-0.225,
6090,-0.485,-0.19,
6091,-0.49,-0.15,
6092,-0.49,-0.1,
6093,-0.505,-0.075,
6094,-0.52,-0.055,
6095,-0.515,-0.06,
6096,-0.51,-0.08,
6097,-0.48,-0.115,
6098,-0.46,-0.145,
6099,-0.43,-0.16,
6100,-0.4,-0.165,
6101,-0.365,-0.16,
6102,-0.36,-0.175,
6103,-0.33,-0.205,
6104,-0.3,-0.24,
6105,-0.275,-0.29,
6106,-0.245,-0.335,
6107,-0.22,-0.365,
6108,-0.21,-0.39,
6109,-0.225,-0.395,
6110,-0.23,-0.395,
6111,-0.235,-0.395,
6112,-0.25,-0.395,
6113,-0.28,-0.405,
6114,-0.33,-0.425,
6115,-0.395,-0.42,
6116,-0.46,-0.44,
6117,-0.54,-0.45,
6118,-0.6,-0.455,
6119,-0.63,-0.475,
6120,-0.635,-0.485,
6121,-0.635,-0.5,
6122,-0.64,-0.515,
6123,-0.645,-0.515,
6124,-0.66,-0.515,
6125,-0.655,-0.505,
6126,-0.665,-0.5,
6127,-0.655,-0.495,
6128,-0.645,-0.5,
6129,-0.635,-0.515,
6130,-0.635,-0.525,
6131,-0.64,-0.54,
6132,-0.66,-0.545,
6133,-0.67,-0.54,
6134,-0.67,-0.535,
6135,-0.675,-0.53,
6136,-0.665,-0.52,
6137,-0.645,-0.515,
6138,-0.635,-0.515,
6139,-0.625,-0.505,
6140,-0.635,-0.48,
6141,-0.645,-0.455,
6142,-0.66,-0.39,
6143,-0.685,-0.345,
6144,-0.685,-0.335,
6145,-0.7,-0.365,
6146,-0.695,-0.51,
6147,-0.63,-0.765,
6148,-0.495,-1.105,
6149,-0.305,-1.49,
6150,-0.045,-1.865,
6151,0.255,-2.17,
6152,0.625,-2.41,
6153,1.02,-2.545,
6154,1.405,-2.64,
6155,1.735,-2.67,
6156,1.91,-2.67,N
6157,1.885,-2.635,
6158,1.665,-2.575,
6159,1.3,-2.515,
6160,0.865,-2.43,
6161,0.375,-2.29,
6162,-0.095,-2.045,
6163,-0.51,-1.695,
6164,-0.865,-1.34,
6165,-1.165,-1.065,
6166,-1.345,-0.885,
6167,-1.415,-0.8,
6168,-1.375,-0.75,
6169,-1.265,-0.745,
6170,-1.115,-0.745,
6171,-0.99,-0.73,
6172,-0.9,-0.7,
6173,-0.87,-0.68,
6174,-0.875,-0.66,
6175,-0.91,-0.635,
6176,-0.94,-0.615,
6177,-0.955,-0.61,
6178,-0.955,-0.605,
6179,-0.97,-0.61,
6180,-0.98,-0.62,
6181,-0.985,-0.625,
6182,-0.99,-0.615,
6183,-0.995,-0.605,
6184,-0.995,-0.595,
6185,-0.985,-0.565,
6186,-0.99,-0.545,
6187,-0.99,-0.515,
6188,-0.995,-0.52,
6189,-1.02,-0.52,
6190,-1.03,-0.51,
6191,-1.04,-0.51,
6192,-1.04,-0.495,
6193,-1.045,-0.485,
6194,-1.04,-0.465,
6195,-1.055,-0.445,
6196,-1.065,-0.44,
6197,-1.065,-0.435,
6198,-1.06,-0.43,
6199,-1.04,-0.415,
6200,-1.035,-0.38,
6201,-1.01,-0.37,
6202,-1.01,-0.34,
6203,-1.0,-0.32,
6204,-1.015,-0.325,
6205,-1.01,-0.325,
6206,-1.01,-0.32,
6207,-0.985,-0.3,
6208,-0.96,-0.28,
6209,-0.935,-0.245,
6210,-0.895,-0.215,
6211,-0.85,-0.19,
6212,-0.835,-0.18,
6213,-0.79,-0.175,
6214,-0.75,-0.18,
6215,-0.72,-0.19,
6216,-0.68,-0.175,
6217,-0.645,-0.165,
6218,-0.63,-0.135,
6219,-0.605,-0.115,
6220,-0.57,-0.11,
6221,-0.52,-0.105,
6222,-0.47,-0.11,
6223,-0.415,-0.1,
6224,-0.37,-0.1,
6225,-0.315,-0.1,
6226,-0.27,-0.095,
6227,-0.235,-0.1,
6228,-0.185,-0.11,
6229,-0.16,-0.125,
6230,-0.13,-0.15,
6231,-0.085,-0.175,
6232,-0.025,-0.17,
6233,0.01,-0.175,
6234,0.04,-0.18,
6235,0.085,-0.175,
6236,0.1,-0.185,
6237,0.13,-0.21,
6238,0.15,-0.245,
6239,0.165,-0.27,
6240,0.195,-0.29,
6241,0.2,-0.31,
6242,0.205,-0.315,
6243,0.19,-0.325,
6244,0.195,-0.335,
6245,0.195,-0.35,
6246,0.195,-0.37,
6247,0.195,-0.385,
6248,0.185,-0.39,
6249,0.175,-0.39,
6250,0.14,-0.39,
6251,0.12,-0.405,
6252,0.09,-0.41,
6253,0.08,-0.435,
6254,0.065,-0.45,
6255,0.05,-0.465,
6256,0.04,-0.475,
6257,0.025,-0.465,
6258,-0.01,-0.465,
6259,-0.035,-0.445,
6260,-0.05,-0.43,
6261,-0.08,-0.435,
6262,-0.095,-0.435,
6263,-0.135,-0.445,
6264,-0.15,-0.44,
6265,-0.185,-0.43,
6266,-0.225,-0.425,
6267,-0.265,-0.41,
6268,-0.295,-0.39,
6269,-0.31,-0.37,
6270,-0.315,-0.37,
6271,-0.325,-0.355,
6272,-0.33,-0.35,
6273,-0.36,-0.345,
6274,-0.385,-0.32,
6275,-0.415,-0.3,
6276,-0.44,-0.295,
6277,-0.46,-0.275,
6278,-0.47,-0.26,
6279,-0.465,-0.245,
6280,-0.495,-0.205,
6281,-0.495,-0.17,
6282,-0.485,-0.125,
6283,-0.485,-0.09,
6284,-0.48,-0.065,
6285,-0.465,-0.045,
6286,-0.44,-0.04,
6287,-0.435,-0.07,
6288,-0.425,-0.105,
6289,-0.425,-0.14,
6290,-0.4,-0.17,
6291,-0.385,-0.185,
6292,-0.36,-0.21,
6293,-0.33,-0.24,
6294,-0.29,-0.285,
6295,-0.27,-0.32,
6296,-0.24,-0.345,
6297,-0.215,-0.375,
6298,-0.2,-0.39,
6299,-0.19,-0.4,
6300,-0.19,-0.39,
6301,-0.185,-0.4,
6302,-0.2,-0.405,
6303,-0.215,-0.42,
6304,-0.255,-0.43,
6305,-0.295,-0.445,
6306,-0.36,-0.46,
6307,-0.42,-0.45,
6308,-0.48,-0.445,
6309,-0.525,-0.455,
6310,-0.55,-0.47,
6311,-0.58,-0.495,
6312,-0.575,-0.5,
6313,-0.6,-0.51,
6314,-0.6,-0.53,
6315,-0.61,-0.525,
6316,-0.605,-0.515,
6317,-0.605,-0.515,
6318,-0.59,-0.51,
6319,-0.58,-0.505,
6320,-0.58,-0.515,
6321,-0.585,-0.525,
6322,-0.585,-0.53,
6323,-0.595,-0.54,
6324,-0.6,-0.55,
6325,-0.595,-0.56,
6326,-0.585,-0.555,
6327,-0.59,-0.565,
6328,-0.585,-0.555,
6329,-0.585,-0.53,
6330,-0.595,-0.51,
6331,-0.595,-0.47,
6332,-0.58,-0.42,
6333,-0.58,-0.36,
6334,-0.585,-0.3,
6335,-0.59,-0.26,
6336,-0.61,-0.3,
6337,-0.6,-0.42,
6338,-0.56,-0.66,
6339,-0.46,-1.01,
6340,-0.275,-1.45,
6341,0.0,-1.88,
6342,0.315,-2.26,
6343,0.695,-2.54,
6344,1.075,-2.72,
6345,1.455,-2.83,
6346,1.75,-2.855,
6347,1.87,-2.86,N
6348,1.77,-2.82,
6349,1.465,-2.785,
6350,1.045,-2.735,
6351,0.555,-2.68,
6352,0.055,-2.55,
6353,-0.355,-2.305,
6354,-0.68,-1.925,
6355,-0.895,-1.505,
6356,-1.045,-1.14,
6357,-1.13,-0.88,
6358,-1.135,-0.75,
6359,-1.1,-0.715,
6360,-1.02,-0.725,
6361,-0.915,-0.75,
6362,-0.83,-0.76,
6363,-0.79,-0.74,
6364,-0.77,-0.725,
6365,-0.79,-0.69,
6366,-0.815,-0.665,
6367,-0.84,-0.625,
6368,-0.855,-0.605,
6369,-0.87,-0.61,
6370,-0.875,-0.615,
6371,-0.88,-0.61,
6372,-0.885,-0.605,
6373,-0.89,-0.59,
6374,-0.885,-0.58,
6375,-0.92,-0.555,
6376,-0.925,-0.545,
6377,-0.92,-0.53,
6378,-0.925,-0.5,
6379,-0.91,-0.485,
6380,-0.9,-0.46,
6381,-0.895,-0.46,
6382,-0.895,-0.455,
6383,-0.91,-0.445,
6384,-0.925,-0.44,
6385,-0.94,-0.435,
6386,-0.945,-0.435,
6387,-0.95,-0.405,
6388,-0.945,-0.405,
6389,-0.93,-0.365,
6390,-0.93,-0.325,
6391,-0.9,-0.295,
6392,-0.875,-0.28,
6393,-0.86,-0.275,
6394,-0.83,-0.265,
6395,-0.81,-0.265,
6396,-0.795,-0.25,
6397,-0.77,-0.24,
6398,-0.77,-0.225,
6399,-0.755,-0.185,
6400,-0.735,-0.16,
6401,-0.71,-0.135,
6402,-0.665,-0.13,
6403,-0.625,-0.1,
6404,-0.57,-0.1,
6405,-0.525,-0.085,
6406,-0.495,-0.065,
6407,-0.46,-0.06,
6408,-0.435,-0.045,
6409,-0.4,-0.055,
6410,-0.37,-0.055,
6411,-0.33,-0.04,
6412,-0.295,-0.035,
6413,-0.24,-0.03,
6414,-0.225,-0.02,
6415,-0.19,-0.015,
6416,-0.165,0.0,
6417,-0.135,-0.005,
6418,-0.1,-0.01,
6419,-0.055,-0.025,
6420,-0.01,-0.045,
6421,0.03,-0.06,
6422,0.06,-0.08,
6423,0.09,-0.06,
6424,0.1,-0.08,
6425,0.15,-0.075,
6426,0.165,-0.105,
6427,0.21,-0.115,
6428,0.23,-0.13,
6429,0.26,-0.16,
6430,0.27,-0.18,
6431,0.27,-0.205,
6432,0.26,-0.215,
6433,0.25,-0.24,
6434,0.24,-0.26,
6435,0.235,-0.275,
6436,0.235,-0.3,
6437,0.235,-0.315,
6438,0.22,-0.335,
6439,0.205,-0.34,
6440,0.2,-0.36,
6441,0.175,-0.365,
6442,0.14,-0.365,
6443,0.12,-0.38,
6444,0.115,-0.39,
6445,0.1,-0.405,
6446,0.075,-0.42,
6447,0.035,-0.44,
6448,0.01,-0.44,
6449,-0.025,-0.44,
6450,-0.06,-0.44,
6451,-0.08,-0.43,
6452,-0.085,-0.42,
6453,-0.095,-0.43,
6454,-0.115,-0.435,
6455,-0.13,-0.44,
6456,-0.165,-0.435,
