,MLII,V1,symbol
0,-0.095,0.025,
1,-0.095,0.025,
2,-0.095,0.025,
3,-0.095,0.025,
4,-0.095,0.025,
5,-0.095,0.025,
6,-0.095,0.025,
7,-0.095,0.025,
8,-0.11,0.025,
9,-0.14,0.01,
10,-0.14,0.025,
11,-0.135,0.055,
12,-0.115,0.045,
13,-0.11,0.04,
14,-0.135,0.025,
15,-0.15,0.02,
16,-0.18,0.015,
17,-0.175,0.025,
18,-0.16,0.04,
19,-0.15,0.045,+
20,-0.16,0.03,
21,-0.17,0.0,
22,-0.185,0.02,
23,-0.18,0.015,
24,-0.175,0.03,
25,-0.155,0.02,
26,-0.17,0.01,
27,-0.195,-0.015,
28,-0.21,-0.015,
29,-0.175,0.0,
30,-0.145,0.01,
31,-0.135,-0.01,
32,-0.125,-0.01,
33,-0.145,-0.015,
34,-0.165,-0.02,
35,-0.155,-0.005,
36,-0.135,0.015,
37,-0.12,0.0,
38,-0.11,-0.005,
39,-0.11,0.01,
40,-0.125,0.06,
41,-0.12,0.105,
42,-0.12,0.115,
43,-0.1,0.055,
44,-0.03,-0.015,
45,0.075,-0.14,
46,0.2,-0.24,
47,0.315,-0.325,
48,0.405,-0.42,
49,0.48,-0.555,
50,0.57,-0.715,
51,0.66,-0.86,
52,0.815,-0.975,
53,1.005,-1.055,
54,1.24,-1.1,
55,1.465,-1.15,
56,1.7,-1.195,
57,1.91,-1.23,
58,2.055,-1.225,L
59,2.1,-1.21,
60,2.045,-1.205,
61,1.85,-1.235,
62,1.47,-1.245,
63,1.045,-1.235,
64,0.745,-1.16,
65,0.595,-1.085,
66,0.5,-1.005,
67,0.465,-0.925,
68,0.435,-0.825,
69,0.415,-0.72,
70,0.395,-0.615,
71,0.375,-0.515,
72,0.35,-0.44,
73,0.3,-0.385,
74,0.245,-0.335,
75,0.18,-0.285,
76,0.135,-0.225,
77,0.115,-0.165,
78,0.115,-0.115,
79,0.075,-0.06,
80,0.025,-0.04,
81,-0.02,-0.01,
82,-0.07,0.055,
83,-0.1,0.12,
84,-0.13,0.165,
85,-0.155,0.195,
86,-0.2,0.215,
87,-0.245,0.215,
88,-0.275,0.24,
89,-0.29,0.285,
90,-0.285,0.29,
91,-0.275,0.29,
92,-0.29,0.295,
93,-0.305,0.29,
94,-0.325,0.315,
95,-0.325,0.335,
96,-0.32,0.35,
97,-0.33,0.365,
98,-0.34,0.355,
99,-0.35,0.345,
100,-0.35,0.375,
101,-0.345,0.395,
102,-0.34,0.435,
103,-0.34,0.43,
104,-0.35,0.44,
105,-0.36,0.43,
106,-0.365,0.435,
107,-0.375,0.475,
108,-0.375,0.505,
109,-0.36,0.51,
110,-0.365,0.515,
111,-0.395,0.53,
112,-0.39,0.56,
113,-0.395,0.585,
114,-0.385,0.605,
115,-0.405,0.615,
116,-0.42,0.635,
117,-0.425,0.645,
118,-0.44,0.67,
119,-0.44,0.715,
120,-0.44,0.745,
121,-0.45,0.745,
122,-0.465,0.725,
123,-0.46,0.725,
124,-0.49,0.765,
125,-0.475,0.795,
126,-0.465,0.825,
127,-0.48,0.835,
128,-0.51,0.835,
129,-0.53,0.85,
130,-0.555,0.845,
131,-0.56,0.875,
132,-0.525,0.905,
133,-0.535,0.885,
134,-0.56,0.875,
135,-0.59,0.86,
136,-0.62,0.875,
137,-0.585,0.88,
138,-0.57,0.875,
139,-0.56,0.85,
140,-0.575,0.83,
141,-0.585,0.78,
142,-0.595,0.765,
143,-0.565,0.755,
144,-0.54,0.745,
145,-0.525,0.695,
146,-0.51,0.66,
147,-0.525,0.6,
148,-0.515,0.585,
149,-0.47,0.575,
150,-0.445,0.545,
151,-0.41,0.515,
152,-0.4,0.455,
153,-0.39,0.4,
154,-0.37,0.355,
155,-0.345,0.34,
156,-0.3,0.32,
157,-0.29,0.285,
158,-0.25,0.245,
159,-0.235,0.205,
160,-0.23,0.175,
161,-0.22,0.185,
162,-0.19,0.165,
163,-0.165,0.15,
164,-0.16,0.12,
165,-0.16,0.115,
166,-0.165,0.105,
167,-0.15,0.115,
168,-0.15,0.11,
169,-0.15,0.07,
170,-0.155,0.065,
171,-0.165,0.045,
172,-0.16,0.045,
173,-0.155,0.07,
174,-0.15,0.08,
175,-0.155,0.055,
176,-0.155,0.04,
177,-0.165,0.03,
178,-0.16,0.035,
179,-0.145,0.05,
180,-0.165,0.065,
181,-0.165,0.05,
182,-0.17,0.04,
183,-0.175,0.035,
184,-0.175,0.05,
185,-0.16,0.05,
186,-0.155,0.055,
187,-0.155,0.055,
188,-0.17,0.03,
189,-0.205,0.05,
190,-0.195,0.045,
191,-0.185,0.07,
192,-0.165,0.075,
193,-0.175,0.06,
194,-0.19,0.05,
195,-0.2,0.04,
196,-0.205,0.05,
197,-0.185,0.07,
198,-0.165,0.075,
199,-0.155,0.075,
200,-0.17,0.055,
201,-0.195,0.05,
202,-0.215,0.035,
203,-0.205,0.06,
204,-0.195,0.085,
205,-0.19,0.07,
206,-0.19,0.065,
207,-0.195,0.05,
208,-0.205,0.045,
209,-0.195,0.075,
210,-0.185,0.075,
211,-0.185,0.075,
212,-0.195,0.06,
213,-0.185,0.055,
214,-0.205,0.05,
215,-0.195,0.065,
216,-0.2,0.085,
217,-0.17,0.08,
218,-0.175,0.055,
219,-0.19,0.04,
220,-0.195,0.045,
221,-0.185,0.055,
222,-0.17,0.075,
223,-0.185,0.065,
224,-0.18,0.04,
225,-0.18,0.025,
226,-0.175,0.04,
227,-0.175,0.035,
228,-0.165,0.055,
229,-0.165,0.05,
230,-0.18,0.045,
231,-0.19,0.04,
232,-0.2,0.045,
233,-0.19,0.045,
234,-0.16,0.07,
235,-0.165,0.055,
236,-0.2,0.025,
237,-0.195,0.015,
238,-0.195,0.015,
239,-0.18,0.045,
240,-0.18,0.05,
241,-0.16,0.045,
242,-0.185,0.02,
243,-0.205,0.02,
244,-0.205,0.015,
245,-0.21,0.025,
246,-0.185,0.03,
247,-0.185,0.02,
248,-0.19,0.005,
249,-0.205,0.0,
250,-0.22,0.005,
251,-0.21,0.0,
252,-0.19,0.015,
253,-0.17,0.005,
254,-0.18,-0.005,
255,-0.195,0.0,
256,-0.21,-0.01,
257,-0.2,0.02,
258,-0.185,0.015,
259,-0.195,0.015,
260,-0.185,-0.01,
261,-0.19,-0.01,
262,-0.19,-0.005,
263,-0.175,0.01,
264,-0.17,0.03,
265,-0.16,0.025,
266,-0.175,0.015,
267,-0.18,-0.005,
268,-0.175,0.035,
269,-0.165,0.035,
270,-0.145,0.075,
271,-0.14,0.075,
272,-0.15,0.055,
273,-0.19,0.065,
274,-0.185,0.08,
275,-0.13,0.09,
276,-0.09,0.11,
277,-0.11,0.115,
278,-0.105,0.09,
279,-0.125,0.09,
280,-0.14,0.11,
281,-0.115,0.11,
282,-0.1,0.135,
283,-0.1,0.1,
284,-0.105,0.075,
285,-0.14,0.045,
286,-0.16,0.04,
287,-0.155,0.055,
288,-0.145,0.06,
289,-0.16,0.065,
290,-0.16,0.03,
291,-0.175,0.02,
292,-0.17,0.0,
293,-0.175,0.015,
294,-0.15,0.025,
295,-0.16,0.03,
296,-0.175,0.025,
297,-0.19,0.02,
298,-0.205,0.025,
299,-0.2,0.03,
300,-0.19,0.035,
301,-0.19,0.025,
302,-0.205,0.015,
303,-0.2,-0.01,
304,-0.205,0.01,
305,-0.19,0.03,
306,-0.18,0.045,
307,-0.21,0.045,
308,-0.215,0.01,
309,-0.215,-0.005,
310,-0.23,0.005,
311,-0.215,0.005,
312,-0.195,0.005,
313,-0.185,0.005,
314,-0.195,-0.015,
315,-0.205,-0.02,
316,-0.21,-0.03,
317,-0.18,-0.025,
318,-0.155,-0.015,
319,-0.14,-0.015,
320,-0.15,-0.025,
321,-0.17,-0.035,
322,-0.175,-0.03,
323,-0.165,-0.03,
324,-0.145,0.015,
325,-0.135,0.005,
326,-0.135,0.02,
327,-0.16,0.025,
328,-0.17,0.015,
329,-0.145,0.005,
330,-0.075,-0.075,
331,0.055,-0.215,
332,0.18,-0.38,
333,0.275,-0.55,
334,0.36,-0.705,
335,0.46,-0.815,
336,0.565,-0.905,
337,0.67,-1.0,
338,0.795,-1.075,
339,0.92,-1.17,
340,1.06,-1.225,
341,1.24,-1.265,
342,1.42,-1.29,
343,1.635,-1.3,
344,1.805,-1.29,
345,1.95,-1.275,
346,2.05,-1.22,L
347,2.085,-1.19,
348,2.025,-1.165,
349,1.86,-1.15,
350,1.545,-1.135,
351,1.185,-1.1,
352,0.87,-1.04,
353,0.695,-0.975,
354,0.6,-0.93,
355,0.555,-0.895,
356,0.495,-0.86,
357,0.46,-0.785,
358,0.435,-0.685,
359,0.42,-0.58,
360,0.415,-0.49,
361,0.39,-0.46,
362,0.33,-0.415,
363,0.26,-0.37,
364,0.22,-0.31,
365,0.185,-0.24,
366,0.16,-0.17,
367,0.115,-0.13,
368,0.06,-0.095,
369,0.01,-0.065,
370,-0.015,-0.02,
371,-0.05,0.035,
372,-0.075,0.09,
373,-0.115,0.105,
374,-0.16,0.14,
375,-0.21,0.155,
376,-0.24,0.18,
377,-0.265,0.225,
378,-0.25,0.26,
379,-0.285,0.27,
380,-0.315,0.265,
381,-0.36,0.27,
382,-0.38,0.29,
383,-0.38,0.32,
384,-0.36,0.335,
385,-0.355,0.34,
386,-0.365,0.335,
387,-0.385,0.33,
388,-0.415,0.355,
389,-0.415,0.385,
390,-0.41,0.395,
391,-0.415,0.395,
392,-0.42,0.37,
393,-0.43,0.39,
394,-0.43,0.415,
395,-0.42,0.445,
396,-0.41,0.455,
397,-0.425,0.455,
398,-0.435,0.45,
399,-0.47,0.47,
400,-0.465,0.49,
401,-0.46,0.51,
402,-0.445,0.545,
403,-0.44,0.55,
404,-0.46,0.54,
405,-0.48,0.545,
406,-0.485,0.58,
407,-0.485,0.61,
408,-0.49,0.655,
409,-0.485,0.675,
410,-0.51,0.665,
411,-0.535,0.66,
412,-0.555,0.685,
413,-0.55,0.7,
414,-0.53,0.73,
415,-0.515,0.75,
416,-0.535,0.74,
417,-0.57,0.77,
418,-0.565,0.795,
419,-0.575,0.825,
420,-0.585,0.845,
421,-0.585,0.85,
422,-0.59,0.845,
423,-0.615,0.855,
424,-0.63,0.88,
425,-0.645,0.905,
426,-0.635,0.94,
427,-0.64,0.925,
428,-0.67,0.925,
429,-0.675,0.91,
430,-0.685,0.915,
431,-0.66,0.925,
432,-0.645,0.935,
433,-0.66,0.925,
434,-0.695,0.905,
435,-0.71,0.875,
436,-0.71,0.885,
437,-0.685,0.885,
438,-0.675,0.875,
439,-0.665,0.865,
440,-0.67,0.8,
441,-0.675,0.79,
442,-0.685,0.75,
443,-0.675,0.765,
444,-0.655,0.74,
445,-0.625,0.695,
446,-0.6,0.655,
447,-0.62,0.62,
448,-0.6,0.585,
449,-0.575,0.575,
450,-0.54,0.55,
451,-0.53,0.505,
452,-0.505,0.465,
453,-0.495,0.41,
454,-0.465,0.395,
455,-0.43,0.38,
456,-0.39,0.355,
457,-0.355,0.3,
458,-0.335,0.25,
459,-0.33,0.21,
460,-0.31,0.21,
461,-0.27,0.225,
462,-0.265,0.225,
463,-0.26,0.19,
464,-0.27,0.15,
465,-0.27,0.13,
466,-0.265,0.11,
467,-0.235,0.115,
468,-0.195,0.125,
469,-0.195,0.1,
470,-0.21,0.095,
471,-0.235,0.075,
472,-0.23,0.08,
473,-0.22,0.085,
474,-0.195,0.095,
475,-0.195,0.07,
476,-0.21,0.05,
477,-0.22,0.03,
478,-0.22,0.04,
479,-0.21,0.065,
480,-0.2,0.075,
481,-0.205,0.07,
482,-0.21,0.04,
483,-0.21,0.025,
484,-0.21,0.025,
485,-0.215,0.05,
486,-0.195,0.07,
487,-0.195,0.06,
488,-0.205,0.045,
489,-0.215,0.035,
490,-0.215,0.055,
491,-0.21,0.055,
492,-0.19,0.065,
493,-0.205,0.055,
494,-0.21,0.055,
495,-0.22,0.055,
496,-0.23,0.07,
497,-0.215,0.09,
498,-0.195,0.1,
499,-0.195,0.085,
500,-0.21,0.075,
501,-0.235,0.065,
502,-0.24,0.06,
503,-0.235,0.085,
504,-0.23,0.085,
505,-0.215,0.075,
506,-0.215,0.075,
507,-0.23,0.07,
508,-0.245,0.07,
509,-0.24,0.085,
510,-0.23,0.095,
511,-0.23,0.1,
512,-0.235,0.09,
513,-0.255,0.065,
514,-0.235,0.085,
515,-0.24,0.09,
516,-0.22,0.115,
517,-0.235,0.11,
518,-0.24,0.085,
519,-0.24,0.065,
520,-0.245,0.075,
521,-0.22,0.095,
522,-0.225,0.11,
523,-0.215,0.105,
524,-0.225,0.095,
525,-0.24,0.09,
526,-0.25,0.085,
527,-0.235,0.09,
528,-0.205,0.105,
529,-0.2,0.09,
530,-0.22,0.08,
531,-0.225,0.06,
532,-0.23,0.07,
533,-0.215,0.095,
534,-0.2,0.105,
535,-0.2,0.095,
536,-0.21,0.065,
537,-0.21,0.055,
538,-0.215,0.065,
539,-0.21,0.07,
540,-0.205,0.09,
541,-0.2,0.095,
542,-0.2,0.075,
543,-0.21,0.065,
544,-0.215,0.07,
545,-0.205,0.065,
546,-0.185,0.07,
547,-0.2,0.055,
548,-0.215,0.045,
549,-0.225,0.04,
550,-0.205,0.06,
551,-0.195,0.07,
552,-0.19,0.095,
553,-0.185,0.08,
554,-0.185,0.065,
555,-0.21,0.055,
556,-0.225,0.055,
557,-0.225,0.065,
558,-0.185,0.07,
559,-0.18,0.075,
560,-0.18,0.055,
561,-0.215,0.06,
562,-0.245,0.07,
563,-0.23,0.07,
564,-0.205,0.08,
565,-0.185,0.07,
566,-0.19,0.045,
567,-0.205,0.035,
568,-0.21,0.055,
569,-0.19,0.055,
570,-0.19,0.065,
571,-0.185,0.075,
572,-0.205,0.05,
573,-0.21,0.035,
574,-0.22,0.05,
575,-0.205,0.075,
576,-0.19,0.09,
577,-0.19,0.09,
578,-0.185,0.08,
579,-0.2,0.075,
580,-0.205,0.09,
581,-0.175,0.1,
582,-0.155,0.1,
583,-0.135,0.12,
584,-0.17,0.105,
585,-0.165,0.11,
586,-0.165,0.125,
587,-0.15,0.145,
588,-0.125,0.16,
589,-0.11,0.16,
590,-0.125,0.145,
591,-0.13,0.145,
592,-0.13,0.14,
593,-0.125,0.15,
594,-0.13,0.16,
595,-0.125,0.14,
596,-0.125,0.11,
597,-0.14,0.085,
598,-0.145,0.08,
599,-0.125,0.105,
600,-0.13,0.075,
601,-0.145,0.07,
602,-0.16,0.06,
603,-0.18,0.03,
604,-0.18,0.045,
605,-0.18,0.04,
606,-0.16,0.06,
607,-0.14,0.06,
608,-0.155,0.045,
609,-0.17,0.035,
610,-0.2,0.025,
611,-0.205,0.035,
612,-0.175,0.05,
613,-0.19,0.045,
614,-0.195,0.04,
615,-0.215,0.03,
616,-0.215,0.045,
617,-0.215,0.04,
618,-0.215,0.045,
619,-0.215,0.035,
620,-0.215,0.005,
621,-0.22,0.005,
622,-0.21,0.02,
623,-0.195,0.035,
624,-0.185,0.05,
625,-0.195,0.045,
626,-0.205,0.025,
627,-0.21,0.005,
628,-0.19,0.01,
629,-0.165,0.005,
630,-0.155,0.03,
631,-0.155,0.01,
632,-0.165,0.005,
633,-0.18,0.005,
634,-0.175,0.0,
635,-0.16,0.01,
636,-0.135,0.02,
637,-0.13,0.01,
638,-0.14,0.015,
639,-0.15,0.025,
640,-0.145,0.06,
641,-0.145,0.095,
642,-0.125,0.13,
643,-0.105,0.105,
644,-0.075,0.06,
645,-0.035,-0.015,
646,0.065,-0.125,
647,0.185,-0.22,
648,0.31,-0.335,
649,0.41,-0.48,
650,0.515,-0.61,
651,0.595,-0.74,
652,0.705,-0.83,
653,0.83,-0.905,
654,0.975,-0.985,
655,1.125,-1.095,
656,1.265,-1.175,
657,1.43,-1.235,
658,1.63,-1.26,
659,1.84,-1.275,
660,2.0,-1.28,L
661,2.065,-1.28,
662,2.05,-1.29,
663,1.955,-1.295,
664,1.775,-1.285,
665,1.52,-1.265,
666,1.205,-1.2,
667,0.905,-1.145,
668,0.67,-1.115,
669,0.52,-1.08,
670,0.445,-1.02,
671,0.44,-0.94,
672,0.455,-0.84,
673,0.45,-0.745,
674,0.41,-0.64,
675,0.365,-0.555,
676,0.315,-0.475,
677,0.265,-0.4,
678,0.225,-0.315,
679,0.195,-0.265,
680,0.145,-0.225,
681,0.1,-0.17,
682,0.065,-0.11,
683,0.035,-0.045,
684,-0.02,0.015,
685,-0.06,0.05,
686,-0.1,0.085,
687,-0.15,0.11,
688,-0.17,0.13,
689,-0.205,0.195,
690,-0.215,0.235,
691,-0.23,0.25,
692,-0.26,0.26,
693,-0.31,0.255,
694,-0.335,0.29,
695,-0.315,0.315,
696,-0.3,0.33,
697,-0.315,0.32,
698,-0.325,0.33,
699,-0.34,0.325,
700,-0.35,0.35,
701,-0.33,0.38,
702,-0.33,0.4,
703,-0.345,0.4,
704,-0.37,0.395,
705,-0.385,0.385,
706,-0.395,0.395,
707,-0.36,0.44,
708,-0.34,0.46,
709,-0.345,0.465,
710,-0.355,0.465,
711,-0.385,0.45,
712,-0.4,0.48,
713,-0.405,0.49,
714,-0.38,0.5,
715,-0.39,0.525,
716,-0.4,0.525,
717,-0.41,0.55,
718,-0.445,0.565,
719,-0.43,0.585,
720,-0.42,0.61,
721,-0.42,0.625,
722,-0.415,0.64,
723,-0.435,0.615,
724,-0.455,0.645,
725,-0.45,0.675,
726,-0.455,0.725,
727,-0.45,0.72,
728,-0.475,0.74,
729,-0.495,0.74,
730,-0.495,0.775,
731,-0.505,0.805,
732,-0.495,0.835,
733,-0.51,0.845,
734,-0.535,0.86,
735,-0.55,0.845,
736,-0.55,0.875,
737,-0.55,0.89,
738,-0.55,0.905,
739,-0.56,0.91,
740,-0.59,0.9,
741,-0.62,0.895,
742,-0.615,0.915,
743,-0.62,0.94,
744,-0.62,0.95,
745,-0.615,0.92,
746,-0.62,0.9,
747,-0.635,0.875,
748,-0.655,0.885,
749,-0.65,0.865,
750,-0.615,0.87,
751,-0.6,0.85,
752,-0.615,0.805,
753,-0.62,0.775,
754,-0.63,0.755,
755,-0.615,0.745,
756,-0.595,0.72,
757,-0.565,0.685,
758,-0.56,0.645,
759,-0.54,0.595,
760,-0.52,0.57,
761,-0.495,0.54,
762,-0.47,0.505,
763,-0.435,0.46,
764,-0.41,0.41,
765,-0.39,0.38,
766,-0.375,0.34,
767,-0.35,0.33,
768,-0.32,0.31,
769,-0.28,0.29,
770,-0.275,0.23,
771,-0.27,0.195,
772,-0.255,0.185,
773,-0.225,0.19,
774,-0.19,0.185,
775,-0.185,0.17,
776,-0.175,0.14,
777,-0.195,0.115,
778,-0.205,0.115,
779,-0.18,0.115,
780,-0.17,0.105,
781,-0.15,0.095,
782,-0.155,0.08,
783,-0.16,0.055,
784,-0.18,0.04,
785,-0.18,0.065,
786,-0.155,0.075,
787,-0.15,0.075,
788,-0.16,0.055,
789,-0.16,0.045,
790,-0.155,0.055,
791,-0.17,0.06,
792,-0.175,0.06,
793,-0.14,0.04,
794,-0.145,0.03,
795,-0.155,0.035,
796,-0.16,0.035,
797,-0.16,0.065,
798,-0.145,0.055,
799,-0.145,0.055,
800,-0.165,0.02,
801,-0.17,0.01,
802,-0.18,0.04,
803,-0.175,0.045,
804,-0.155,0.06,
805,-0.145,0.05,
806,-0.16,0.04,
807,-0.18,0.015,
808,-0.19,0.025,
809,-0.18,0.06,
810,-0.165,0.065,
811,-0.155,0.045,
812,-0.145,0.035,
813,-0.17,0.025,
814,-0.18,0.045,
815,-0.175,0.065,
816,-0.165,0.08,
817,-0.16,0.07,
818,-0.185,0.05,
819,-0.195,0.035,
820,-0.215,0.035,
821,-0.18,0.065,
822,-0.165,0.09,
823,-0.17,0.065,
824,-0.175,0.055,
825,-0.18,0.05,
826,-0.18,0.055,
827,-0.18,0.06,
828,-0.16,0.075,
829,-0.15,0.05,
830,-0.165,0.035,
831,-0.19,0.05,
832,-0.2,0.045,
833,-0.185,0.075,
834,-0.17,0.075,
835,-0.16,0.07,
836,-0.165,0.06,
837,-0.19,0.04,
838,-0.165,0.06,
839,-0.17,0.07,
840,-0.155,0.085,
841,-0.15,0.075,
842,-0.155,0.055,
843,-0.165,0.04,
844,-0.165,0.05,
845,-0.165,0.06,
846,-0.155,0.07,
847,-0.15,0.035,
848,-0.17,0.035,
849,-0.19,0.03,
850,-0.175,0.025,
851,-0.165,0.055,
852,-0.145,0.06,
853,-0.145,0.06,
854,-0.155,0.04,
855,-0.175,0.03,
856,-0.18,0.02,
857,-0.175,0.04,
858,-0.145,0.06,
859,-0.15,0.06,
860,-0.14,0.045,
861,-0.18,0.03,
862,-0.18,0.035,
863,-0.18,0.04,
864,-0.16,0.06,
865,-0.15,0.045,
866,-0.155,0.035,
867,-0.165,0.015,
868,-0.17,0.03,
869,-0.165,0.045,
870,-0.155,0.05,
871,-0.145,0.065,
872,-0.165,0.04,
873,-0.18,0.02,
874,-0.185,0.02,
875,-0.175,0.05,
876,-0.15,0.04,
877,-0.15,0.04,
878,-0.16,0.035,
879,-0.175,0.025,
880,-0.195,0.025,
881,-0.155,0.04,
882,-0.14,0.05,
883,-0.125,0.04,
884,-0.135,0.03,
885,-0.18,0.01,
886,-0.18,0.01,
887,-0.165,0.05,
888,-0.155,0.07,
889,-0.16,0.065,
890,-0.16,0.05,
891,-0.155,0.03,
892,-0.15,0.04,
893,-0.145,0.055,
894,-0.13,0.065,
895,-0.13,0.08,
896,-0.14,0.07,
897,-0.145,0.06,
898,-0.15,0.1,
899,-0.12,0.125,
900,-0.105,0.115,
901,-0.085,0.135,
902,-0.1,0.11,
903,-0.1,0.105,
904,-0.12,0.125,
905,-0.105,0.145,
906,-0.07,0.155,
907,-0.075,0.145,
908,-0.09,0.145,
909,-0.1,0.115,
910,-0.12,0.11,
911,-0.115,0.095,
912,-0.1,0.075,
913,-0.115,0.065,
914,-0.125,0.04,
915,-0.13,0.035,
916,-0.145,0.04,
917,-0.155,0.05,
918,-0.155,0.05,
919,-0.145,0.03,
920,-0.135,0.02,
921,-0.155,0.015,
922,-0.17,0.015,
923,-0.17,0.025,
924,-0.165,0.04,
925,-0.165,0.04,
926,-0.18,0.03,
927,-0.19,0.01,
928,-0.2,0.01,
929,-0.185,0.025,
930,-0.18,0.03,
931,-0.175,0.025,
932,-0.2,0.02,
933,-0.205,0.0,
934,-0.195,0.005,
935,-0.195,0.015,
936,-0.175,0.035,
937,-0.165,0.02,
938,-0.175,0.0,
939,-0.19,-0.025,
940,-0.195,0.0,
941,-0.185,0.015,
942,-0.17,0.02,
943,-0.16,0.015,
944,-0.17,-0.01,
945,-0.17,-0.01,
946,-0.165,-0.015,
947,-0.15,-0.005,
948,-0.14,0.005,
949,-0.125,-0.01,
950,-0.145,-0.02,
951,-0.145,-0.015,
952,-0.135,0.015,
953,-0.135,0.03,
954,-0.12,0.05,
955,-0.125,0.075,
956,-0.135,0.075,
957,-0.15,0.055,
958,-0.15,0.045,
959,-0.07,0.005,
960,0.02,-0.05,
961,0.12,-0.165,
962,0.225,-0.285,
963,0.29,-0.42,
964,0.365,-0.505,
965,0.45,-0.585,
966,0.53,-0.7,
967,0.6,-0.82,
968,0.685,-0.945,
969,0.805,-1.06,
970,0.965,-1.13,
971,1.17,-1.18,
972,1.39,-1.22,
973,1.605,-1.245,
974,1.8,-1.27,
975,1.92,-1.255,L
976,1.955,-1.225,
977,1.92,-1.2,
978,1.76,-1.185,
979,1.5,-1.16,
980,1.15,-1.145,
981,0.845,-1.11,
982,0.645,-1.045,
983,0.57,-1.005,
984,0.535,-0.905,
985,0.495,-0.845,
986,0.485,-0.75,
987,0.435,-0.65,
988,0.395,-0.57,
989,0.365,-0.485,
990,0.35,-0.415,
991,0.295,-0.36,
992,0.235,-0.31,
993,0.165,-0.26,
994,0.14,-0.185,
995,0.085,-0.11,
996,0.08,-0.065,
997,0.03,-0.035,
998,-0.01,-0.01,
999,-0.12,0.04,
1000,-0.135,0.12,
1001,-0.13,0.17,
1002,-0.155,0.205,
1003,-0.195,0.2,
1004,-0.235,0.22,
1005,-0.27,0.235,
1006,-0.28,0.27,
1007,-0.29,0.29,
1008,-0.3,0.3,
1009,-0.305,0.295,
1010,-0.325,0.3,
1011,-0.33,0.325,
1012,-0.33,0.345,
1013,-0.32,0.34,
1014,-0.33,0.335,
1015,-0.345,0.335,
1016,-0.35,0.33,
1017,-0.36,0.355,
1018,-0.355,0.39,
1019,-0.355,0.42,
1020,-0.345,0.415,
1021,-0.36,0.425,
1022,-0.38,0.415,
1023,-0.405,0.42,
1024,-0.4,0.46,
1025,-0.39,0.48,
1026,-0.38,0.485,
1027,-0.385,0.495,
1028,-0.41,0.5,
1029,-0.44,0.51,
1030,-0.41,0.54,
1031,-0.395,0.54,
1032,-0.395,0.56,
1033,-0.4,0.565,
1034,-0.42,0.58,
1035,-0.435,0.6,
1036,-0.45,0.635,
1037,-0.45,0.67,
1038,-0.45,0.685,
1039,-0.455,0.69,
1040,-0.47,0.71,
1041,-0.475,0.72,
1042,-0.505,0.77,
1043,-0.485,0.805,
1044,-0.5,0.8,
1045,-0.49,0.815,
1046,-0.51,0.815,
1047,-0.52,0.835,
1048,-0.52,0.86,
1049,-0.52,0.875,
1050,-0.52,0.885,
1051,-0.54,0.89,
1052,-0.56,0.88,
1053,-0.58,0.89,
1054,-0.575,0.93,
1055,-0.58,0.935,
1056,-0.58,0.92,
1057,-0.595,0.9,
1058,-0.615,0.88,
1059,-0.625,0.895,
1060,-0.605,0.89,
1061,-0.595,0.885,
1062,-0.585,0.88,
1063,-0.61,0.855,
1064,-0.63,0.82,
1065,-0.63,0.8,
1066,-0.605,0.775,
1067,-0.575,0.76,
1068,-0.56,0.72,
1069,-0.555,0.68,
1070,-0.555,0.65,
1071,-0.555,0.615,
1072,-0.52,0.585,
1073,-0.49,0.56,
1074,-0.47,0.525,
1075,-0.43,0.47,
1076,-0.44,0.43,
1077,-0.425,0.395,
1078,-0.4,0.4,
1079,-0.375,0.36,
1080,-0.345,0.34,
1081,-0.315,0.285,
1082,-0.3,0.265,
1083,-0.29,0.225,
1084,-0.255,0.21,
1085,-0.23,0.205,
1086,-0.23,0.19,
1087,-0.21,0.16,
1088,-0.205,0.14,
1089,-0.205,0.12,
1090,-0.18,0.11,
1091,-0.185,0.125,
1092,-0.165,0.105,
1093,-0.18,0.09,
1094,-0.185,0.065,
1095,-0.175,0.075,
1096,-0.165,0.085,
1097,-0.14,0.105,
1098,-0.155,0.085,
1099,-0.155,0.06,
1100,-0.19,0.04,
1101,-0.18,0.04,
1102,-0.18,0.055,
1103,-0.16,0.07,
1104,-0.155,0.075,
1105,-0.16,0.05,
1106,-0.185,0.05,
1107,-0.185,0.06,
1108,-0.175,0.07,
1109,-0.16,0.07,
1110,-0.155,0.065,
1111,-0.165,0.05,
1112,-0.17,0.04,
1113,-0.19,0.055,
1114,-0.18,0.06,
1115,-0.17,0.07,
1116,-0.17,0.07,
1117,-0.18,0.04,
1118,-0.18,0.03,
1119,-0.19,0.045,
1120,-0.18,0.06,
1121,-0.165,0.08,
1122,-0.16,0.075,
1123,-0.165,0.06,
1124,-0.2,0.05,
1125,-0.205,0.055,
1126,-0.2,0.065,
1127,-0.17,0.09,
1128,-0.185,0.085,
1129,-0.17,0.07,
1130,-0.205,0.07,
1131,-0.2,0.065,
1132,-0.185,0.09,
1133,-0.17,0.105,
1134,-0.17,0.1,
1135,-0.175,0.07,
1136,-0.19,0.07,
1137,-0.2,0.075,
1138,-0.18,0.09,
1139,-0.19,0.095,
1140,-0.19,0.105,
1141,-0.185,0.09,
1142,-0.195,0.095,
1143,-0.2,0.095,
1144,-0.19,0.115,
1145,-0.175,0.115,
1146,-0.17,0.11,
1147,-0.19,0.09,
1148,-0.195,0.085,
1149,-0.2,0.095,
1150,-0.195,0.1,
1151,-0.175,0.12,
1152,-0.17,0.1,
1153,-0.185,0.08,
1154,-0.205,0.085,
1155,-0.205,0.095,
1156,-0.19,0.11,
1157,-0.17,0.125,
1158,-0.17,0.095,
1159,-0.17,0.08,
1160,-0.175,0.06,
1161,-0.175,0.075,
1162,-0.18,0.085,
1163,-0.17,0.095,
1164,-0.16,0.09,
1165,-0.155,0.09,
1166,-0.17,0.075,
1167,-0.165,0.075,
1168,-0.16,0.085,
1169,-0.16,0.1,
1170,-0.165,0.095,
1171,-0.16,0.06,
1172,-0.175,0.065,
1173,-0.19,0.065,
1174,-0.16,0.085,
1175,-0.15,0.075,
1176,-0.135,0.08,
1177,-0.145,0.055,
1178,-0.165,0.055,
1179,-0.175,0.065,
1180,-0.175,0.075,
1181,-0.165,0.095,
1182,-0.16,0.08,
1183,-0.165,0.075,
1184,-0.175,0.045,
1185,-0.18,0.04,
1186,-0.17,0.055,
1187,-0.175,0.075,
1188,-0.17,0.075,
1189,-0.165,0.065,
1190,-0.18,0.055,
1191,-0.18,0.05,
1192,-0.175,0.07,
1193,-0.175,0.07,
1194,-0.17,0.065,
1195,-0.17,0.045,
1196,-0.2,0.05,
1197,-0.19,0.045,
1198,-0.185,0.055,
1199,-0.16,0.06,
1200,-0.155,0.075,
1201,-0.145,0.05,
1202,-0.17,0.04,
1203,-0.185,0.04,
1204,-0.195,0.065,
1205,-0.165,0.085,
1206,-0.165,0.085,
1207,-0.145,0.075,
1208,-0.165,0.055,
1209,-0.17,0.065,
1210,-0.16,0.08,
1211,-0.15,0.105,
1212,-0.135,0.11,
1213,-0.135,0.11,
1214,-0.135,0.1,
1215,-0.15,0.125,
1216,-0.13,0.135,
1217,-0.12,0.165,
1218,-0.105,0.16,
1219,-0.115,0.145,
1220,-0.115,0.145,
1221,-0.145,0.145,
1222,-0.13,0.175,
1223,-0.105,0.19,
1224,-0.08,0.17,
1225,-0.095,0.16,
1226,-0.1,0.14,
1227,-0.12,0.115,
1228,-0.115,0.115,
1229,-0.105,0.1,
1230,-0.1,0.105,
1231,-0.1,0.075,
1232,-0.135,0.07,
1233,-0.16,0.07,
1234,-0.15,0.08,
1235,-0.13,0.085,
1236,-0.135,0.08,
1237,-0.125,0.055,
1238,-0.125,0.04,
1239,-0.14,0.05,
1240,-0.14,0.065,
1241,-0.145,0.075,
1242,-0.145,0.075,
1243,-0.16,0.06,
1244,-0.18,0.06,
1245,-0.18,0.055,
1246,-0.18,0.06,
1247,-0.18,0.08,
1248,-0.18,0.08,
1249,-0.18,0.055,
1250,-0.185,0.055,
1251,-0.18,0.06,
1252,-0.175,0.07,
1253,-0.14,0.085,
1254,-0.15,0.075,
1255,-0.17,0.06,
1256,-0.195,0.05,
1257,-0.21,0.04,
1258,-0.19,0.055,
1259,-0.165,0.05,
1260,-0.145,0.06,
1261,-0.14,0.03,
1262,-0.165,0.03,
1263,-0.165,0.03,
1264,-0.165,0.04,
1265,-0.15,0.055,
1266,-0.14,0.04,
1267,-0.125,0.04,
1268,-0.13,0.04,
1269,-0.14,0.06,
1270,-0.145,0.095,
1271,-0.125,0.12,
1272,-0.115,0.155,
1273,-0.115,0.125,
1274,-0.125,0.1,
1275,-0.13,0.085,
1276,-0.06,0.025,
1277,0.055,-0.09,
1278,0.175,-0.225,
1279,0.305,-0.415,
1280,0.405,-0.605,
1281,0.525,-0.745,
1282,0.65,-0.87,
1283,0.79,-0.98,
1284,0.965,-1.085,
1285,1.17,-1.185,
1286,1.355,-1.27,
1287,1.555,-1.29,
1288,1.745,-1.305,
1289,1.905,-1.315,
1290,2.0,-1.305,L
1291,2.03,-1.3,
1292,1.995,-1.285,
1293,1.94,-1.255,
1294,1.845,-1.225,
1295,1.65,-1.185,
1296,1.335,-1.135,
1297,1.0,-1.095,
1298,0.74,-1.025,
1299,0.585,-0.955,
1300,0.53,-0.86,
1301,0.505,-0.735,
1302,0.485,-0.635,
1303,0.465,-0.555,
1304,0.415,-0.495,
1305,0.355,-0.44,
1306,0.315,-0.37,
1307,0.285,-0.31,
1308,0.255,-0.28,
1309,0.23,-0.24,
1310,0.185,-0.21,
1311,0.15,-0.165,
1312,0.13,-0.07,
1313,0.09,-0.02,
1314,0.06,0.02,
1315,0.0,0.02,
1316,-0.055,0.075,
1317,-0.1,0.135,
1318,-0.135,0.205,
1319,-0.175,0.25,
1320,-0.195,0.265,
1321,-0.235,0.27,
1322,-0.265,0.275,
1323,-0.285,0.305,
1324,-0.29,0.325,
1325,-0.285,0.37,
1326,-0.28,0.37,
1327,-0.305,0.365,
1328,-0.33,0.36,
1329,-0.335,0.395,
1330,-0.345,0.41,
1331,-0.345,0.42,
1332,-0.32,0.425,
1333,-0.325,0.44,
1334,-0.35,0.44,
1335,-0.35,0.455,
1336,-0.375,0.475,
1337,-0.36,0.495,
1338,-0.355,0.5,
1339,-0.365,0.49,
1340,-0.37,0.495,
1341,-0.395,0.515,
1342,-0.39,0.525,
1343,-0.385,0.545,
1344,-0.4,0.56,
1345,-0.41,0.55,
1346,-0.41,0.55,
1347,-0.41,0.58,
1348,-0.395,0.6,
1349,-0.405,0.62,
1350,-0.4,0.625,
1351,-0.41,0.62,
1352,-0.445,0.64,
1353,-0.455,0.655,
1354,-0.45,0.7,
1355,-0.435,0.72,
1356,-0.44,0.735,
1357,-0.465,0.75,
1358,-0.47,0.76,
1359,-0.515,0.755,
1360,-0.51,0.79,
1361,-0.51,0.81,
1362,-0.5,0.83,
1363,-0.515,0.845,
1364,-0.52,0.84,
1365,-0.53,0.875,
1366,-0.52,0.895,
1367,-0.51,0.925,
1368,-0.515,0.91,
1369,-0.535,0.92,
1370,-0.555,0.925,
1371,-0.585,0.95,
1372,-0.575,0.97,
1373,-0.565,0.99,
1374,-0.575,0.995,
1375,-0.59,1.0,
1376,-0.625,0.99,
1377,-0.635,0.995,
1378,-0.63,1.015,
1379,-0.61,1.03,
1380,-0.615,1.005,
1381,-0.625,0.985,
1382,-0.66,0.985,
1383,-0.655,1.005,
1384,-0.65,0.99,
1385,-0.645,1.0,
1386,-0.64,0.985,
1387,-0.635,0.95,
1388,-0.635,0.905,
1389,-0.62,0.89,
1390,-0.62,0.875,
1391,-0.605,0.865,
1392,-0.595,0.82,
1393,-0.595,0.79,
1394,-0.59,0.755,
1395,-0.56,0.72,
1396,-0.535,0.695,
1397,-0.505,0.69,
1398,-0.485,0.64,
1399,-0.475,0.6,
1400,-0.465,0.555,
1401,-0.47,0.55,
1402,-0.42,0.525,
1403,-0.395,0.51,
1404,-0.365,0.485,
1405,-0.365,0.435,
1406,-0.34,0.385,
1407,-0.325,0.36,
1408,-0.305,0.34,
1409,-0.28,0.33,
1410,-0.26,0.31,
1411,-0.25,0.27,
1412,-0.225,0.25,
1413,-0.22,0.23,
1414,-0.2,0.22,
1415,-0.165,0.215,
1416,-0.15,0.205,
1417,-0.165,0.18,
1418,-0.16,0.16,
1419,-0.155,0.165,
1420,-0.145,0.165,
1421,-0.13,0.17,
1422,-0.12,0.185,
1423,-0.16,0.155,
1424,-0.16,0.145,
1425,-0.165,0.14,
1426,-0.16,0.15,
1427,-0.145,0.135,
1428,-0.125,0.14,
1429,-0.13,0.135,
1430,-0.145,0.135,
1431,-0.165,0.125,
1432,-0.155,0.135,
1433,-0.14,0.15,
1434,-0.13,0.145,
1435,-0.13,0.125,
1436,-0.15,0.115,
1437,-0.155,0.13,
1438,-0.15,0.145,
1439,-0.14,0.155,
1440,-0.145,0.145,
1441,-0.155,0.145,
1442,-0.165,0.135,
1443,-0.175,0.125,
1444,-0.15,0.135,
1445,-0.145,0.15,
1446,-0.135,0.155,
1447,-0.135,0.14,
1448,-0.16,0.11,
1449,-0.17,0.13,
1450,-0.165,0.16,
1451,-0.15,0.17,
1452,-0.135,0.15,
1453,-0.15,0.125,
1454,-0.155,0.125,
1455,-0.17,0.135,
1456,-0.165,0.155,
1457,-0.17,0.165,
1458,-0.135,0.165,
1459,-0.16,0.16,
1460,-0.16,0.14,
1461,-0.16,0.15,
1462,-0.15,0.165,
1463,-0.145,0.17,
1464,-0.145,0.175,
1465,-0.165,0.145,
1466,-0.17,0.15,
1467,-0.17,0.15,
1468,-0.16,0.16,
1469,-0.145,0.19,
1470,-0.13,0.175,
1471,-0.15,0.155,
1472,-0.175,0.145,
1473,-0.17,0.15,
1474,-0.17,0.165,
1475,-0.16,0.19,
1476,-0.15,0.18,
1477,-0.15,0.165,
1478,-0.16,0.145,
1479,-0.165,0.165,
1480,-0.16,0.16,
1481,-0.15,0.175,
1482,-0.145,0.165,
1483,-0.145,0.14,
1484,-0.18,0.135,
1485,-0.155,0.135,
1486,-0.15,0.145,
1487,-0.155,0.16,
1488,-0.13,0.165,
1489,-0.15,0.14,
1490,-0.17,0.13,
1491,-0.16,0.12,
1492,-0.14,0.145,
1493,-0.15,0.16,
1494,-0.135,0.14,
1495,-0.14,0.125,
1496,-0.145,0.105,
1497,-0.155,0.11,
1498,-0.15,0.125,
1499,-0.12,0.12,
1500,-0.1,0.135,
1501,-0.115,0.105,
1502,-0.135,0.09,
1503,-0.13,0.09,
1504,-0.13,0.11,
1505,-0.12,0.12,
1506,-0.13,0.12,
1507,-0.13,0.115,
1508,-0.13,0.105,
1509,-0.145,0.095,
1510,-0.135,0.11,
1511,-0.12,0.12,
1512,-0.125,0.115,
1513,-0.115,0.115,
1514,-0.14,0.095,
1515,-0.14,0.095,
1516,-0.135,0.11,
1517,-0.125,0.13,
1518,-0.125,0.11,
1519,-0.125,0.095,
1520,-0.14,0.075,
1521,-0.14,0.1,
1522,-0.13,0.125,
1523,-0.11,0.13,
1524,-0.08,0.13,
1525,-0.105,0.115,
1526,-0.105,0.105,
1527,-0.125,0.11,
1528,-0.13,0.13,
1529,-0.13,0.135,
1530,-0.09,0.135,
1531,-0.1,0.14,
1532,-0.105,0.14,
1533,-0.105,0.145,
1534,-0.09,0.18,
1535,-0.08,0.195,
1536,-0.07,0.18,
1537,-0.07,0.17,
1538,-0.08,0.17,
1539,-0.08,0.2,
1540,-0.09,0.21,
1541,-0.055,0.23,
1542,-0.045,0.23,
1543,-0.065,0.22,
1544,-0.07,0.21,
1545,-0.08,0.185,
1546,-0.065,0.2,
1547,-0.055,0.2,
1548,-0.045,0.17,
1549,-0.065,0.125,
1550,-0.095,0.095,
1551,-0.11,0.1,
1552,-0.1,0.095,
1553,-0.08,0.12,
1554,-0.075,0.115,
1555,-0.09,0.09,
1556,-0.115,0.085,
1557,-0.125,0.09,
1558,-0.125,0.11,
1559,-0.115,0.13,
1560,-0.11,0.115,
1561,-0.125,0.09,
1562,-0.14,0.075,
1563,-0.155,0.06,
1564,-0.145,0.085,
1565,-0.16,0.1,
1566,-0.16,0.1,
1567,-0.15,0.1,
1568,-0.16,0.07,
1569,-0.15,0.08,
1570,-0.155,0.08,
1571,-0.15,0.09,
1572,-0.145,0.085,
1573,-0.15,0.06,
1574,-0.16,0.055,
1575,-0.15,0.07,
1576,-0.16,0.075,
1577,-0.14,0.085,
1578,-0.13,0.075,
1579,-0.135,0.05,
1580,-0.135,0.04,
1581,-0.135,0.045,
1582,-0.125,0.06,
1583,-0.1,0.07,
1584,-0.095,0.08,
1585,-0.115,0.065,
1586,-0.12,0.055,
1587,-0.115,0.07,
1588,-0.1,0.105,
1589,-0.085,0.155,
1590,-0.08,0.185,
1591,-0.1,0.16,
1592,-0.11,0.155,
1593,-0.06,0.085,
1594,0.065,0.035,
1595,0.225,-0.035,
1596,0.32,-0.125,
1597,0.385,-0.265,
1598,0.435,-0.445,
1599,0.52,-0.615,
1600,0.66,-0.745,
1601,0.845,-0.86,
1602,1.055,-0.98,
1603,1.26,-1.07,
1604,1.46,-1.13,
1605,1.67,-1.18,
1606,1.88,-1.2,
1607,2.015,-1.21,L
1608,2.045,-1.22,
1609,1.98,-1.25,
1610,1.785,-1.265,
1611,1.47,-1.27,
1612,1.125,-1.25,
1613,0.835,-1.215,
1614,0.665,-1.16,
1615,0.545,-1.105,
1616,0.46,-1.03,
1617,0.415,-0.93,
1618,0.395,-0.79,
1619,0.41,-0.66,
1620,0.405,-0.565,
1621,0.355,-0.485,
1622,0.3,-0.41,
1623,0.26,-0.35,
1624,0.215,-0.275,
1625,0.19,-0.195,
1626,0.16,-0.145,
1627,0.11,-0.09,
1628,0.075,-0.065,
1629,0.02,-0.005,
1630,0.01,0.045,
1631,-0.025,0.085,
1632,-0.05,0.13,
1633,-0.085,0.16,
1634,-0.135,0.2,
1635,-0.17,0.235,
1636,-0.19,0.28,
1637,-0.2,0.335,
1638,-0.22,0.33,
1639,-0.245,0.34,
1640,-0.275,0.33,
1641,-0.3,0.365,
1642,-0.295,0.385,
1643,-0.29,0.405,
1644,-0.27,0.41,
1645,-0.29,0.405,
1646,-0.31,0.405,
1647,-0.335,0.41,
1648,-0.315,0.43,
1649,-0.305,0.465,
1650,-0.29,0.455,
1651,-0.32,0.445,
1652,-0.34,0.44,
1653,-0.34,0.475,
1654,-0.355,0.51,
1655,-0.335,0.53,
1656,-0.32,0.54,
1657,-0.335,0.535,
1658,-0.355,0.535,
1659,-0.36,0.55,
1660,-0.365,0.56,
1661,-0.365,0.595,
1662,-0.38,0.605,
1663,-0.365,0.605,
1664,-0.38,0.6,
1665,-0.38,0.63,
1666,-0.39,0.655,
1667,-0.39,0.685,
1668,-0.385,0.68,
1669,-0.39,0.68,
1670,-0.42,0.695,
1671,-0.42,0.73,
1672,-0.41,0.76,
1673,-0.42,0.8,
1674,-0.43,0.815,
1675,-0.445,0.805,
1676,-0.47,0.84,
1677,-0.475,0.85,
1678,-0.47,0.88,
1679,-0.465,0.905,
1680,-0.47,0.935,
1681,-0.505,0.915,
1682,-0.53,0.905,
1683,-0.53,0.92,
1684,-0.53,0.935,
1685,-0.51,0.965,
1686,-0.51,0.96,
1687,-0.525,0.95,
1688,-0.545,0.95,
1689,-0.565,0.95,
1690,-0.58,0.955,
1691,-0.57,0.97,
1692,-0.555,0.94,
1693,-0.56,0.92,
1694,-0.59,0.89,
1695,-0.6,0.87,
1696,-0.585,0.87,
1697,-0.57,0.86,
1698,-0.55,0.815,
1699,-0.54,0.78,
1700,-0.55,0.745,
1701,-0.54,0.71,
1702,-0.52,0.685,
1703,-0.495,0.675,
1704,-0.465,0.63,
1705,-0.46,0.6,
1706,-0.455,0.55,
1707,-0.435,0.515,
1708,-0.395,0.495,
1709,-0.37,0.46,
1710,-0.335,0.42,
1711,-0.32,0.36,
1712,-0.3,0.32,
1713,-0.275,0.305,
1714,-0.25,0.29,
1715,-0.205,0.285,
1716,-0.19,0.265,
1717,-0.18,0.22,
1718,-0.2,0.195,
1719,-0.175,0.185,
1720,-0.165,0.19,
1721,-0.145,0.185,
1722,-0.13,0.17,
1723,-0.115,0.15,
1724,-0.135,0.13,
1725,-0.14,0.125,
1726,-0.135,0.125,
1727,-0.12,0.135,
1728,-0.11,0.13,
1729,-0.115,0.12,
1730,-0.115,0.105,
1731,-0.14,0.11,
1732,-0.14,0.11,
1733,-0.12,0.12,
1734,-0.12,0.115,
1735,-0.13,0.095,
1736,-0.145,0.08,
1737,-0.13,0.07,
1738,-0.135,0.09,
1739,-0.13,0.13,
1740,-0.125,0.115,
1741,-0.125,0.1,
1742,-0.14,0.08,
1743,-0.15,0.085,
1744,-0.135,0.09,
1745,-0.12,0.1,
1746,-0.115,0.095,
1747,-0.135,0.09,
1748,-0.15,0.085,
1749,-0.16,0.085,
1750,-0.145,0.115,
1751,-0.13,0.115,
1752,-0.12,0.105,
1753,-0.135,0.09,
1754,-0.14,0.09,
1755,-0.16,0.085,
1756,-0.165,0.095,
1757,-0.145,0.125,
1758,-0.135,0.11,
1759,-0.135,0.1,
1760,-0.135,0.09,
1761,-0.145,0.08,
1762,-0.15,0.12,
1763,-0.145,0.12,
1764,-0.125,0.115,
1765,-0.125,0.11,
1766,-0.145,0.095,
1767,-0.145,0.105,
1768,-0.14,0.12,
1769,-0.12,0.145,
1770,-0.13,0.12,
1771,-0.145,0.115,
1772,-0.165,0.105,
1773,-0.15,0.115,
1774,-0.14,0.135,
1775,-0.135,0.15,
1776,-0.135,0.14,
1777,-0.14,0.125,
1778,-0.145,0.115,
1779,-0.16,0.105,
1780,-0.14,0.11,
1781,-0.13,0.14,
1782,-0.11,0.125,
1783,-0.125,0.11,
1784,-0.13,0.105,
1785,-0.145,0.115,
1786,-0.14,0.105,
1787,-0.115,0.11,
1788,-0.105,0.11,
1789,-0.12,0.105,
1790,-0.12,0.09,
1791,-0.14,0.1,
1792,-0.13,0.1,
1793,-0.12,0.125,
1794,-0.11,0.115,
1795,-0.11,0.1,
1796,-0.12,0.085,
1797,-0.12,0.07,
1798,-0.11,0.075,
1799,-0.105,0.09,
1800,-0.115,0.065,
1801,-0.115,0.075,
1802,-0.135,0.05,
1803,-0.135,0.05,
1804,-0.13,0.07,
1805,-0.105,0.08,
1806,-0.115,0.07,
1807,-0.125,0.05,
1808,-0.15,0.045,
1809,-0.14,0.06,
1810,-0.14,0.06,
1811,-0.115,0.09,
1812,-0.12,0.08,
1813,-0.12,0.06,
1814,-0.15,0.045,
1815,-0.155,0.045,
1816,-0.145,0.055,
1817,-0.135,0.065,
1818,-0.125,0.06,
1819,-0.115,0.045,
1820,-0.13,0.04,
1821,-0.135,0.03,
1822,-0.13,0.05,
1823,-0.12,0.06,
1824,-0.11,0.06,
1825,-0.11,0.045,
1826,-0.13,0.035,
1827,-0.125,0.05,
1828,-0.13,0.07,
1829,-0.115,0.075,
1830,-0.09,0.055,
1831,-0.085,0.04,
1832,-0.1,0.03,
1833,-0.1,0.045,
1834,-0.075,0.06,
1835,-0.065,0.09,
1836,-0.06,0.08,
1837,-0.07,0.07,
1838,-0.07,0.07,
1839,-0.065,0.085,
1840,-0.055,0.1,
1841,-0.05,0.12,
1842,-0.025,0.125,
1843,-0.05,0.115,
1844,-0.05,0.1,
1845,-0.06,0.09,
1846,-0.04,0.095,
1847,-0.035,0.075,
1848,-0.03,0.075,
1849,-0.07,0.05,
1850,-0.085,0.015,
1851,-0.1,0.02,
1852,-0.1,0.02,
1853,-0.08,0.04,
1854,-0.07,0.03,
1855,-0.075,0.01,
1856,-0.085,0.0,
1857,-0.125,0.0,
1858,-0.13,0.01,
1859,-0.125,0.01,
1860,-0.105,0.01,
1861,-0.125,-0.005,
1862,-0.14,-0.03,
1863,-0.155,0.0,
1864,-0.155,-0.01,
1865,-0.165,-0.005,
1866,-0.135,0.0,
1867,-0.135,-0.015,
1868,-0.14,-0.025,
1869,-0.14,-0.015,
1870,-0.14,-0.005,
1871,-0.135,0.0,
1872,-0.135,0.0,
1873,-0.145,-0.025,
1874,-0.15,-0.035,
1875,-0.165,-0.025,
1876,-0.145,0.005,
1877,-0.135,0.005,
1878,-0.11,-0.01,
1879,-0.11,-0.02,
1880,-0.13,-0.04,
1881,-0.12,-0.045,
1882,-0.1,-0.03,
1883,-0.09,-0.005,
1884,-0.085,0.0,
1885,-0.085,0.01,
1886,-0.09,0.015,
1887,-0.1,0.03,
1888,-0.08,0.05,
1889,-0.06,0.025,
1890,-0.015,-0.045,
1891,0.045,-0.175,
1892,0.155,-0.315,
1893,0.28,-0.495,
1894,0.385,-0.65,
1895,0.5,-0.775,
1896,0.605,-0.925,
1897,0.715,-1.045,
1898,0.86,-1.16,
1899,1.04,-1.22,
1900,1.23,-1.26,
1901,1.385,-1.28,
1902,1.54,-1.32,
1903,1.67,-1.345,
1904,1.815,-1.33,
1905,1.96,-1.295,L
1906,2.06,-1.25,
1907,2.075,-1.215,
1908,2.005,-1.185,
1909,1.795,-1.205,
1910,1.455,-1.165,
1911,1.1,-1.11,
1912,0.805,-1.03,
1913,0.655,-0.95,
1914,0.585,-0.9,
1915,0.535,-0.815,
1916,0.51,-0.725,
1917,0.47,-0.65,
1918,0.445,-0.56,
1919,0.42,-0.49,
1920,0.39,-0.46,
1921,0.34,-0.41,
1922,0.29,-0.39,
1923,0.25,-0.315,
1924,0.19,-0.235,
1925,0.165,-0.15,
1926,0.115,-0.095,
1927,0.07,-0.055,
1928,0.005,-0.025,
1929,-0.055,0.02,
1930,-0.065,0.075,
1931,-0.105,0.14,
1932,-0.13,0.175,
1933,-0.185,0.18,
1934,-0.23,0.205,
1935,-0.24,0.21,
1936,-0.265,0.235,
1937,-0.255,0.25,
1938,-0.27,0.245,
1939,-0.255,0.255,
1940,-0.285,0.255,
1941,-0.305,0.265,
1942,-0.31,0.31,
1943,-0.3,0.325,
1944,-0.295,0.34,
1945,-0.315,0.355,
1946,-0.33,0.32,
1947,-0.335,0.33,
1948,-0.335,0.35,
1949,-0.31,0.39,
1950,-0.305,0.4,
1951,-0.33,0.395,
1952,-0.35,0.38,
1953,-0.365,0.39,
1954,-0.35,0.42,
1955,-0.355,0.445,
1956,-0.36,0.45,
1957,-0.375,0.44,
1958,-0.38,0.44,
1959,-0.375,0.47,
1960,-0.375,0.515,
1961,-0.375,0.54,
1962,-0.365,0.55,
1963,-0.385,0.53,
1964,-0.41,0.56,
1965,-0.42,0.575,
1966,-0.41,0.62,
1967,-0.4,0.645,
1968,-0.4,0.655,
1969,-0.425,0.655,
1970,-0.46,0.635,
1971,-0.465,0.665,
1972,-0.45,0.69,
1973,-0.44,0.71,
1974,-0.43,0.745,
1975,-0.455,0.75,
1976,-0.475,0.75,
1977,-0.5,0.775,
1978,-0.495,0.795,
1979,-0.49,0.84,
1980,-0.49,0.82,
1981,-0.5,0.82,
1982,-0.52,0.82,
1983,-0.545,0.825,
1984,-0.545,0.845,
1985,-0.54,0.865,
1986,-0.535,0.865,
1987,-0.545,0.855,
1988,-0.565,0.825,
1989,-0.58,0.825,
1990,-0.585,0.81,
1991,-0.575,0.835,
1992,-0.565,0.805,
1993,-0.55,0.79,
1994,-0.57,0.755,
1995,-0.575,0.73,
1996,-0.57,0.71,
1997,-0.565,0.7,
1998,-0.55,0.665,
1999,-0.53,0.61,
2000,-0.525,0.58,
2001,-0.515,0.525,
2002,-0.48,0.49,
2003,-0.44,0.485,
2004,-0.43,0.435,
2005,-0.425,0.41,
2006,-0.4,0.375,
2007,-0.38,0.34,
2008,-0.345,0.325,
2009,-0.315,0.315,
2010,-0.29,0.27,
2011,-0.315,0.235,
2012,-0.28,0.19,
2013,-0.275,0.16,
2014,-0.24,0.15,
2015,-0.2,0.145,
2016,-0.18,0.12,
2017,-0.185,0.09,
2018,-0.2,0.055,
2019,-0.205,0.055,
2020,-0.175,0.055,
2021,-0.16,0.05,
2022,-0.125,0.04,
2023,-0.135,0.03,
2024,-0.155,0.005,
2025,-0.155,0.0,
2026,-0.16,0.015,
2027,-0.145,0.015,
2028,-0.14,0.005,
2029,-0.145,-0.01,
2030,-0.15,-0.02,
2031,-0.165,-0.02,
2032,-0.155,-0.01,
2033,-0.15,0.01,
2034,-0.145,0.01,
2035,-0.16,-0.015,
2036,-0.17,-0.015,
2037,-0.16,-0.02,
2038,-0.145,-0.015,
2039,-0.13,0.005,
2040,-0.135,-0.005,
2041,-0.155,-0.025,
2042,-0.16,-0.01,
2043,-0.15,-0.025,
2044,-0.14,-0.01,
2045,-0.13,0.005,
2046,-0.13,0.0,
2047,-0.16,-0.015,
2048,-0.16,-0.025,
2049,-0.175,-0.025,
2050,-0.16,-0.005,
2051,-0.15,0.025,
2052,-0.14,0.025,
2053,-0.14,0.01,
2054,-0.165,-0.025,
2055,-0.18,-0.02,
2056,-0.19,-0.01,
2057,-0.17,0.015,
2058,-0.155,0.02,
2059,-0.16,0.005,
2060,-0.175,0.015,
2061,-0.21,0.015,
2062,-0.19,0.035,
2063,-0.18,0.035,
2064,-0.16,0.025,
2065,-0.17,0.0,
2066,-0.185,0.0,
2067,-0.18,0.01,
2068,-0.165,0.02,
2069,-0.165,0.01,
2070,-0.155,0.03,
2071,-0.185,0.005,
2072,-0.19,-0.005,
2073,-0.19,0.0,
2074,-0.175,0.01,
2075,-0.165,0.045,
2076,-0.165,0.025,
2077,-0.185,0.015,
2078,-0.195,0.005,
2079,-0.195,-0.005,
2080,-0.165,-0.005,
2081,-0.145,0.03,
2082,-0.145,0.015,
2083,-0.15,0.0,
2084,-0.185,0.0,
2085,-0.195,0.0,
2086,-0.185,0.025,
2087,-0.18,0.02,
2088,-0.17,0.015,
2089,-0.155,0.005,
2090,-0.17,-0.01,
2091,-0.18,-0.005,
2092,-0.18,0.005,
2093,-0.16,0.015,
2094,-0.145,0.01,
2095,-0.16,0.005,
2096,-0.165,-0.02,
2097,-0.18,-0.02,
2098,-0.17,-0.01,
2099,-0.18,-0.01,
2100,-0.16,-0.02,
2101,-0.175,-0.01,
2102,-0.175,0.005,
2103,-0.165,-0.005,
2104,-0.155,0.01,
2105,-0.15,0.025,
2106,-0.13,0.025,
2107,-0.14,0.01,
2108,-0.15,0.0,
2109,-0.13,0.0,
2110,-0.11,0.035,
2111,-0.105,0.05,
2112,-0.09,0.05,
2113,-0.075,0.04,
2114,-0.06,0.035,
2115,-0.05,0.06,
2116,-0.025,0.075,
2117,0.01,0.1,
2118,0.055,0.115,
2119,0.085,0.12,
2120,0.1,0.13,
2121,0.15,0.16,
2122,0.225,0.205,
2123,0.335,0.225,
2124,0.425,0.24,
2125,0.535,0.245,
2126,0.58,0.26,
2127,0.61,0.315,
2128,0.665,0.375,
2129,0.74,0.435,
2130,0.785,0.485,
2131,0.85,0.555,
2132,0.89,0.605,
2133,0.93,0.675,
2134,0.975,0.79,
2135,0.99,0.925,V
2136,1.005,1.1,
2137,0.975,1.31,
2138,0.93,1.54,
2139,0.845,1.725,
2140,0.67,1.845,
2141,0.325,1.935,
2142,-0.11,1.945,
2143,-0.61,1.98,
2144,-1.01,1.985,
2145,-1.295,2.025,
2146,-1.465,2.05,
2147,-1.6,2.1,
2148,-1.675,2.09,
2149,-1.72,2.065,
2150,-1.71,2.005,
2151,-1.66,1.935,
2152,-1.625,1.855,
2153,-1.575,1.79,
2154,-1.53,1.665,
2155,-1.45,1.52,
2156,-1.38,1.41,
2157,-1.335,1.305,
2158,-1.315,1.22,
2159,-1.28,1.13,
2160,-1.23,1.075,
2161,-1.185,1.045,
2162,-1.165,1.055,
2163,-1.135,1.08,
2164,-1.095,1.115,
2165,-1.05,1.16,
2166,-1.02,1.145,
2167,-1.03,1.125,
2168,-1.03,1.065,
2169,-1.035,0.995,
2170,-1.025,0.9,
2171,-0.98,0.78,
2172,-0.935,0.62,
2173,-0.87,0.465,
2174,-0.81,0.33,
2175,-0.735,0.18,
2176,-0.64,0.055,
2177,-0.535,-0.05,
2178,-0.46,-0.14,
2179,-0.36,-0.25,
2180,-0.305,-0.305,
2181,-0.265,-0.34,
2182,-0.23,-0.355,
2183,-0.195,-0.365,
2184,-0.155,-0.415,
2185,-0.14,-0.48,
2186,-0.115,-0.53,
2187,-0.105,-0.57,
2188,-0.09,-0.57,
2189,-0.06,-0.585,
2190,-0.05,-0.62,
2191,-0.05,-0.655,
2192,-0.025,-0.695,
2193,-0.02,-0.71,
2194,-0.005,-0.715,
2195,0.03,-0.735,
2196,0.055,-0.77,
2197,0.07,-0.805,
2198,0.075,-0.825,
2199,0.075,-0.83,
2200,0.085,-0.83,
2201,0.105,-0.87,
2202,0.11,-0.89,
2203,0.135,-0.93,
2204,0.165,-0.975,
2205,0.19,-1.005,
2206,0.22,-1.01,
2207,0.245,-1.02,
2208,0.27,-1.05,
2209,0.29,-1.1,
2210,0.31,-1.145,
2211,0.34,-1.185,
2212,0.38,-1.19,
2213,0.415,-1.205,
2214,0.44,-1.235,
2215,0.475,-1.265,
2216,0.48,-1.285,
2217,0.515,-1.3,
2218,0.535,-1.33,
2219,0.575,-1.335,
2220,0.6,-1.36,
2221,0.63,-1.395,
2222,0.65,-1.43,
2223,0.675,-1.445,
2224,0.695,-1.44,
2225,0.75,-1.44,
2226,0.785,-1.455,
2227,0.795,-1.47,
2228,0.805,-1.495,
2229,0.81,-1.48,
2230,0.84,-1.455,
2231,0.875,-1.45,
2232,0.89,-1.46,
2233,0.885,-1.45,
2234,0.87,-1.45,
2235,0.855,-1.41,
2236,0.855,-1.37,
2237,0.88,-1.325,
2238,0.89,-1.295,
2239,0.87,-1.265,
2240,0.835,-1.24,
2241,0.8,-1.2,
2242,0.795,-1.13,
2243,0.795,-1.075,
2244,0.765,-1.025,
2245,0.745,-0.975,
2246,0.7,-0.955,
2247,0.655,-0.925,
2248,0.63,-0.865,
2249,0.625,-0.815,
2250,0.605,-0.755,
2251,0.565,-0.715,
2252,0.515,-0.685,
2253,0.465,-0.61,
2254,0.43,-0.535,
2255,0.4,-0.475,
2256,0.365,-0.46,
2257,0.31,-0.42,
2258,0.265,-0.395,
2259,0.22,-0.345,
2260,0.18,-0.295,
2261,0.155,-0.245,
2262,0.13,-0.24,
2263,0.105,-0.22,
2264,0.075,-0.23,
2265,0.03,-0.205,
2266,-0.01,-0.18,
2267,0.01,-0.145,
2268,-0.01,-0.13,
2269,-0.02,-0.125,
2270,-0.04,-0.15,
2271,-0.06,-0.125,
2272,-0.065,-0.11,
2273,-0.065,-0.095,
2274,-0.075,-0.09,
2275,-0.085,-0.095,
2276,-0.105,-0.095,
2277,-0.125,-0.08,
2278,-0.105,-0.07,
2279,-0.095,-0.05,
2280,-0.095,-0.04,
2281,-0.12,-0.07,
2282,-0.13,-0.085,
2283,-0.13,-0.08,
2284,-0.135,-0.05,
2285,-0.105,-0.02,
2286,-0.105,-0.035,
2287,-0.13,-0.04,
2288,-0.145,-0.065,
2289,-0.165,-0.07,
2290,-0.165,-0.05,
2291,-0.135,-0.015,
2292,-0.14,-0.03,
2293,-0.14,-0.035,
2294,-0.16,-0.05,
2295,-0.17,-0.055,
2296,-0.175,-0.025,
2297,-0.16,-0.01,
2298,-0.14,0.0,
2299,-0.165,-0.005,
2300,-0.16,-0.01,
2301,-0.175,-0.015,
2302,-0.18,-0.015,
2303,-0.155,0.0,
2304,-0.145,-0.005,
2305,-0.14,0.0,
2306,-0.16,-0.03,
2307,-0.18,-0.03,
2308,-0.19,-0.015,
2309,-0.18,0.005,
2310,-0.18,0.0,
2311,-0.18,-0.005,
2312,-0.17,-0.03,
2313,-0.17,-0.02,
2314,-0.165,-0.005,
2315,-0.175,0.025,
2316,-0.185,0.025,
2317,-0.18,0.005,
2318,-0.19,-0.015,
2319,-0.185,-0.01,
2320,-0.17,-0.015,
2321,-0.16,0.015,
2322,-0.17,0.005,
2323,-0.18,-0.015,
2324,-0.205,-0.02,
2325,-0.19,-0.015,
2326,-0.17,0.035,
2327,-0.155,0.025,
2328,-0.155,0.035,
2329,-0.155,-0.015,
2330,-0.17,-0.025,
2331,-0.185,-0.025,
2332,-0.18,0.005,
2333,-0.175,0.015,
2334,-0.165,0.01,
2335,-0.175,0.01,
2336,-0.19,-0.005,
2337,-0.2,0.0,
2338,-0.205,0.01,
2339,-0.185,0.02,
2340,-0.175,0.005,
2341,-0.17,0.01,
2342,-0.175,0.005,
2343,-0.195,0.015,
2344,-0.195,0.02,
2345,-0.185,0.035,
2346,-0.17,0.025,
2347,-0.17,0.015,
2348,-0.18,0.005,
2349,-0.2,0.025,
2350,-0.2,0.02,
2351,-0.185,0.045,
2352,-0.17,0.045,
2353,-0.18,0.035,
2354,-0.18,0.01,
2355,-0.18,0.005,
2356,-0.18,0.02,
2357,-0.17,0.045,
2358,-0.17,0.02,
2359,-0.18,0.01,
2360,-0.195,-0.01,
2361,-0.215,0.0,
2362,-0.205,0.015,
2363,-0.19,0.01,
2364,-0.18,0.01,
2365,-0.18,0.01,
2366,-0.19,0.0,
2367,-0.2,-0.005,
2368,-0.185,0.02,
2369,-0.175,0.02,
2370,-0.175,0.02,
2371,-0.185,0.005,
2372,-0.22,-0.015,
2373,-0.215,0.0,
2374,-0.21,0.005,
2375,-0.175,0.035,
2376,-0.17,0.025,
2377,-0.18,-0.005,
2378,-0.19,0.005,
2379,-0.215,-0.005,
2380,-0.21,0.015,
2381,-0.185,0.02,
2382,-0.18,0.02,
2383,-0.18,0.02,
2384,-0.195,-0.02,
2385,-0.215,-0.01,
2386,-0.2,0.0,
2387,-0.185,0.015,
2388,-0.16,0.01,
2389,-0.16,0.0,
2390,-0.175,-0.025,
2391,-0.185,-0.005,
2392,-0.185,0.01,
2393,-0.175,0.03,
2394,-0.16,0.015,
2395,-0.165,0.0,
2396,-0.19,-0.01,
2397,-0.185,0.005,
2398,-0.185,0.02,
2399,-0.17,0.03,
2400,-0.17,0.04,
2401,-0.17,0.015,
2402,-0.17,0.0,
2403,-0.185,-0.005,
2404,-0.185,0.0,
2405,-0.17,0.03,
2406,-0.165,0.02,
2407,-0.16,0.02,
2408,-0.165,0.005,
2409,-0.16,0.015,
2410,-0.135,0.005,
2411,-0.115,0.03,
2412,-0.095,0.035,
2413,-0.115,0.03,
2414,-0.12,0.035,
2415,-0.13,0.03,
2416,-0.115,0.06,
2417,-0.1,0.07,
2418,-0.09,0.06,
2419,-0.1,0.06,
2420,-0.1,0.02,
2421,-0.105,0.025,
2422,-0.09,0.04,
2423,-0.08,0.035,
2424,-0.07,0.045,
2425,-0.09,0.025,
2426,-0.11,0.005,
2427,-0.11,-0.01,
2428,-0.1,0.005,
2429,-0.1,0.02,
2430,-0.075,0.005,
2431,-0.105,0.0,
2432,-0.14,-0.015,
2433,-0.17,-0.015,
2434,-0.16,-0.025,
2435,-0.14,-0.015,
2436,-0.14,-0.01,
2437,-0.165,-0.025,
2438,-0.175,-0.04,
2439,-0.19,-0.04,
2440,-0.185,-0.02,
2441,-0.18,-0.015,
2442,-0.18,-0.035,
2443,-0.165,-0.05,
2444,-0.165,-0.045,
2445,-0.18,-0.05,
2446,-0.19,-0.015,
2447,-0.17,0.005,
2448,-0.175,0.015,
2449,-0.175,-0.02,
2450,-0.175,-0.035,
2451,-0.185,-0.04,
2452,-0.175,-0.025,
2453,-0.165,-0.01,
2454,-0.15,-0.015,
2455,-0.165,-0.025,
2456,-0.17,-0.03,
2457,-0.17,-0.035,
2458,-0.155,-0.01,
2459,-0.135,0.01,
2460,-0.125,0.025,
2461,-0.13,0.045,
2462,-0.145,0.055,
2463,-0.155,0.045,
2464,-0.125,0.015,
2465,-0.06,-0.035,
2466,0.055,-0.15,
2467,0.175,-0.29,
2468,0.265,-0.45,
2469,0.38,-0.595,
2470,0.515,-0.705,
2471,0.655,-0.805,
2472,0.83,-0.935,
2473,1.025,-1.04,
2474,1.23,-1.125,
2475,1.44,-1.16,
2476,1.66,-1.165,
2477,1.87,-1.16,
2478,2.01,-1.2,
2479,2.07,-1.225,L
2480,2.085,-1.23,
2481,2.045,-1.22,
2482,1.97,-1.195,
2483,1.75,-1.165,
2484,1.375,-1.145,
2485,0.95,-1.105,
2486,0.625,-1.06,
2487,0.47,-0.97,
2488,0.425,-0.855,
2489,0.4,-0.74,
2490,0.385,-0.635,
2491,0.345,-0.585,
2492,0.27,-0.55,
2493,0.225,-0.495,
2494,0.18,-0.435,
2495,0.16,-0.37,
2496,0.12,-0.31,
2497,0.085,-0.255,
2498,0.06,-0.21,
2499,0.03,-0.16,
2500,0.01,-0.095,
2501,-0.005,-0.04,
2502,-0.045,-0.01,
2503,-0.115,0.035,
2504,-0.155,0.07,
2505,-0.195,0.115,
2506,-0.215,0.17,
2507,-0.23,0.225,
2508,-0.255,0.225,
2509,-0.29,0.24,
2510,-0.335,0.245,
2511,-0.345,0.26,
2512,-0.33,0.28,
2513,-0.31,0.305,
2514,-0.305,0.3,
2515,-0.33,0.3,
2516,-0.355,0.3,
2517,-0.395,0.305,
2518,-0.405,0.335,
2519,-0.38,0.37,
2520,-0.365,0.365,
2521,-0.375,0.385,
2522,-0.385,0.37,
2523,-0.405,0.38,
2524,-0.4,0.4,
2525,-0.39,0.425,
2526,-0.38,0.425,
2527,-0.39,0.415,
2528,-0.415,0.42,
2529,-0.425,0.44,
2530,-0.42,0.47,
2531,-0.405,0.48,
2532,-0.39,0.505,
2533,-0.4,0.49,
2534,-0.425,0.505,
2535,-0.425,0.525,
2536,-0.445,0.55,
2537,-0.44,0.575,
2538,-0.44,0.59,
2539,-0.45,0.615,
2540,-0.475,0.6,
2541,-0.47,0.635,
2542,-0.465,0.655,
2543,-0.475,0.685,
2544,-0.485,0.7,
2545,-0.495,0.71,
2546,-0.505,0.705,
2547,-0.525,0.705,
2548,-0.505,0.75,
2549,-0.5,0.77,
2550,-0.515,0.78,
2551,-0.545,0.78,
2552,-0.57,0.785,
2553,-0.575,0.815,
2554,-0.565,0.81,
2555,-0.555,0.83,
2556,-0.58,0.84,
2557,-0.595,0.83,
2558,-0.61,0.81,
2559,-0.63,0.815,
2560,-0.62,0.84,
2561,-0.605,0.85,
2562,-0.605,0.82,
2563,-0.63,0.79,
2564,-0.65,0.77,
2565,-0.645,0.755,
2566,-0.65,0.75,
2567,-0.62,0.745,
2568,-0.6,0.72,
2569,-0.6,0.66,
2570,-0.61,0.625,
2571,-0.61,0.58,
2572,-0.58,0.57,
2573,-0.54,0.54,
2574,-0.5,0.52,
2575,-0.49,0.465,
2576,-0.48,0.425,
2577,-0.46,0.4,
2578,-0.45,0.38,
2579,-0.41,0.365,
2580,-0.375,0.33,
2581,-0.35,0.28,
2582,-0.335,0.23,
2583,-0.33,0.215,
2584,-0.3,0.215,
2585,-0.27,0.19,
2586,-0.23,0.17,
2587,-0.205,0.14,
2588,-0.2,0.1,
2589,-0.2,0.09,
2590,-0.18,0.085,
2591,-0.155,0.11,
2592,-0.16,0.085,
2593,-0.14,0.075,
2594,-0.145,0.035,
2595,-0.15,0.05,
2596,-0.16,0.055,
2597,-0.145,0.07,
2598,-0.14,0.06,
2599,-0.135,0.025,
2600,-0.16,0.02,
2601,-0.155,0.02,
2602,-0.155,0.03,
2603,-0.145,0.035,
2604,-0.13,0.035,
2605,-0.16,0.02,
2606,-0.17,0.01,
2607,-0.175,0.025,
2608,-0.16,0.045,
2609,-0.155,0.045,
2610,-0.15,0.04,
2611,-0.165,0.045,
2612,-0.185,0.03,
2613,-0.185,0.025,
2614,-0.18,0.05,
2615,-0.16,0.055,
2616,-0.155,0.055,
2617,-0.145,0.05,
2618,-0.18,0.045,
2619,-0.19,0.055,
2620,-0.17,0.065,
2621,-0.155,0.085,
2622,-0.135,0.075,
2623,-0.16,0.07,
2624,-0.18,0.07,
2625,-0.19,0.07,
2626,-0.165,0.09,
2627,-0.155,0.11,
2628,-0.14,0.1,
2629,-0.15,0.09,
2630,-0.16,0.07,
2631,-0.185,0.09,
2632,-0.165,0.09,
2633,-0.145,0.115,
2634,-0.14,0.115,
2635,-0.14,0.095,
2636,-0.155,0.085,
2637,-0.15,0.09,
2638,-0.17,0.105,
2639,-0.16,0.12,
2640,-0.15,0.115,
2641,-0.155,0.12,
2642,-0.145,0.095,
2643,-0.145,0.09,
2644,-0.15,0.095,
2645,-0.135,0.11,
2646,-0.13,0.105,
2647,-0.13,0.1,
2648,-0.135,0.085,
2649,-0.14,0.085,
2650,-0.14,0.08,
2651,-0.12,0.11,
2652,-0.12,0.09,
2653,-0.13,0.07,
2654,-0.15,0.06,
2655,-0.165,0.075,
2656,-0.155,0.085,
2657,-0.135,0.1,
2658,-0.14,0.085,
2659,-0.135,0.06,
2660,-0.17,0.04,
2661,-0.155,0.04,
2662,-0.15,0.075,
2663,-0.145,0.1,
2664,-0.125,0.08,
2665,-0.145,0.06,
2666,-0.155,0.03,
2667,-0.165,0.04,
2668,-0.165,0.06,
2669,-0.155,0.06,
2670,-0.135,0.06,
2671,-0.165,0.04,
2672,-0.175,0.035,
2673,-0.185,0.045,
2674,-0.17,0.05,
2675,-0.15,0.055,
2676,-0.145,0.035,
2677,-0.15,0.035,
2678,-0.175,0.025,
2679,-0.155,0.035,
2680,-0.155,0.025,
2681,-0.135,0.05,
2682,-0.115,0.03,
2683,-0.11,0.025,
2684,-0.115,0.0,
2685,-0.115,0.005,
2686,-0.09,0.025,
2687,-0.08,0.055,
2688,-0.065,0.055,
2689,-0.065,0.035,
2690,-0.08,0.025,
2691,-0.09,0.025,
2692,-0.08,0.04,
2693,-0.07,0.045,
2694,-0.055,0.04,
2695,-0.06,0.015,
2696,-0.075,0.0,
2697,-0.08,0.01,
2698,-0.06,0.03,
2699,-0.065,0.035,
2700,-0.065,0.03,
2701,-0.065,-0.005,
2702,-0.095,-0.005,
2703,-0.105,-0.005,
2704,-0.095,0.02,
2705,-0.08,0.035,
2706,-0.085,0.03,
2707,-0.1,-0.005,
2708,-0.125,-0.015,
2709,-0.15,-0.015,
2710,-0.14,0.01,
2711,-0.145,0.015,
2712,-0.14,0.025,
2713,-0.16,0.0,
2714,-0.18,0.0,
2715,-0.195,0.005,
2716,-0.18,0.0,
2717,-0.165,0.01,
2718,-0.155,-0.005,
2719,-0.15,-0.015,
2720,-0.165,-0.02,
2721,-0.185,-0.015,
2722,-0.18,0.025,
2723,-0.17,0.04,
2724,-0.17,0.015,
2725,-0.17,0.015,
2726,-0.17,0.005,
2727,-0.185,0.005,
2728,-0.185,0.01,
2729,-0.165,0.035,
2730,-0.165,0.035,
2731,-0.16,0.015,
2732,-0.16,-0.01,
2733,-0.155,0.01,
2734,-0.15,0.02,
2735,-0.135,0.04,
2736,-0.125,0.045,
2737,-0.13,0.05,
2738,-0.15,0.08,
2739,-0.15,0.09,
2740,-0.14,0.085,
2741,-0.09,0.03,
2742,-0.01,-0.07,
2743,0.075,-0.185,
2744,0.165,-0.35,
2745,0.265,-0.505,
2746,0.38,-0.635,
2747,0.5,-0.755,
2748,0.61,-0.88,
2749,0.735,-1.0,
2750,0.87,-1.105,
2751,1.06,-1.175,
2752,1.245,-1.205,
2753,1.445,-1.22,
2754,1.62,-1.245,
2755,1.75,-1.245,
2756,1.835,-1.24,
2757,1.89,-1.19,L
2758,1.915,-1.15,
2759,1.935,-1.13,
2760,1.86,-1.115,
2761,1.65,-1.12,
2762,1.34,-1.085,
2763,1.025,-1.035,
2764,0.785,-0.96,
2765,0.64,-0.88,
2766,0.555,-0.83,
2767,0.48,-0.745,
2768,0.44,-0.665,
2769,0.415,-0.59,
2770,0.385,-0.515,
2771,0.37,-0.455,
2772,0.335,-0.405,
2773,0.285,-0.385,
2774,0.235,-0.355,
2775,0.18,-0.32,
2776,0.145,-0.245,
2777,0.135,-0.185,
2778,0.12,-0.12,
2779,0.08,-0.085,
2780,0.025,-0.03,
2781,-0.025,0.02,
2782,-0.075,0.07,
2783,-0.09,0.125,
2784,-0.12,0.175,
2785,-0.15,0.19,
2786,-0.205,0.195,
2787,-0.24,0.23,
2788,-0.26,0.265,
2789,-0.28,0.3,
2790,-0.3,0.32,
2791,-0.315,0.31,
2792,-0.34,0.305,
2793,-0.35,0.315,
2794,-0.345,0.34,
2795,-0.34,0.375,
2796,-0.345,0.37,
2797,-0.37,0.365,
2798,-0.375,0.37,
2799,-0.395,0.385,
2800,-0.38,0.39,
2801,-0.375,0.435,
2802,-0.36,0.43,
2803,-0.395,0.43,
2804,-0.41,0.42,
2805,-0.43,0.43,
2806,-0.425,0.46,
2807,-0.4,0.48,
2808,-0.395,0.49,
2809,-0.43,0.49,
2810,-0.435,0.49,
2811,-0.44,0.5,
2812,-0.43,0.515,
2813,-0.43,0.53,
2814,-0.415,0.54,
2815,-0.425,0.535,
2816,-0.44,0.54,
2817,-0.45,0.555,
2818,-0.45,0.605,
2819,-0.445,0.63,
2820,-0.45,0.63,
2821,-0.455,0.63,
2822,-0.465,0.63,
2823,-0.48,0.66,
2824,-0.48,0.685,
2825,-0.48,0.715,
2826,-0.475,0.72,
2827,-0.495,0.72,
2828,-0.525,0.74,
2829,-0.535,0.745,
2830,-0.53,0.765,
2831,-0.515,0.785,
2832,-0.5,0.81,
2833,-0.515,0.805,
2834,-0.54,0.81,
2835,-0.565,0.81,
2836,-0.565,0.855,
2837,-0.56,0.88,
2838,-0.565,0.885,
2839,-0.565,0.875,
2840,-0.585,0.875,
2841,-0.605,0.875,
2842,-0.6,0.895,
2843,-0.61,0.915,
2844,-0.61,0.915,
2845,-0.625,0.915,
2846,-0.63,0.89,
2847,-0.645,0.89,
2848,-0.64,0.87,
2849,-0.645,0.895,
2850,-0.625,0.88,
2851,-0.645,0.85,
2852,-0.655,0.82,
2853,-0.67,0.805,
2854,-0.635,0.8,
2855,-0.615,0.79,
2856,-0.59,0.77,
2857,-0.6,0.73,
2858,-0.605,0.685,
2859,-0.6,0.67,
2860,-0.585,0.645,
2861,-0.55,0.625,
2862,-0.52,0.595,
2863,-0.505,0.555,
2864,-0.495,0.515,
2865,-0.49,0.475,
2866,-0.47,0.47,
2867,-0.445,0.435,
2868,-0.405,0.425,
2869,-0.375,0.39,
2870,-0.375,0.355,
2871,-0.355,0.33,
2872,-0.335,0.315,
2873,-0.31,0.32,
2874,-0.29,0.275,
2875,-0.295,0.235,
2876,-0.28,0.21,
2877,-0.275,0.18,
2878,-0.24,0.185,
2879,-0.21,0.18,
2880,-0.205,0.16,
2881,-0.2,0.14,
2882,-0.215,0.14,
2883,-0.225,0.13,
2884,-0.21,0.125,
2885,-0.16,0.14,
2886,-0.15,0.115,
2887,-0.155,0.095,
2888,-0.19,0.085,
2889,-0.19,0.075,
2890,-0.185,0.09,
2891,-0.16,0.1,
2892,-0.155,0.105,
2893,-0.16,0.085,
2894,-0.16,0.07,
2895,-0.18,0.065,
2896,-0.175,0.08,
2897,-0.165,0.085,
2898,-0.18,0.085,
2899,-0.175,0.075,
2900,-0.175,0.06,
2901,-0.185,0.065,
2902,-0.165,0.095,
2903,-0.16,0.095,
2904,-0.16,0.09,
2905,-0.17,0.08,
2906,-0.185,0.08,
2907,-0.195,0.085,
2908,-0.185,0.11,
2909,-0.16,0.12,
2910,-0.145,0.13,
2911,-0.17,0.1,
2912,-0.17,0.08,
2913,-0.18,0.095,
2914,-0.185,0.105,
2915,-0.17,0.12,
2916,-0.165,0.12,
2917,-0.17,0.11,
2918,-0.18,0.11,
2919,-0.195,0.12,
2920,-0.185,0.125,
2921,-0.18,0.13,
2922,-0.155,0.13,
2923,-0.165,0.105,
2924,-0.2,0.1,
2925,-0.195,0.12,
2926,-0.2,0.12,
2927,-0.19,0.13,
2928,-0.18,0.125,
2929,-0.18,0.125,
2930,-0.215,0.11,
2931,-0.225,0.115,
2932,-0.2,0.115,
2933,-0.165,0.14,
2934,-0.16,0.145,
2935,-0.16,0.125,
2936,-0.195,0.095,
2937,-0.215,0.115,
2938,-0.2,0.135,
2939,-0.175,0.145,
2940,-0.17,0.135,
2941,-0.175,0.135,
2942,-0.16,0.1,
2943,-0.19,0.115,
2944,-0.175,0.13,
2945,-0.17,0.135,
2946,-0.17,0.13,
2947,-0.155,0.12,
2948,-0.17,0.12,
2949,-0.175,0.12,
2950,-0.195,0.115,
2951,-0.175,0.115,
2952,-0.17,0.11,
2953,-0.17,0.105,
2954,-0.185,0.095,
2955,-0.195,0.085,
2956,-0.175,0.1,
2957,-0.175,0.115,
2958,-0.155,0.115,
2959,-0.17,0.09,
2960,-0.18,0.08,
2961,-0.195,0.085,
2962,-0.185,0.105,
2963,-0.165,0.12,
2964,-0.155,0.115,
2965,-0.155,0.095,
2966,-0.16,0.07,
2967,-0.175,0.07,
2968,-0.185,0.075,
2969,-0.18,0.09,
2970,-0.155,0.075,
2971,-0.16,0.075,
2972,-0.17,0.075,
2973,-0.175,0.055,
2974,-0.16,0.085,
2975,-0.155,0.085,
2976,-0.14,0.085,
2977,-0.155,0.06,
2978,-0.17,0.055,
2979,-0.18,0.04,
2980,-0.16,0.05,
2981,-0.15,0.08,
2982,-0.135,0.065,
2983,-0.14,0.06,
2984,-0.145,0.05,
2985,-0.145,0.045,
2986,-0.14,0.06,
2987,-0.11,0.06,
2988,-0.08,0.06,
2989,-0.08,0.055,
2990,-0.095,0.04,
2991,-0.105,0.06,
2992,-0.12,0.085,
2993,-0.095,0.1,
2994,-0.095,0.07,
2995,-0.11,0.075,
2996,-0.105,0.07,
2997,-0.115,0.07,
2998,-0.095,0.085,
2999,-0.08,0.09,
3000,-0.055,0.085,
3001,-0.06,0.07,
3002,-0.08,0.045,
3003,-0.07,0.065,
3004,-0.075,0.06,
3005,-0.07,0.065,
3006,-0.055,0.05,
3007,-0.065,0.055,
3008,-0.09,0.035,
3009,-0.1,0.03,
3010,-0.085,0.045,
3011,-0.07,0.075,
3012,-0.055,0.065,
3013,-0.065,0.035,
3014,-0.075,0.04,
3015,-0.09,0.04,
3016,-0.095,0.045,
3017,-0.09,0.055,
3018,-0.09,0.03,
3019,-0.125,0.025,
3020,-0.135,0.02,
3021,-0.14,0.015,
3022,-0.14,0.015,
3023,-0.145,0.035,
3024,-0.145,0.03,
3025,-0.14,0.0,
3026,-0.165,-0.005,
3027,-0.155,-0.005,
3028,-0.14,0.0,
3029,-0.13,0.015,
3030,-0.105,0.03,
3031,-0.115,0.015,
3032,-0.14,0.025,
3033,-0.155,0.005,
3034,-0.155,0.03,
3035,-0.135,0.05,
3036,-0.14,0.045,
3037,-0.145,0.02,
3038,-0.14,0.025,
3039,-0.155,0.03,
3040,-0.155,0.035,
3041,-0.14,0.04,
3042,-0.13,0.055,
3043,-0.13,0.04,
3044,-0.145,0.025,
3045,-0.145,0.025,
3046,-0.135,0.035,
3047,-0.12,0.05,
3048,-0.1,0.045,
3049,-0.11,0.055,
3050,-0.125,0.055,
3051,-0.15,0.075,
3052,-0.145,0.1,
3053,-0.125,0.12,
3054,-0.11,0.12,
3055,-0.09,0.1,
3056,-0.06,0.035,
3057,-0.005,-0.045,
3058,0.095,-0.135,
3059,0.2,-0.24,
3060,0.3,-0.34,
3061,0.38,-0.485,
3062,0.45,-0.62,
3063,0.55,-0.74,
3064,0.655,-0.835,
3065,0.8,-0.93,
3066,0.935,-1.02,
3067,1.1,-1.105,
3068,1.245,-1.16,
3069,1.39,-1.195,
3070,1.56,-1.21,
3071,1.72,-1.235,
3072,1.83,-1.255,
3073,1.87,-1.265,L
3074,1.875,-1.255,
3075,1.865,-1.23,
3076,1.825,-1.215,
3077,1.75,-1.17,
3078,1.63,-1.175,
3079,1.43,-1.15,
3080,1.17,-1.125,
3081,0.93,-1.09,
3082,0.72,-1.0,
3083,0.58,-0.925,
3084,0.5,-0.86,
3085,0.435,-0.79,
3086,0.395,-0.715,
3087,0.37,-0.625,
3088,0.345,-0.525,
3089,0.355,-0.45,
3090,0.325,-0.405,
3091,0.275,-0.375,
3092,0.22,-0.325,
3093,0.165,-0.28,
3094,0.125,-0.225,
3095,0.115,-0.18,
3096,0.105,-0.145,
3097,0.09,-0.12,
3098,0.06,-0.08,
3099,0.03,-0.03,
3100,0.005,0.01,
3101,-0.02,0.06,
3102,-0.07,0.095,
3103,-0.095,0.11,
3104,-0.13,0.145,
3105,-0.175,0.195,
3106,-0.205,0.235,
3107,-0.225,0.27,
3108,-0.235,0.305,
3109,-0.29,0.3,
3110,-0.305,0.305,
3111,-0.33,0.32,
3112,-0.34,0.345,
3113,-0.335,0.365,
3114,-0.32,0.35,
3115,-0.33,0.355,
3116,-0.35,0.35,
3117,-0.375,0.36,
3118,-0.37,0.375,
3119,-0.37,0.4,
3120,-0.36,0.41,
3121,-0.36,0.41,
3122,-0.365,0.405,
3123,-0.38,0.42,
3124,-0.39,0.44,
3125,-0.39,0.455,
3126,-0.38,0.47,
3127,-0.38,0.46,
3128,-0.405,0.455,
3129,-0.405,0.47,
3130,-0.41,0.495,
3131,-0.415,0.53,
3132,-0.405,0.51,
3133,-0.42,0.505,
3134,-0.435,0.515,
3135,-0.445,0.515,
3136,-0.455,0.555,
3137,-0.43,0.565,
3138,-0.41,0.575,
3139,-0.41,0.585,
3140,-0.435,0.59,
3141,-0.465,0.595,
3142,-0.465,0.62,
3143,-0.455,0.645,
3144,-0.445,0.665,
3145,-0.46,0.68,
3146,-0.48,0.68,
3147,-0.495,0.7,
3148,-0.51,0.72,
3149,-0.495,0.75,
3150,-0.5,0.765,
3151,-0.49,0.775,
3152,-0.52,0.775,
3153,-0.53,0.785,
3154,-0.52,0.8,
3155,-0.53,0.835,
3156,-0.53,0.835,
3157,-0.555,0.83,
3158,-0.565,0.84,
3159,-0.59,0.85,
3160,-0.585,0.87,
3161,-0.57,0.885,
3162,-0.57,0.89,
3163,-0.59,0.9,
3164,-0.62,0.88,
3165,-0.64,0.9,
3166,-0.645,0.905,
3167,-0.625,0.915,
3168,-0.615,0.915,
3169,-0.62,0.885,
3170,-0.65,0.86,
3171,-0.665,0.845,
3172,-0.66,0.83,
3173,-0.645,0.835,
3174,-0.64,0.83,
3175,-0.645,0.8,
3176,-0.635,0.765,
3177,-0.625,0.75,
3178,-0.605,0.74,
3179,-0.59,0.715,
3180,-0.58,0.68,
3181,-0.575,0.64,
3182,-0.575,0.595,
3183,-0.535,0.56,
3184,-0.515,0.55,
3185,-0.465,0.52,
3186,-0.44,0.475,
3187,-0.415,0.435,
3188,-0.405,0.385,
3189,-0.395,0.35,
3190,-0.375,0.34,
3191,-0.335,0.335,
3192,-0.29,0.305,
3193,-0.275,0.275,
3194,-0.285,0.24,
3195,-0.265,0.23,
3196,-0.25,0.23,
3197,-0.22,0.2,
3198,-0.205,0.19,
3199,-0.19,0.17,
3200,-0.19,0.145,
3201,-0.19,0.14,
3202,-0.175,0.135,
3203,-0.175,0.155,
3204,-0.15,0.145,
3205,-0.15,0.115,
3206,-0.14,0.09,
3207,-0.155,0.105,
3208,-0.135,0.09,
3209,-0.13,0.115,
3210,-0.12,0.115,
3211,-0.13,0.095,
3212,-0.145,0.095,
3213,-0.135,0.1,
3214,-0.13,0.115,
3215,-0.105,0.125,
3216,-0.085,0.135,
3217,-0.075,0.125,
3218,-0.075,0.13,
3219,-0.055,0.155,
3220,-0.02,0.19,
3221,0.05,0.245,
3222,0.14,0.27,
3223,0.22,0.295,
3224,0.31,0.325,
3225,0.395,0.365,
3226,0.5,0.425,
3227,0.63,0.495,
3228,0.745,0.565,
3229,0.865,0.62,
3230,0.955,0.645,
3231,1.04,0.71,
3232,1.115,0.775,
3233,1.2,0.83,
3234,1.25,0.86,
3235,1.295,0.89,V
3236,1.295,0.9,
3237,1.245,0.95,
3238,1.14,1.005,
3239,0.93,1.07,
3240,0.62,1.125,
3241,0.24,1.14,
3242,-0.12,1.17,
3243,-0.435,1.165,
3244,-0.695,1.14,
3245,-0.89,1.13,
3246,-1.065,1.08,
3247,-1.18,1.04,
3248,-1.31,0.99,
3249,-1.4,0.965,
3250,-1.46,0.955,
3251,-1.53,0.94,
3252,-1.59,0.92,
3253,-1.675,0.88,
3254,-1.735,0.86,
3255,-1.795,0.86,
3256,-1.84,0.87,
3257,-1.855,0.905,
3258,-1.89,0.905,
3259,-1.905,0.89,
3260,-1.935,0.88,
3261,-1.96,0.865,
3262,-1.96,0.85,
3263,-1.92,0.83,
3264,-1.855,0.775,
3265,-1.785,0.73,
3266,-1.67,0.69,
3267,-1.51,0.685,
3268,-1.355,0.68,
3269,-1.21,0.71,
3270,-1.105,0.69,
3271,-1.035,0.68,
3272,-0.99,0.665,
3273,-0.93,0.67,
3274,-0.885,0.67,
3275,-0.84,0.685,
3276,-0.795,0.675,
3277,-0.765,0.645,
3278,-0.735,0.62,
3279,-0.75,0.575,
3280,-0.72,0.53,
3281,-0.685,0.465,
3282,-0.6,0.395,
3283,-0.545,0.3,
3284,-0.51,0.24,
3285,-0.47,0.165,
3286,-0.42,0.125,
3287,-0.35,0.1,
3288,-0.31,0.045,
3289,-0.27,-0.03,
3290,-0.23,-0.09,
3291,-0.2,-0.13,
3292,-0.165,-0.13,
3293,-0.105,-0.15,
3294,-0.06,-0.175,
3295,-0.045,-0.225,
3296,-0.055,-0.265,
3297,-0.05,-0.285,
3298,-0.005,-0.295,
3299,0.035,-0.325,
3300,0.075,-0.355,
3301,0.085,-0.4,
3302,0.085,-0.42,
3303,0.095,-0.42,
3304,0.115,-0.43,
3305,0.135,-0.445,
3306,0.185,-0.46,
3307,0.205,-0.495,
3308,0.22,-0.53,
3309,0.24,-0.555,
3310,0.25,-0.56,
3311,0.285,-0.55,
3312,0.335,-0.575,
3313,0.325,-0.605,
3314,0.35,-0.62,
3315,0.345,-0.635,
3316,0.39,-0.64,
3317,0.43,-0.65,
3318,0.49,-0.675,
3319,0.5,-0.71,
3320,0.51,-0.725,
3321,0.515,-0.745,
3322,0.555,-0.75,
3323,0.6,-0.74,
3324,0.64,-0.765,
3325,0.665,-0.79,
3326,0.68,-0.81,
3327,0.7,-0.835,
3328,0.72,-0.83,
3329,0.745,-0.825,
3330,0.78,-0.835,
3331,0.81,-0.865,
3332,0.83,-0.87,
3333,0.865,-0.885,
3334,0.895,-0.865,
3335,0.925,-0.85,
3336,0.935,-0.85,
3337,0.955,-0.87,
3338,0.95,-0.88,
3339,0.945,-0.88,
3340,0.99,-0.865,
3341,1.02,-0.84,
3342,1.05,-0.845,
3343,1.06,-0.855,
3344,1.075,-0.85,
3345,1.07,-0.845,
3346,1.085,-0.83,
3347,1.1,-0.805,
3348,1.135,-0.795,
3349,1.15,-0.77,
3350,1.14,-0.775,
3351,1.135,-0.74,
3352,1.135,-0.73,
3353,1.14,-0.705,
3354,1.15,-0.705,
3355,1.125,-0.705,
3356,1.13,-0.72,
3357,1.115,-0.69,
3358,1.12,-0.655,
3359,1.115,-0.615,
3360,1.115,-0.595,
3361,1.095,-0.59,
3362,1.06,-0.575,
3363,1.025,-0.54,
3364,1.0,-0.51,
3365,1.005,-0.47,
3366,0.98,-0.45,
3367,0.965,-0.44,
3368,0.91,-0.415,
3369,0.875,-0.4,
3370,0.845,-0.35,
3371,0.83,-0.31,
3372,0.805,-0.295,
3373,0.765,-0.275,
3374,0.725,-0.265,
3375,0.69,-0.25,
3376,0.66,-0.21,
3377,0.635,-0.18,
3378,0.595,-0.17,
3379,0.56,-0.165,
3380,0.535,-0.16,
3381,0.495,-0.145,
3382,0.475,-0.105,
3383,0.44,-0.07,
3384,0.425,-0.065,
3385,0.385,-0.065,
3386,0.335,-0.055,
3387,0.285,-0.04,
3388,0.25,-0.015,
3389,0.235,0.01,
3390,0.215,0.015,
3391,0.19,0.015,
3392,0.145,0.02,
3393,0.105,0.015,
3394,0.1,0.035,
3395,0.075,0.06,
3396,0.055,0.055,
3397,0.04,0.035,
3398,0.015,0.025,
3399,0.0,0.025,
3400,0.005,0.04,
3401,0.015,0.065,
3402,0.0,0.07,
3403,-0.02,0.05,
3404,-0.05,0.035,
3405,-0.07,0.03,
3406,-0.085,0.04,
3407,-0.06,0.065,
3408,-0.05,0.055,
3409,-0.05,0.06,
3410,-0.075,0.04,
3411,-0.11,0.055,
3412,-0.12,0.06,
3413,-0.1,0.075,
3414,-0.1,0.065,
3415,-0.11,0.05,
3416,-0.125,0.03,
3417,-0.145,0.04,
3418,-0.13,0.05,
3419,-0.125,0.06,
3420,-0.11,0.07,
3421,-0.135,0.06,
3422,-0.145,0.045,
3423,-0.145,0.045,
3424,-0.145,0.06,
3425,-0.14,0.06,
3426,-0.135,0.065,
3427,-0.145,0.055,
3428,-0.165,0.045,
3429,-0.16,0.035,
3430,-0.165,0.055,
3431,-0.17,0.075,
3432,-0.15,0.065,
3433,-0.155,0.055,
3434,-0.16,0.035,
3435,-0.185,0.06,
3436,-0.18,0.06,
3437,-0.165,0.065,
3438,-0.15,0.065,
3439,-0.17,0.055,
3440,-0.18,0.03,
3441,-0.21,0.045,
3442,-0.21,0.065,
3443,-0.19,0.07,
3444,-0.17,0.085,
3445,-0.175,0.05,
3446,-0.195,0.05,
3447,-0.205,0.05,
3448,-0.215,0.065,
3449,-0.195,0.08,
3450,-0.195,0.07,
3451,-0.215,0.045,
3452,-0.22,0.04,
3453,-0.215,0.055,
3454,-0.2,0.055,
3455,-0.2,0.075,
3456,-0.195,0.07,
3457,-0.21,0.045,
3458,-0.23,0.03,
3459,-0.24,0.035,
3460,-0.22,0.035,
3461,-0.2,0.055,
3462,-0.195,0.06,
3463,-0.2,0.03,
3464,-0.21,0.03,
3465,-0.23,0.04,
3466,-0.225,0.03,
3467,-0.23,0.065,
3468,-0.22,0.055,
3469,-0.22,0.05,
3470,-0.225,0.04,
3471,-0.245,0.03,
3472,-0.255,0.055,
3473,-0.23,0.05,
3474,-0.23,0.075,
3475,-0.24,0.04,
3476,-0.255,0.03,
3477,-0.25,0.02,
3478,-0.25,0.025,
3479,-0.225,0.045,
3480,-0.23,0.065,
3481,-0.225,0.045,
3482,-0.24,0.035,
3483,-0.26,0.05,
3484,-0.255,0.05,
3485,-0.25,0.065,
3486,-0.23,0.06,
3487,-0.24,0.045,
3488,-0.255,0.03,
3489,-0.265,0.04,
3490,-0.265,0.05,
3491,-0.26,0.055,
3492,-0.245,0.06,
3493,-0.25,0.055,
3494,-0.26,0.035,
3495,-0.275,0.045,
3496,-0.26,0.04,
3497,-0.25,0.055,
3498,-0.245,0.05,
3499,-0.255,0.055,
3500,-0.26,0.03,
3501,-0.28,0.035,
3502,-0.27,0.04,
3503,-0.23,0.075,
3504,-0.235,0.08,
3505,-0.24,0.055,
3506,-0.26,0.03,
3507,-0.265,0.045,
3508,-0.26,0.04,
3509,-0.27,0.065,
3510,-0.25,0.06,
3511,-0.25,0.065,
3512,-0.26,0.035,
3513,-0.27,0.035,
3514,-0.27,0.055,
3515,-0.255,0.07,
3516,-0.245,0.065,
3517,-0.235,0.05,
3518,-0.25,0.04,
3519,-0.265,0.04,
3520,-0.26,0.06,
3521,-0.255,0.075,
3522,-0.25,0.07,
3523,-0.27,0.055,
3524,-0.285,0.045,
3525,-0.275,0.03,
3526,-0.26,0.045,
3527,-0.245,0.055,
3528,-0.23,0.055,
3529,-0.24,0.055,
3530,-0.25,0.035,
3531,-0.27,0.04,
3532,-0.26,0.06,
3533,-0.245,0.07,
3534,-0.245,0.06,
3535,-0.235,0.04,
3536,-0.24,0.02,
3537,-0.255,0.04,
3538,-0.255,0.06,
3539,-0.245,0.06,
3540,-0.225,0.06,
3541,-0.235,0.055,
3542,-0.255,0.025,
3543,-0.26,0.035,
3544,-0.255,0.04,
3545,-0.24,0.065,
3546,-0.235,0.06,
3547,-0.245,0.05,
3548,-0.255,0.035,
3549,-0.25,0.04,
3550,-0.245,0.055,
3551,-0.23,0.055,
3552,-0.22,0.06,
3553,-0.23,0.06,
3554,-0.255,0.035,
3555,-0.255,0.035,
3556,-0.245,0.045,
3557,-0.23,0.07,
3558,-0.225,0.07,
3559,-0.225,0.065,
3560,-0.255,0.055,
3561,-0.25,0.035,
3562,-0.25,0.055,
3563,-0.23,0.085,
3564,-0.23,0.08,
3565,-0.225,0.05,
3566,-0.225,0.04,
3567,-0.24,0.035,
3568,-0.25,0.06,
3569,-0.24,0.065,
3570,-0.215,0.075,
3571,-0.215,0.065,
3572,-0.235,0.045,
3573,-0.235,0.05,
3574,-0.235,0.06,
3575,-0.23,0.085,
3576,-0.21,0.065,
3577,-0.215,0.055,
3578,-0.23,0.035,
3579,-0.23,0.045,
3580,-0.235,0.055,
3581,-0.215,0.065,
3582,-0.21,0.065,
3583,-0.225,0.055,
3584,-0.23,0.05,
3585,-0.235,0.05,
3586,-0.225,0.05,
3587,-0.205,0.055,
3588,-0.185,0.07,
3589,-0.2,0.06,
3590,-0.215,0.05,
3591,-0.23,0.05,
3592,-0.21,0.075,
3593,-0.2,0.075,
3594,-0.2,0.065,
3595,-0.21,0.07,
3596,-0.225,0.05,
3597,-0.245,0.055,
3598,-0.24,0.065,
3599,-0.21,0.085,
3600,-0.195,0.07,
3601,-0.195,0.065,
3602,-0.21,0.035,
3603,-0.215,0.035,
3604,-0.22,0.05,
3605,-0.19,0.06,
3606,-0.19,0.07,
3607,-0.2,0.055,
3608,-0.2,0.045,
3609,-0.21,0.05,
3610,-0.205,0.065,
3611,-0.21,0.065,
3612,-0.19,0.055,
3613,-0.18,0.045,
3614,-0.18,0.05,
3615,-0.2,0.045,
3616,-0.19,0.05,
3617,-0.15,0.07,
3618,-0.125,0.06,
3619,-0.14,0.05,
3620,-0.15,0.02,
3621,-0.155,0.04,
3622,-0.135,0.05,
3623,-0.12,0.075,
3624,-0.1,0.075,
3625,-0.11,0.065,
3626,-0.13,0.05,
3627,-0.125,0.04,
3628,-0.115,0.045,
3629,-0.095,0.045,
3630,-0.08,0.065,
3631,-0.09,0.035,
3632,-0.115,0.025,
3633,-0.145,0.02,
3634,-0.135,0.05,
3635,-0.125,0.07,
3636,-0.105,0.055,
3637,-0.1,0.03,
3638,-0.115,0.025,
3639,-0.115,0.025,
3640,-0.12,0.05,
3641,-0.135,0.07,
3642,-0.12,0.06,
3643,-0.13,0.04,
3644,-0.14,0.025,
3645,-0.155,0.025,
3646,-0.165,0.035,
3647,-0.165,0.04,
3648,-0.18,0.045,
3649,-0.18,0.04,
3650,-0.205,0.025,
3651,-0.21,0.025,
3652,-0.19,0.05,
3653,-0.17,0.05,
3654,-0.15,0.035,
3655,-0.165,0.045,
3656,-0.18,0.025,
3657,-0.21,0.03,
3658,-0.195,0.055,
3659,-0.185,0.085,
3660,-0.17,0.06,
3661,-0.165,0.065,
3662,-0.18,0.04,
3663,-0.2,0.04,
3664,-0.19,0.05,
3665,-0.185,0.06,
3666,-0.16,0.06,
3667,-0.185,0.045,
3668,-0.18,0.035,
3669,-0.17,0.045,
3670,-0.18,0.075,
3671,-0.18,0.095,
3672,-0.16,0.085,
3673,-0.175,0.1,
3674,-0.17,0.1,
3675,-0.175,0.09,
3676,-0.16,0.085,
3677,-0.12,0.02,
3678,-0.02,-0.065,
3679,0.06,-0.205,
3680,0.165,-0.355,
3681,0.255,-0.515,
3682,0.34,-0.655,
3683,0.47,-0.755,
3684,0.585,-0.865,
3685,0.71,-0.965,
3686,0.855,-1.065,
3687,1.04,-1.115,
3688,1.235,-1.15,
3689,1.415,-1.155,
3690,1.59,-1.17,
3691,1.73,-1.205,
3692,1.845,-1.205,
3693,1.925,-1.17,
3694,2.0,-1.14,L
3695,2.03,-1.095,
3696,2.015,-1.075,
3697,1.92,-1.075,
3698,1.705,-1.065,
3699,1.38,-1.025,
3700,1.055,-0.965,
3701,0.805,-0.895,
3702,0.665,-0.85,
3703,0.565,-0.79,
3704,0.505,-0.71,
3705,0.45,-0.64,
3706,0.44,-0.55,
3707,0.42,-0.48,
3708,0.39,-0.435,
3709,0.34,-0.405,
3710,0.275,-0.375,
3711,0.22,-0.33,
3712,0.19,-0.29,
3713,0.18,-0.225,
3714,0.165,-0.17,
3715,0.14,-0.11,
3716,0.085,-0.07,
3717,0.03,-0.03,
3718,0.0,0.015,
3719,-0.03,0.06,
3720,-0.055,0.105,
3721,-0.1,0.14,
3722,-0.14,0.17,
3723,-0.165,0.22,
3724,-0.215,0.255,
3725,-0.22,0.295,
3726,-0.25,0.315,
3727,-0.275,0.31,
3728,-0.31,0.305,
3729,-0.335,0.33,
3730,-0.36,0.335,
3731,-0.345,0.365,
3732,-0.33,0.38,
3733,-0.345,0.38,
3734,-0.365,0.38,
3735,-0.385,0.38,
3736,-0.405,0.42,
3737,-0.38,0.415,
3738,-0.37,0.435,
3739,-0.375,0.41,
3740,-0.41,0.425,
3741,-0.42,0.43,
3742,-0.43,0.45,
3743,-0.415,0.48,
3744,-0.405,0.49,
3745,-0.41,0.485,
3746,-0.415,0.47,
3747,-0.425,0.475,
3748,-0.425,0.5,
3749,-0.425,0.535,
3750,-0.425,0.545,
3751,-0.445,0.535,
3752,-0.45,0.525,
3753,-0.475,0.545,
3754,-0.45,0.57,
3755,-0.44,0.59,
3756,-0.445,0.6,
3757,-0.465,0.605,
3758,-0.465,0.61,
3759,-0.48,0.62,
3760,-0.48,0.68,
3761,-0.475,0.695,
3762,-0.465,0.705,
3763,-0.495,0.705,
3764,-0.505,0.71,
3765,-0.525,0.715,
3766,-0.52,0.75,
3767,-0.52,0.785,
3768,-0.5,0.79,
3769,-0.525,0.79,
3770,-0.555,0.785,
3771,-0.565,0.805,
3772,-0.565,0.835,
3773,-0.57,0.85,
3774,-0.56,0.845,
3775,-0.57,0.835,
3776,-0.585,0.855,
3777,-0.6,0.85,
3778,-0.61,0.875,
3779,-0.62,0.89,
3780,-0.61,0.89,
3781,-0.635,0.865,
3782,-0.645,0.855,
3783,-0.645,0.86,
3784,-0.65,0.875,
3785,-0.66,0.88,
3786,-0.65,0.89,
3787,-0.665,0.865,
3788,-0.705,0.83,
3789,-0.675,0.815,
3790,-0.67,0.815,
3791,-0.65,0.81,
3792,-0.625,0.775,
3793,-0.62,0.74,
3794,-0.635,0.705,
3795,-0.63,0.685,
3796,-0.6,0.67,
3797,-0.57,0.65,
3798,-0.545,0.61,
3799,-0.525,0.585,
3800,-0.515,0.535,
3801,-0.5,0.505,
3802,-0.47,0.475,
3803,-0.42,0.47,
3804,-0.385,0.435,
3805,-0.355,0.385,
3806,-0.36,0.365,
3807,-0.335,0.34,
3808,-0.315,0.35,
3809,-0.275,0.325,
3810,-0.25,0.32,
3811,-0.23,0.295,
3812,-0.225,0.24,
3813,-0.215,0.22,
3814,-0.205,0.21,
3815,-0.17,0.23,
3816,-0.15,0.2,
3817,-0.14,0.195,
3818,-0.14,0.175,
3819,-0.15,0.155,
3820,-0.145,0.16,
3821,-0.135,0.175,
3822,-0.14,0.17,
3823,-0.125,0.15,
3824,-0.13,0.14,
3825,-0.11,0.125,
3826,-0.135,0.15,
3827,-0.115,0.175,
3828,-0.12,0.16,
3829,-0.135,0.15,
3830,-0.145,0.11,
3831,-0.16,0.145,
3832,-0.155,0.15,
3833,-0.135,0.175,
3834,-0.135,0.17,
3835,-0.13,0.17,
3836,-0.155,0.155,
3837,-0.165,0.155,
3838,-0.17,0.165,
3839,-0.15,0.165,
3840,-0.145,0.18,
3841,-0.16,0.175,
3842,-0.18,0.16,
3843,-0.185,0.165,
3844,-0.18,0.175,
3845,-0.165,0.185,
3846,-0.145,0.18,
3847,-0.17,0.17,
3848,-0.165,0.15,
3849,-0.195,0.155,
3850,-0.19,0.17,
3851,-0.175,0.195,
3852,-0.155,0.19,
3853,-0.16,0.175,
3854,-0.16,0.155,
3855,-0.17,0.16,
3856,-0.185,0.17,
3857,-0.18,0.185,
3858,-0.16,0.205,
3859,-0.16,0.18,
3860,-0.16,0.16,
3861,-0.155,0.165,
3862,-0.145,0.165,
3863,-0.16,0.185,
3864,-0.165,0.185,
3865,-0.17,0.175,
3866,-0.17,0.16,
3867,-0.18,0.155,
3868,-0.165,0.155,
3869,-0.17,0.185,
3870,-0.155,0.165,
3871,-0.16,0.145,
3872,-0.17,0.13,
3873,-0.19,0.135,
3874,-0.16,0.15,
3875,-0.15,0.155,
3876,-0.15,0.155,
3877,-0.17,0.14,
3878,-0.165,0.125,
3879,-0.18,0.13,
3880,-0.18,0.12,
3881,-0.175,0.155,
3882,-0.145,0.155,
3883,-0.16,0.135,
3884,-0.18,0.11,
3885,-0.19,0.105,
3886,-0.195,0.13,
3887,-0.175,0.125,
3888,-0.155,0.11,
3889,-0.145,0.105,
3890,-0.16,0.09,
3891,-0.17,0.095,
3892,-0.155,0.12,
3893,-0.15,0.13,
3894,-0.14,0.12,
3895,-0.14,0.115,
3896,-0.135,0.09,
3897,-0.13,0.08,
3898,-0.13,0.085,
3899,-0.12,0.105,
3900,-0.115,0.115,
3901,-0.11,0.09,
3902,-0.12,0.075,
3903,-0.12,0.095,
3904,-0.115,0.105,
3905,-0.105,0.12,
3906,-0.095,0.11,
3907,-0.095,0.095,
3908,-0.095,0.095,
3909,-0.08,0.095,
3910,-0.08,0.1,
3911,-0.07,0.12,
3912,-0.075,0.105,
3913,-0.09,0.085,
3914,-0.105,0.04,
3915,-0.13,0.045,
3916,-0.115,0.07,
3917,-0.095,0.09,
3918,-0.07,0.09,
3919,-0.085,0.06,
3920,-0.13,0.05,
3921,-0.155,0.03,
3922,-0.145,0.045,
3923,-0.13,0.06,
3924,-0.115,0.06,
3925,-0.12,0.04,
3926,-0.145,0.02,
3927,-0.19,0.025,
3928,-0.21,0.03,
3929,-0.205,0.035,
3930,-0.18,0.04,
3931,-0.165,0.02,
3932,-0.19,0.005,
3933,-0.2,0.025,
3934,-0.19,0.035,
3935,-0.18,0.06,
3936,-0.18,0.05,
3937,-0.185,0.035,
3938,-0.225,0.025,
3939,-0.22,0.03,
3940,-0.22,0.04,
3941,-0.21,0.05,
3942,-0.2,0.045,
3943,-0.2,0.035,
3944,-0.19,0.005,
3945,-0.2,0.02,
3946,-0.195,0.03,
3947,-0.205,0.045,
3948,-0.19,0.035,
3949,-0.18,0.03,
3950,-0.2,0.035,
3951,-0.195,0.05,
3952,-0.195,0.095,
3953,-0.185,0.135,
3954,-0.165,0.135,
3955,-0.18,0.125,
3956,-0.185,0.065,
3957,-0.165,0.01,
3958,-0.05,-0.055,
3959,0.085,-0.135,
3960,0.21,-0.235,
3961,0.3,-0.36,
3962,0.375,-0.485,
3963,0.455,-0.605,
3964,0.565,-0.705,
3965,0.68,-0.805,
3966,0.845,-0.935,
3967,1.02,-1.015,
3968,1.21,-1.08,
3969,1.42,-1.1,
3970,1.615,-1.125,
3971,1.78,-1.13,
3972,1.88,-1.15,L
3973,1.87,-1.17,
3974,1.76,-1.185,
3975,1.565,-1.19,
3976,1.28,-1.175,
3977,0.97,-1.14,
3978,0.695,-1.1,
3979,0.495,-1.06,
3980,0.385,-1.005,
3981,0.305,-0.93,
3982,0.275,-0.84,
3983,0.275,-0.715,
3984,0.315,-0.6,
3985,0.295,-0.52,
3986,0.25,-0.475,
3987,0.205,-0.415,
3988,0.17,-0.345,
3989,0.13,-0.27,
3990,0.12,-0.225,
3991,0.075,-0.19,
3992,0.02,-0.155,
3993,-0.01,-0.11,
3994,-0.04,-0.06,
3995,-0.05,-0.015,
3996,-0.07,0.02,
3997,-0.11,0.045,
3998,-0.155,0.06,
3999,-0.2,0.09,
4000,-0.21,0.15,
4001,-0.235,0.19,
4002,-0.255,0.22,
4003,-0.285,0.24,
4004,-0.33,0.235,
4005,-0.365,0.27,
4006,-0.365,0.275,
4007,-0.375,0.3,
4008,-0.36,0.3,
4009,-0.37,0.295,
4010,-0.39,0.315,
4011,-0.405,0.33,
4012,-0.415,0.345,
4013,-0.41,0.38,
4014,-0.375,0.375,
4015,-0.395,0.365,
4016,-0.43,0.37,
4017,-0.44,0.365,
4018,-0.435,0.38,
4019,-0.425,0.4,
4020,-0.41,0.425,
4021,-0.42,0.415,
4022,-0.43,0.415,
4023,-0.45,0.41,
4024,-0.45,0.435,
4025,-0.43,0.475,
4026,-0.42,0.475,
4027,-0.42,0.47,
4028,-0.44,0.485,
4029,-0.455,0.515,
4030,-0.475,0.535,
4031,-0.455,0.55,
4032,-0.455,0.54,
4033,-0.46,0.545,
4034,-0.475,0.545,
4035,-0.495,0.55,
4036,-0.485,0.595,
4037,-0.485,0.615,
4038,-0.485,0.64,
4039,-0.495,0.65,
4040,-0.52,0.645,
4041,-0.515,0.67,
4042,-0.525,0.72,
4043,-0.53,0.735,
4044,-0.535,0.755,
4045,-0.545,0.755,
4046,-0.565,0.77,
4047,-0.575,0.79,
4048,-0.58,0.81,
4049,-0.58,0.82,
4050,-0.575,0.815,
4051,-0.59,0.805,
4052,-0.61,0.81,
4053,-0.64,0.825,
4054,-0.63,0.84,
4055,-0.61,0.88,
4056,-0.615,0.855,
4057,-0.62,0.85,
4058,-0.64,0.82,
4059,-0.67,0.82,
4060,-0.66,0.815,
4061,-0.64,0.835,
4062,-0.615,0.825,
4063,-0.63,0.795,
4064,-0.63,0.765,
4065,-0.65,0.745,
4066,-0.635,0.73,
4067,-0.625,0.705,
4068,-0.6,0.675,
4069,-0.585,0.64,
4070,-0.58,0.62,
4071,-0.565,0.59,
4072,-0.545,0.57,
4073,-0.535,0.545,
4074,-0.51,0.5,
4075,-0.5,0.435,
4076,-0.49,0.395,
4077,-0.475,0.36,
4078,-0.425,0.315,
4079,-0.4,0.32,
4080,-0.345,0.3,
4081,-0.32,0.265,
4082,-0.31,0.21,
4083,-0.315,0.19,
4084,-0.3,0.175,
4085,-0.28,0.17,
4086,-0.27,0.155,
4087,-0.255,0.135,
4088,-0.255,0.105,
4089,-0.25,0.085,
4090,-0.23,0.09,
4091,-0.225,0.095,
4092,-0.21,0.095,
4093,-0.215,0.085,
4094,-0.235,0.065,
4095,-0.26,0.06,
4096,-0.24,0.06,
4097,-0.21,0.08,
4098,-0.205,0.065,
4099,-0.2,0.04,
4100,-0.225,0.01,
4101,-0.24,0.03,
4102,-0.22,0.045,
4103,-0.21,0.065,
4104,-0.195,0.07,
4105,-0.21,0.055,
4106,-0.22,0.03,
4107,-0.24,0.035,
4108,-0.25,0.055,
4109,-0.225,0.065,
4110,-0.225,0.065,
4111,-0.225,0.05,
4112,-0.245,0.035,
4113,-0.255,0.035,
4114,-0.25,0.045,
4115,-0.225,0.075,
4116,-0.21,0.075,
4117,-0.21,0.065,
4118,-0.24,0.05,
4119,-0.26,0.07,
4120,-0.255,0.065,
4121,-0.23,0.07,
4122,-0.19,0.06,
4123,-0.2,0.05,
4124,-0.225,0.04,
4125,-0.235,0.04,
4126,-0.245,0.06,
4127,-0.215,0.075,
4128,-0.21,0.07,
4129,-0.2,0.045,
4130,-0.21,0.025,
4131,-0.225,0.04,
4132,-0.23,0.045,
4133,-0.215,0.055,
4134,-0.205,0.05,
4135,-0.21,0.035,
4136,-0.22,0.03,
4137,-0.245,0.02,
4138,-0.24,0.04,
4139,-0.235,0.055,
4140,-0.21,0.055,
4141,-0.205,0.035,
4142,-0.21,0.025,
4143,-0.215,0.015,
4144,-0.23,0.03,
4145,-0.225,0.03,
4146,-0.215,0.02,
4147,-0.2,0.01,
4148,-0.205,0.0,
4149,-0.225,-0.005,
4150,-0.225,0.02,
4151,-0.215,0.035,
4152,-0.215,0.025,
4153,-0.205,0.01,
4154,-0.21,0.0,
4155,-0.21,0.015,
4156,-0.2,0.025,
4157,-0.21,0.025,
4158,-0.2,0.015,
4159,-0.195,0.01,
4160,-0.19,-0.02,
4161,-0.17,-0.01,
4162,-0.16,0.01,
4163,-0.145,0.035,
4164,-0.145,0.025,
4165,-0.13,0.01,
4166,-0.155,-0.015,
4167,-0.155,0.0,
4168,-0.14,0.02,
4169,-0.13,0.035,
4170,-0.12,0.03,
4171,-0.13,0.015,
4172,-0.145,-0.01,
4173,-0.135,0.005,
4174,-0.135,-0.005,
4175,-0.1,-0.01,
4176,-0.095,-0.02,
4177,-0.115,-0.03,
4178,-0.12,-0.025,
4179,-0.135,-0.02,
4180,-0.125,-0.005,
4181,-0.115,0.0,
4182,-0.105,-0.01,
4183,-0.13,-0.03,
4184,-0.15,-0.045,
4185,-0.175,-0.05,
4186,-0.185,-0.03,
4187,-0.175,-0.02,
4188,-0.16,-0.015,
4189,-0.18,-0.025,
4190,-0.205,-0.055,
4191,-0.22,-0.05,
4192,-0.22,-0.07,
4193,-0.215,-0.055,
4194,-0.2,-0.05,
4195,-0.195,-0.05,
4196,-0.205,-0.055,
4197,-0.215,-0.06,
4198,-0.22,-0.06,
4199,-0.22,-0.025,
4200,-0.205,-0.035,
4201,-0.21,-0.04,
4202,-0.205,-0.055,
4203,-0.22,-0.035,
4204,-0.225,-0.04,
4205,-0.225,-0.035,
4206,-0.21,-0.04,
4207,-0.21,-0.04,
4208,-0.225,-0.065,
4209,-0.235,-0.07,
4210,-0.215,-0.025,
4211,-0.205,0.0,
4212,-0.19,0.02,
4213,-0.19,0.035,
4214,-0.205,0.03,
4215,-0.19,0.035,
4216,-0.175,-0.01,
4217,-0.085,-0.065,
4218,0.04,-0.15,
4219,0.15,-0.28,
4220,0.255,-0.39,
4221,0.345,-0.485,
4222,0.43,-0.58,
4223,0.53,-0.715,
4224,0.645,-0.84,
4225,0.76,-0.96,
4226,0.94,-1.065,
4227,1.145,-1.105,
4228,1.375,-1.135,
4229,1.62,-1.14,
4230,1.84,-1.18,
4231,1.95,-1.195,L
4232,1.97,-1.215,
4233,1.925,-1.215,
4234,1.78,-1.215,
4235,1.53,-1.195,
4236,1.175,-1.175,
4237,0.81,-1.135,
4238,0.515,-1.115,
4239,0.345,-1.075,
4240,0.26,-1.01,
4241,0.24,-0.945,
4242,0.245,-0.86,
4243,0.25,-0.765,
4244,0.245,-0.67,
4245,0.205,-0.595,
4246,0.195,-0.52,
4247,0.17,-0.44,
4248,0.135,-0.4,
4249,0.085,-0.35,
4250,0.045,-0.315,
4251,0.015,-0.25,
4252,-0.015,-0.185,
4253,-0.02,-0.13,
4254,-0.055,-0.095,
4255,-0.105,-0.065,
4256,-0.155,-0.04,
4257,-0.2,0.005,
4258,-0.23,0.06,
4259,-0.23,0.11,
4260,-0.245,0.145,
4261,-0.275,0.165,
4262,-0.325,0.175,
4263,-0.36,0.18,
4264,-0.375,0.22,
4265,-0.38,0.235,
4266,-0.38,0.245,
4267,-0.385,0.245,
4268,-0.4,0.24,
4269,-0.425,0.27,
4270,-0.43,0.28,
4271,-0.425,0.305,
4272,-0.405,0.305,
4273,-0.41,0.305,
4274,-0.435,0.295,
4275,-0.455,0.305,
4276,-0.465,0.325,
4277,-0.45,0.345,
4278,-0.445,0.365,
4279,-0.455,0.36,
4280,-0.46,0.355,
4281,-0.455,0.38,
4282,-0.455,0.39,
4283,-0.46,0.405,
4284,-0.45,0.435,
4285,-0.47,0.44,
4286,-0.48,0.445,
4287,-0.48,0.46,
4288,-0.48,0.47,
4289,-0.48,0.505,
4290,-0.46,0.515,
4291,-0.49,0.51,
4292,-0.51,0.515,
4293,-0.525,0.53,
4294,-0.52,0.555,
4295,-0.51,0.605,
4296,-0.495,0.61,
4297,-0.515,0.635,
4298,-0.53,0.62,
4299,-0.56,0.635,
4300,-0.545,0.68,
4301,-0.545,0.7,
4302,-0.54,0.73,
4303,-0.56,0.73,
4304,-0.6,0.74,
4305,-0.625,0.74,
4306,-0.61,0.755,
4307,-0.605,0.775,
4308,-0.61,0.785,
4309,-0.62,0.79,
4310,-0.625,0.775,
4311,-0.65,0.78,
4312,-0.655,0.8,
4313,-0.66,0.825,
4314,-0.65,0.81,
4315,-0.655,0.79,
4316,-0.675,0.765,
4317,-0.695,0.755,
4318,-0.69,0.755,
4319,-0.685,0.76,
4320,-0.66,0.735,
4321,-0.66,0.71,
4322,-0.645,0.665,
4323,-0.655,0.655,
4324,-0.64,0.63,
4325,-0.635,0.63,
4326,-0.6,0.595,
4327,-0.595,0.555,
4328,-0.595,0.51,
4329,-0.58,0.48,
4330,-0.555,0.46,
4331,-0.525,0.45,
4332,-0.495,0.39,
4333,-0.465,0.355,
4334,-0.47,0.305,
4335,-0.44,0.28,
4336,-0.4,0.26,
4337,-0.36,0.25,
4338,-0.33,0.2,
4339,-0.335,0.18,
4340,-0.305,0.12,
4341,-0.305,0.1,
4342,-0.28,0.115,
4343,-0.245,0.12,
4344,-0.215,0.11,
4345,-0.23,0.095,
4346,-0.235,0.07,
4347,-0.25,0.045,
4348,-0.25,0.045,
4349,-0.225,0.055,
4350,-0.195,0.04,
4351,-0.19,0.045,
4352,-0.215,0.01,
4353,-0.235,0.01,
4354,-0.23,0.02,
4355,-0.21,0.02,
4356,-0.2,0.02,
4357,-0.195,0.005,
4358,-0.21,-0.005,
4359,-0.235,-0.015,
4360,-0.23,0.005,
4361,-0.215,0.015,
4362,-0.195,0.015,
4363,-0.2,0.01,
4364,-0.205,0.005,
4365,-0.22,0.0,
4366,-0.22,0.01,
4367,-0.22,0.025,
4368,-0.23,0.025,
4369,-0.225,0.025,
4370,-0.225,-0.01,
4371,-0.235,0.005,
4372,-0.24,0.015,
4373,-0.24,0.03,
4374,-0.235,0.035,
4375,-0.235,0.02,
4376,-0.23,0.01,
4377,-0.235,0.02,
4378,-0.255,0.065,
4379,-0.23,0.055,
4380,-0.23,0.065,
4381,-0.215,0.035,
4382,-0.235,0.025,
4383,-0.235,0.01,
4384,-0.23,0.02,
4385,-0.22,0.04,
4386,-0.21,0.045,
4387,-0.24,0.035,
4388,-0.25,0.005,
4389,-0.26,0.005,
4390,-0.25,0.015,
4391,-0.22,0.05,
4392,-0.205,0.045,
4393,-0.215,0.05,
4394,-0.24,0.035,
4395,-0.25,0.005,
4396,-0.235,0.025,
4397,-0.21,0.04,
4398,-0.2,0.035,
4399,-0.215,0.02,
4400,-0.22,0.005,
4401,-0.255,0.015,
4402,-0.25,0.03,
4403,-0.235,0.04,
4404,-0.225,0.035,
4405,-0.215,0.03,
4406,-0.235,0.0,
4407,-0.25,0.005,
4408,-0.24,0.03,
4409,-0.245,0.03,
4410,-0.21,0.04,
4411,-0.22,0.025,
4412,-0.23,0.0,
4413,-0.235,-0.005,
4414,-0.25,0.005,
4415,-0.24,0.025,
4416,-0.225,0.01,
4417,-0.215,-0.005,
4418,-0.225,-0.01,
4419,-0.24,-0.015,
4420,-0.23,-0.015,
4421,-0.205,0.005,
4422,-0.19,0.0,
4423,-0.175,-0.005,
4424,-0.18,-0.025,
4425,-0.17,-0.01,
4426,-0.155,0.005,
4427,-0.14,0.015,
4428,-0.135,0.015,
4429,-0.13,-0.01,
4430,-0.15,-0.025,
4431,-0.155,-0.02,
4432,-0.145,-0.005,
4433,-0.135,0.005,
4434,-0.11,0.01,
4435,-0.125,0.0,
4436,-0.135,-0.02,
4437,-0.165,-0.02,
4438,-0.145,-0.035,
4439,-0.13,-0.015,
4440,-0.125,-0.015,
4441,-0.14,-0.025,
4442,-0.15,-0.045,
4443,-0.175,-0.03,
4444,-0.18,0.0,
4445,-0.175,-0.005,
4446,-0.16,-0.005,
4447,-0.175,-0.025,
4448,-0.19,-0.04,
4449,-0.22,-0.04,
4450,-0.245,-0.03,
4451,-0.225,-0.01,
4452,-0.21,-0.01,
4453,-0.21,-0.02,
4454,-0.23,-0.06,
4455,-0.26,-0.055,
4456,-0.26,-0.04,
4457,-0.235,-0.02,
4458,-0.215,-0.025,
4459,-0.21,-0.015,
4460,-0.24,-0.05,
4461,-0.27,-0.045,
4462,-0.275,-0.03,
4463,-0.245,-0.015,
4464,-0.23,-0.015,
4465,-0.23,-0.035,
4466,-0.235,-0.035,
4467,-0.255,-0.04,
4468,-0.25,-0.025,
4469,-0.235,-0.025,
4470,-0.215,-0.035,
4471,-0.245,-0.035,
4472,-0.24,-0.045,
4473,-0.225,-0.03,
4474,-0.22,0.0,
4475,-0.21,0.035,
4476,-0.215,0.05,
4477,-0.225,0.045,
4478,-0.235,-0.005,
4479,-0.19,-0.085,
4480,-0.08,-0.18,
4481,0.04,-0.3,
4482,0.17,-0.45,
4483,0.27,-0.63,
4484,0.35,-0.77,
4485,0.44,-0.875,
4486,0.545,-0.955,
4487,0.655,-1.04,
4488,0.79,-1.125,
4489,0.935,-1.22,
4490,1.145,-1.29,
4491,1.35,-1.295,
4492,1.585,-1.27,
4493,1.79,-1.23,
4494,1.93,-1.185,L
4495,1.96,-1.155,
4496,1.9,-1.165,
4497,1.73,-1.155,
4498,1.465,-1.105,
4499,1.125,-1.03,
4500,0.84,-0.97,
4501,0.63,-0.94,
4502,0.485,-0.91,
4503,0.405,-0.865,
4504,0.375,-0.775,
4505,0.37,-0.67,
4506,0.36,-0.56,
4507,0.315,-0.5,
4508,0.275,-0.455,
4509,0.225,-0.405,
4510,0.18,-0.345,
4511,0.145,-0.285,
4512,0.095,-0.225,
4513,0.06,-0.175,
4514,0.015,-0.14,
4515,-0.03,-0.095,
4516,-0.095,-0.025,
4517,-0.12,0.015,
4518,-0.15,0.055,
4519,-0.2,0.085,
4520,-0.25,0.105,
4521,-0.305,0.145,
4522,-0.31,0.19,
4523,-0.315,0.23,
4524,-0.325,0.255,
4525,-0.355,0.245,
4526,-0.39,0.245,
4527,-0.455,0.275,
4528,-0.435,0.285,
4529,-0.42,0.315,
4530,-0.425,0.32,
4531,-0.44,0.325,
4532,-0.46,0.32,
4533,-0.47,0.32,
4534,-0.485,0.34,
4535,-0.465,0.36,
4536,-0.45,0.365,
4537,-0.465,0.38,
4538,-0.49,0.38,
4539,-0.505,0.395,
4540,-0.505,0.4,
4541,-0.495,0.425,
4542,-0.485,0.43,
4543,-0.48,0.43,
4544,-0.5,0.44,
4545,-0.515,0.45,
4546,-0.505,0.48,
4547,-0.515,0.49,
4548,-0.51,0.52,
4549,-0.51,0.515,
4550,-0.525,0.51,
4551,-0.545,0.515,
4552,-0.545,0.545,
4553,-0.545,0.57,
4554,-0.535,0.585,
4555,-0.55,0.62,
4556,-0.565,0.615,
4557,-0.585,0.645,
4558,-0.61,0.665,
4559,-0.59,0.705,
4560,-0.58,0.72,
4561,-0.575,0.715,
4562,-0.605,0.715,
4563,-0.635,0.73,
4564,-0.635,0.765,
4565,-0.62,0.8,
4566,-0.62,0.81,
4567,-0.63,0.825,
4568,-0.66,0.81,
4569,-0.68,0.81,
4570,-0.705,0.835,
4571,-0.705,0.86,
4572,-0.69,0.875,
4573,-0.7,0.87,
4574,-0.725,0.86,
4575,-0.75,0.86,
4576,-0.755,0.86,
4577,-0.76,0.875,
4578,-0.74,0.865,
4579,-0.74,0.855,
4580,-0.74,0.83,
4581,-0.76,0.81,
4582,-0.765,0.8,
4583,-0.745,0.81,
4584,-0.745,0.775,
4585,-0.745,0.75,
4586,-0.755,0.725,
4587,-0.745,0.685,
4588,-0.72,0.695,
4589,-0.705,0.665,
4590,-0.69,0.64,
4591,-0.67,0.61,
4592,-0.665,0.57,
4593,-0.64,0.545,
4594,-0.615,0.525,
4595,-0.585,0.505,
4596,-0.57,0.485,
4597,-0.555,0.435,
4598,-0.555,0.395,
4599,-0.545,0.365,
4600,-0.515,0.35,
4601,-0.485,0.33,
4602,-0.445,0.305,
4603,-0.415,0.27,
4604,-0.42,0.23,
4605,-0.4,0.205,
4606,-0.375,0.2,
4607,-0.345,0.195,
4608,-0.32,0.165,
4609,-0.315,0.15,
4610,-0.31,0.105,
4611,-0.31,0.11,
4612,-0.29,0.105,
4613,-0.28,0.11,
4614,-0.27,0.105,
4615,-0.27,0.1,
4616,-0.285,0.075,
4617,-0.31,0.07,
4618,-0.3,0.065,
4619,-0.275,0.065,
4620,-0.24,0.07,
4621,-0.245,0.06,
4622,-0.26,0.05,
4623,-0.275,0.03,
4624,-0.27,0.05,
4625,-0.26,0.05,
4626,-0.245,0.065,
4627,-0.245,0.04,
4628,-0.25,0.035,
4629,-0.26,0.03,
4630,-0.285,0.04,
4631,-0.26,0.055,
4632,-0.26,0.055,
4633,-0.26,0.04,
4634,-0.265,0.03,
4635,-0.28,0.035,
4636,-0.28,0.06,
4637,-0.28,0.07,
4638,-0.25,0.07,
4639,-0.255,0.045,
4640,-0.28,0.035,
4641,-0.28,0.04,
4642,-0.27,0.055,
4643,-0.27,0.07,
4644,-0.265,0.07,
4645,-0.27,0.065,
4646,-0.295,0.055,
4647,-0.3,0.045,
4648,-0.29,0.05,
4649,-0.26,0.065,
4650,-0.255,0.065,
4651,-0.27,0.05,
4652,-0.28,0.035,
4653,-0.315,0.05,
4654,-0.31,0.075,
4655,-0.285,0.085,
4656,-0.26,0.095,
4657,-0.275,0.075,
4658,-0.295,0.055,
4659,-0.305,0.05,
4660,-0.32,0.055,
4661,-0.3,0.09,
4662,-0.28,0.095,
4663,-0.275,0.075,
4664,-0.285,0.075,
4665,-0.285,0.055,
4666,-0.29,0.055,
4667,-0.295,0.075,
4668,-0.29,0.085,
4669,-0.285,0.065,
4670,-0.29,0.065,
4671,-0.285,0.07,
4672,-0.285,0.075,
4673,-0.295,0.08,
4674,-0.275,0.075,
4675,-0.29,0.04,
4676,-0.29,0.035,
4677,-0.295,0.05,
4678,-0.29,0.06,
4679,-0.27,0.065,
4680,-0.275,0.065,
4681,-0.275,0.045,
4682,-0.275,0.05,
4683,-0.3,0.04,
4684,-0.285,0.035,
4685,-0.27,0.06,
4686,-0.265,0.065,
4687,-0.265,0.06,
4688,-0.27,0.04,
4689,-0.29,0.035,
4690,-0.28,0.05,
4691,-0.28,0.055,
4692,-0.245,0.045,
4693,-0.24,0.035,
4694,-0.225,0.025,
4695,-0.24,0.025,
4696,-0.24,0.03,
4697,-0.225,0.05,
4698,-0.22,0.055,
4699,-0.22,0.025,
4700,-0.235,0.015,
4701,-0.215,0.01,
4702,-0.215,0.03,
4703,-0.2,0.045,
4704,-0.195,0.06,
4705,-0.185,0.045,
4706,-0.185,0.035,
4707,-0.185,0.02,
4708,-0.175,0.015,
4709,-0.165,0.03,
4710,-0.165,0.025,
4711,-0.17,0.0,
4712,-0.185,0.0,
4713,-0.185,-0.02,
4714,-0.18,0.015,
4715,-0.165,0.03,
4716,-0.16,0.02,
4717,-0.175,0.02,
4718,-0.2,-0.015,
4719,-0.22,-0.005,
4720,-0.215,0.0,
4721,-0.19,0.015,
4722,-0.19,0.015,
4723,-0.215,0.01,
4724,-0.25,-0.01,
4725,-0.265,-0.025,
4726,-0.285,-0.02,
4727,-0.27,0.0,
4728,-0.255,-0.015,
4729,-0.25,-0.01,
4730,-0.245,-0.025,
4731,-0.25,-0.03,
4732,-0.235,0.0,
4733,-0.24,0.005,
4734,-0.24,0.015,
4735,-0.255,0.0,
4736,-0.27,-0.015,
4737,-0.28,-0.01,
4738,-0.27,0.0,
4739,-0.25,0.005,
4740,-0.24,0.005,
4741,-0.25,-0.005,
4742,-0.25,-0.005,
4743,-0.265,-0.01,
4744,-0.265,0.0,
4745,-0.265,0.02,
4746,-0.245,0.015,
4747,-0.235,0.005,
4748,-0.25,0.015,
4749,-0.245,0.06,
4750,-0.235,0.09,
4751,-0.235,0.09,
4752,-0.215,0.055,
4753,-0.16,-0.025,
4754,-0.065,-0.145,
4755,0.06,-0.28,
4756,0.21,-0.425,
4757,0.315,-0.565,
4758,0.445,-0.715,
4759,0.56,-0.84,
4760,0.695,-0.965,
4761,0.89,-1.035,
4762,1.1,-1.095,
4763,1.28,-1.125,
4764,1.44,-1.175,
4765,1.56,-1.22,
4766,1.69,-1.255,
4767,1.825,-1.27,L
4768,1.925,-1.235,
4769,1.95,-1.185,
4770,1.875,-1.175,
4771,1.665,-1.185,
4772,1.335,-1.165,
4773,0.94,-1.115,
4774,0.59,-1.03,
4775,0.375,-0.95,
4776,0.315,-0.86,
4777,0.29,-0.75,
4778,0.27,-0.665,
4779,0.23,-0.575,
4780,0.185,-0.5,
4781,0.15,-0.415,
4782,0.125,-0.375,
4783,0.095,-0.33,
4784,0.06,-0.3,
4785,0.015,-0.245,
4786,-0.02,-0.18,
4787,-0.04,-0.12,
4788,-0.045,-0.06,
4789,-0.09,-0.04,
4790,-0.145,0.0,
4791,-0.185,0.025,
4792,-0.255,0.09,
4793,-0.27,0.155,
4794,-0.29,0.19,
4795,-0.335,0.215,
4796,-0.36,0.225,
4797,-0.4,0.22,
4798,-0.425,0.255,
4799,-0.43,0.27,
4800,-0.43,0.28,
4801,-0.445,0.295,
4802,-0.465,0.285,
4803,-0.455,0.29,
4804,-0.47,0.32,
4805,-0.44,0.35,
4806,-0.425,0.34,
4807,-0.445,0.335,
4808,-0.46,0.335,
4809,-0.485,0.345,
4810,-0.485,0.37,
4811,-0.475,0.385,
4812,-0.455,0.395,
4813,-0.455,0.395,
4814,-0.48,0.385,
4815,-0.505,0.395,
4816,-0.51,0.415,
4817,-0.51,0.435,
4818,-0.48,0.45,
4819,-0.485,0.44,
4820,-0.5,0.445,
4821,-0.51,0.46,
4822,-0.51,0.5,
4823,-0.5,0.52,
4824,-0.505,0.535,
4825,-0.52,0.535,
4826,-0.535,0.55,
4827,-0.55,0.58,
4828,-0.535,0.615,
4829,-0.55,0.64,
4830,-0.545,0.655,
4831,-0.555,0.655,
4832,-0.585,0.67,
4833,-0.61,0.685,
4834,-0.59,0.715,
4835,-0.585,0.75,
4836,-0.595,0.77,
4837,-0.6,0.76,
4838,-0.63,0.745,
4839,-0.66,0.765,
4840,-0.655,0.785,
4841,-0.635,0.82,
4842,-0.625,0.83,
4843,-0.63,0.825,
4844,-0.665,0.82,
4845,-0.69,0.835,
4846,-0.685,0.86,
4847,-0.69,0.88,
4848,-0.685,0.855,
4849,-0.675,0.855,
4850,-0.695,0.83,
4851,-0.72,0.825,
4852,-0.73,0.835,
4853,-0.715,0.82,
4854,-0.695,0.82,
4855,-0.705,0.81,
4856,-0.71,0.785,
4857,-0.72,0.765,
4858,-0.715,0.765,
4859,-0.705,0.745,
4860,-0.67,0.71,
4861,-0.66,0.67,
4862,-0.66,0.63,
4863,-0.655,0.6,
4864,-0.625,0.575,
4865,-0.605,0.55,
4866,-0.575,0.515,
4867,-0.555,0.455,
4868,-0.55,0.41,
4869,-0.52,0.375,
4870,-0.48,0.36,
4871,-0.44,0.335,
4872,-0.41,0.295,
4873,-0.4,0.26,
4874,-0.405,0.21,
4875,-0.38,0.195,
4876,-0.365,0.195,
4877,-0.315,0.185,
4878,-0.295,0.175,
4879,-0.29,0.14,
4880,-0.295,0.115,
4881,-0.3,0.09,
4882,-0.295,0.09,
4883,-0.275,0.09,
4884,-0.245,0.065,
4885,-0.245,0.06,
4886,-0.255,0.035,
4887,-0.27,0.035,
4888,-0.27,0.045,
4889,-0.25,0.06,
4890,-0.235,0.055,
4891,-0.235,0.035,
4892,-0.25,0.01,
4893,-0.255,0.01,
4894,-0.255,0.02,
4895,-0.27,0.03,
4896,-0.245,0.025,
4897,-0.24,0.03,
4898,-0.25,0.01,
4899,-0.26,0.01,
4900,-0.245,0.015,
4901,-0.245,0.04,
4902,-0.225,0.02,
4903,-0.24,0.01,
4904,-0.26,0.005,
4905,-0.27,0.005,
4906,-0.28,0.025,
4907,-0.24,0.03,
4908,-0.235,0.025,
4909,-0.245,0.03,
4910,-0.27,0.01,
4911,-0.28,0.01,
4912,-0.265,0.015,
4913,-0.265,0.03,
4914,-0.245,0.04,
4915,-0.245,0.02,
4916,-0.26,0.04,
4917,-0.27,0.03,
4918,-0.275,0.04,
4919,-0.27,0.055,
4920,-0.255,0.05,
4921,-0.26,0.03,
4922,-0.27,0.025,
4923,-0.28,0.03,
4924,-0.285,0.035,
4925,-0.27,0.065,
4926,-0.265,0.07,
4927,-0.28,0.045,
4928,-0.29,0.025,
4929,-0.28,0.03,
4930,-0.265,0.045,
4931,-0.275,0.05,
4932,-0.27,0.045,
4933,-0.275,0.065,
4934,-0.28,0.035,
4935,-0.275,0.035,
4936,-0.265,0.045,
4937,-0.255,0.055,
4938,-0.245,0.07,
4939,-0.245,0.035,
4940,-0.27,0.03,
4941,-0.275,0.03,
4942,-0.275,0.045,
4943,-0.265,0.075,
4944,-0.245,0.05,
4945,-0.235,0.035,
4946,-0.24,0.015,
4947,-0.265,0.015,
4948,-0.26,0.03,
4949,-0.25,0.045,
4950,-0.23,0.04,
4951,-0.23,0.03,
4952,-0.23,0.03,
4953,-0.25,0.025,
4954,-0.24,0.05,
4955,-0.23,0.05,
4956,-0.23,0.05,
4957,-0.235,0.04,
4958,-0.255,0.015,
4959,-0.255,0.02,
4960,-0.245,0.05,
4961,-0.23,0.065,
4962,-0.225,0.055,
4963,-0.225,0.03,
4964,-0.245,0.02,
4965,-0.24,0.005,
4966,-0.225,0.025,
4967,-0.19,0.04,
4968,-0.175,0.04,
4969,-0.185,0.045,
4970,-0.19,0.02,
4971,-0.205,0.015,
4972,-0.2,0.03,
4973,-0.19,0.03,
4974,-0.175,0.04,
4975,-0.165,0.04,
4976,-0.19,0.02,
4977,-0.195,0.035,
4978,-0.2,0.035,
4979,-0.18,0.05,
4980,-0.17,0.035,
4981,-0.17,0.02,
4982,-0.17,0.0,
4983,-0.185,-0.01,
4984,-0.185,-0.01,
4985,-0.175,0.02,
4986,-0.175,0.01,
4987,-0.19,0.005,
4988,-0.185,0.005,
4989,-0.2,0.015,
4990,-0.2,0.015,
4991,-0.195,0.025,
4992,-0.19,0.015,
4993,-0.19,0.015,
4994,-0.21,-0.005,
4995,-0.245,0.0,
4996,-0.25,0.025,
4997,-0.24,0.02,
4998,-0.24,0.015,
4999,-0.245,0.005,
5000,-0.265,-0.025,
5001,-0.295,-0.03,
5002,-0.29,-0.015,
5003,-0.27,0.0,
5004,-0.25,0.005,
5005,-0.24,-0.01,
5006,-0.265,-0.015,
5007,-0.29,-0.015,
5008,-0.295,-0.005,
5009,-0.285,0.01,
5010,-0.275,0.005,
5011,-0.275,0.0,
5012,-0.27,-0.01,
5013,-0.27,-0.01,
5014,-0.285,0.015,
5015,-0.27,0.015,
5016,-0.255,0.015,
5017,-0.265,0.0,
5018,-0.275,-0.005,
5019,-0.275,0.01,
5020,-0.275,0.025,
5021,-0.25,0.07,
5022,-0.245,0.095,
5023,-0.24,0.095,
5024,-0.265,0.075,
5025,-0.265,0.075,
5026,-0.23,0.05,
5027,-0.145,0.04,
5028,-0.035,-0.025,
5029,0.045,-0.125,
5030,0.12,-0.255,
5031,0.17,-0.395,
5032,0.235,-0.545,
5033,0.335,-0.69,
5034,0.475,-0.79,
5035,0.62,-0.905,
5036,0.775,-1.0,
5037,0.94,-1.06,
5038,1.17,-1.1,
5039,1.41,-1.115,
5040,1.645,-1.125,
5041,1.835,-1.125,
5042,1.93,-1.115,L
5043,1.945,-1.105,
5044,1.88,-1.1,
5045,1.705,-1.1,
5046,1.395,-1.1,
5047,1.045,-1.085,
5048,0.725,-1.06,
5049,0.525,-1.0,
5050,0.415,-0.935,
5051,0.335,-0.85,
5052,0.295,-0.78,
5053,0.24,-0.69,
5054,0.205,-0.61,
5055,0.195,-0.515,
5056,0.165,-0.435,
5057,0.15,-0.375,
5058,0.105,-0.32,
5059,0.06,-0.275,
5060,0.005,-0.23,
5061,-0.04,-0.175,
5062,-0.075,-0.09,
5063,-0.09,-0.03,
5064,-0.12,0.005,
5065,-0.16,0.03,
5066,-0.215,0.025,
5067,-0.265,0.06,
5068,-0.29,0.135,
5069,-0.305,0.18,
5070,-0.3,0.225,
5071,-0.335,0.24,
5072,-0.375,0.245,
5073,-0.405,0.25,
5074,-0.44,0.28,
5075,-0.43,0.31,
5076,-0.43,0.33,
5077,-0.45,0.305,
5078,-0.465,0.32,
5079,-0.485,0.32,
5080,-0.485,0.33,
5081,-0.48,0.365,
5082,-0.455,0.37,
5083,-0.46,0.375,
5084,-0.49,0.355,
5085,-0.51,0.36,
5086,-0.5,0.38,
5087,-0.49,0.405,
5088,-0.49,0.4,
5089,-0.485,0.415,
5090,-0.5,0.405,
5091,-0.515,0.425,
5092,-0.515,0.44,
5093,-0.515,0.465,
5094,-0.51,0.49,
5095,-0.535,0.49,
5096,-0.54,0.485,
5097,-0.565,0.495,
5098,-0.545,0.53,
5099,-0.545,0.545,
5100,-0.535,0.58,
5101,-0.55,0.565,
5102,-0.56,0.545,
5103,-0.59,0.56,
5104,-0.58,0.605,
5105,-0.56,0.635,
5106,-0.555,0.67,
5107,-0.565,0.665,
5108,-0.59,0.68,
5109,-0.615,0.68,
5110,-0.62,0.73,
5111,-0.625,0.765,
5112,-0.615,0.775,
5113,-0.625,0.785,
5114,-0.635,0.79,
5115,-0.655,0.795,
5116,-0.67,0.81,
5117,-0.66,0.84,
5118,-0.64,0.855,
5119,-0.665,0.86,
5120,-0.68,0.845,
5121,-0.7,0.86,
5122,-0.71,0.87,
5123,-0.7,0.885,
5124,-0.685,0.875,
5125,-0.7,0.85,
5126,-0.705,0.84,
5127,-0.71,0.825,
5128,-0.705,0.84,
5129,-0.71,0.835,
5130,-0.68,0.815,
5131,-0.705,0.785,
5132,-0.71,0.75,
5133,-0.715,0.715,
5134,-0.69,0.71,
5135,-0.66,0.69,
5136,-0.635,0.65,
5137,-0.625,0.625,
5138,-0.63,0.59,
5139,-0.625,0.565,
5140,-0.605,0.54,
5141,-0.565,0.54,
5142,-0.535,0.505,
5143,-0.52,0.445,
5144,-0.515,0.395,
5145,-0.5,0.36,
5146,-0.46,0.34,
5147,-0.425,0.32,
5148,-0.385,0.29,
5149,-0.375,0.24,
5150,-0.36,0.205,
5151,-0.365,0.175,
5152,-0.355,0.18,
5153,-0.32,0.175,
5154,-0.285,0.155,
5155,-0.285,0.14,
5156,-0.29,0.135,
5157,-0.3,0.13,
5158,-0.29,0.115,
5159,-0.285,0.12,
5160,-0.27,0.095,
5161,-0.28,0.065,
5162,-0.28,0.045,
5163,-0.28,0.055,
5164,-0.285,0.07,
5165,-0.27,0.08,
5166,-0.26,0.065,
5167,-0.265,0.07,
5168,-0.265,0.035,
5169,-0.28,0.035,
5170,-0.275,0.045,
5171,-0.27,0.07,
5172,-0.265,0.075,
5173,-0.275,0.045,
5174,-0.28,0.035,
5175,-0.285,0.03,
5176,-0.275,0.04,
5177,-0.265,0.05,
5178,-0.255,0.055,
5179,-0.28,0.055,
5180,-0.3,0.045,
5181,-0.305,0.035,
5182,-0.31,0.04,
5183,-0.295,0.075,
5184,-0.275,0.08,
5185,-0.27,0.055,
5186,-0.295,0.045,
5187,-0.31,0.055,
5188,-0.325,0.07,
5189,-0.305,0.09,
5190,-0.29,0.095,
5191,-0.295,0.085,
5192,-0.315,0.055,
5193,-0.325,0.06,
5194,-0.325,0.075,
5195,-0.31,0.085,
5196,-0.305,0.105,
5197,-0.3,0.085,
5198,-0.305,0.075,
5199,-0.315,0.09,
5200,-0.3,0.09,
5201,-0.295,0.095,
5202,-0.29,0.09,
5203,-0.305,0.095,
5204,-0.335,0.075,
5205,-0.325,0.07,
5206,-0.315,0.09,
5207,-0.305,0.115,
5208,-0.29,0.11,
5209,-0.295,0.085,
5210,-0.31,0.075,
5211,-0.315,0.06,
5212,-0.31,0.06,
5213,-0.295,0.085,
5214,-0.265,0.115,
5215,-0.265,0.095,
5216,-0.275,0.075,
5217,-0.305,0.065,
5218,-0.315,0.075,
5219,-0.31,0.085,
5220,-0.285,0.08,
5221,-0.28,0.075,
5222,-0.28,0.065,
5223,-0.3,0.06,
5224,-0.3,0.065,
5225,-0.285,0.07,
5226,-0.275,0.085,
5227,-0.275,0.07,
5228,-0.285,0.07,
5229,-0.31,0.06,
5230,-0.3,0.06,
5231,-0.295,0.085,
5232,-0.28,0.075,
5233,-0.275,0.075,
5234,-0.28,0.06,
5235,-0.29,0.055,
5236,-0.28,0.06,
5237,-0.265,0.06,
5238,-0.25,0.06,
5239,-0.26,0.045,
5240,-0.28,0.035,
5241,-0.265,0.04,
5242,-0.255,0.05,
5243,-0.235,0.04,
5244,-0.22,0.045,
5245,-0.2,0.045,
5246,-0.21,0.03,
5247,-0.22,0.04,
5248,-0.215,0.045,
5249,-0.21,0.07,
5250,-0.205,0.08,
5251,-0.215,0.07,
5252,-0.215,0.055,
5253,-0.22,0.04,
5254,-0.215,0.045,
5255,-0.2,0.055,
5256,-0.195,0.05,
5257,-0.195,0.045,
5258,-0.205,0.035,
5259,-0.225,0.025,
5260,-0.23,0.05,
5261,-0.215,0.045,
5262,-0.21,0.05,
5263,-0.21,0.05,
5264,-0.22,0.035,
5265,-0.235,0.04,
5266,-0.24,0.055,
5267,-0.235,0.065,
5268,-0.24,0.055,
5269,-0.255,0.045,
5270,-0.27,0.03,
5271,-0.305,0.01,
5272,-0.295,0.04,
5273,-0.28,0.03,
5274,-0.265,0.045,
5275,-0.265,0.025,
5276,-0.295,0.01,
5277,-0.325,0.015,
5278,-0.325,0.04,
5279,-0.32,0.05,
5280,-0.295,0.05,
5281,-0.29,0.035,
5282,-0.285,0.02,
5283,-0.3,0.03,
5284,-0.31,0.045,
5285,-0.32,0.065,
5286,-0.31,0.07,
5287,-0.305,0.055,
5288,-0.32,0.035,
5289,-0.33,0.03,
5290,-0.32,0.06,
5291,-0.31,0.05,
5292,-0.3,0.045,
5293,-0.31,0.02,
5294,-0.315,0.02,
5295,-0.325,0.015,
5296,-0.3,0.045,
5297,-0.295,0.065,
5298,-0.275,0.075,
5299,-0.27,0.07,
5300,-0.28,0.08,
5301,-0.3,0.085,
5302,-0.295,0.115,
5303,-0.27,0.075,
5304,-0.225,0.015,
5305,-0.15,-0.105,
5306,-0.05,-0.275,
5307,0.05,-0.435,
5308,0.16,-0.57,
5309,0.27,-0.695,
5310,0.37,-0.78,
5311,0.485,-0.86,
5312,0.555,-0.925,
5313,0.635,-0.995,
5314,0.73,-1.07,
5315,0.86,-1.125,
5316,0.985,-1.2,
5317,1.13,-1.23,
5318,1.34,-1.26,
5319,1.53,-1.225,
5320,1.705,-1.16,
5321,1.84,-1.105,L
5322,1.885,-1.08,
5323,1.85,-1.08,
5324,1.735,-1.08,
5325,1.525,-1.04,
5326,1.22,-0.98,
5327,0.945,-0.915,
5328,0.7,-0.865,
5329,0.525,-0.815,
5330,0.4,-0.775,
5331,0.315,-0.72,
5332,0.28,-0.61,
5333,0.25,-0.545,
5334,0.255,-0.48,
5335,0.225,-0.435,
5336,0.185,-0.405,
5337,0.155,-0.35,
5338,0.125,-0.295,
5339,0.085,-0.215,
5340,0.05,-0.165,
5341,0.005,-0.125,
5342,-0.045,-0.095,
5343,-0.085,-0.055,
5344,-0.1,0.01,
5345,-0.12,0.065,
5346,-0.135,0.08,
5347,-0.195,0.12,
5348,-0.255,0.155,
5349,-0.31,0.205,
5350,-0.335,0.275,
5351,-0.35,0.29,
5352,-0.36,0.32,
5353,-0.385,0.315,
5354,-0.42,0.33,
5355,-0.465,0.33,
5356,-0.465,0.355,
5357,-0.465,0.375,
5358,-0.46,0.41,
5359,-0.47,0.4,
5360,-0.505,0.415,
5361,-0.525,0.4,
5362,-0.525,0.435,
5363,-0.51,0.445,
5364,-0.495,0.455,
5365,-0.505,0.46,
5366,-0.52,0.46,
5367,-0.52,0.47,
5368,-0.54,0.495,
5369,-0.52,0.525,
5370,-0.515,0.52,
5371,-0.525,0.525,
5372,-0.56,0.495,
5373,-0.55,0.5,
5374,-0.55,0.525,
5375,-0.55,0.56,
5376,-0.53,0.575,
5377,-0.54,0.575,
5378,-0.565,0.565,
5379,-0.57,0.58,
5380,-0.595,0.61,
5381,-0.575,0.62,
5382,-0.555,0.645,
5383,-0.555,0.65,
5384,-0.57,0.65,
5385,-0.61,0.67,
5386,-0.615,0.7,
5387,-0.615,0.725,
5388,-0.615,0.74,
5389,-0.605,0.75,
5390,-0.615,0.76,
5391,-0.62,0.76,
5392,-0.63,0.77,
5393,-0.645,0.785,
5394,-0.65,0.8,
5395,-0.665,0.81,
5396,-0.685,0.81,
5397,-0.71,0.84,
5398,-0.69,0.885,
5399,-0.685,0.905,
5400,-0.68,0.905,
5401,-0.695,0.9,
5402,-0.715,0.9,
5403,-0.73,0.91,
5404,-0.75,0.94,
5405,-0.74,0.97,
5406,-0.72,0.98,
5407,-0.73,0.98,
5408,-0.76,0.965,
5409,-0.77,0.96,
5410,-0.785,0.955,
5411,-0.8,0.985,
5412,-0.795,0.985,
5413,-0.79,0.975,
5414,-0.78,0.94,
5415,-0.785,0.945,
5416,-0.78,0.945,
5417,-0.79,0.945,
5418,-0.79,0.94,
5419,-0.79,0.915,
5420,-0.795,0.88,
5421,-0.78,0.865,
5422,-0.785,0.84,
5423,-0.76,0.835,
5424,-0.735,0.82,
5425,-0.72,0.78,
5426,-0.71,0.735,
5427,-0.715,0.7,
5428,-0.695,0.68,
5429,-0.675,0.66,
5430,-0.635,0.615,
5431,-0.615,0.57,
5432,-0.585,0.515,
5433,-0.565,0.5,
5434,-0.545,0.48,
5435,-0.545,0.48,
5436,-0.49,0.46,
5437,-0.47,0.42,
5438,-0.475,0.385,
5439,-0.465,0.355,
5440,-0.435,0.34,
5441,-0.41,0.335,
5442,-0.38,0.31,
5443,-0.39,0.285,
5444,-0.39,0.25,
5445,-0.395,0.245,
5446,-0.37,0.24,
5447,-0.345,0.25,
5448,-0.32,0.245,
5449,-0.31,0.215,
5450,-0.305,0.195,
5451,-0.335,0.19,
5452,-0.34,0.19,
5453,-0.315,0.175,
5454,-0.295,0.18,
5455,-0.29,0.165,
5456,-0.285,0.145,
5457,-0.305,0.15,
5458,-0.315,0.165,
5459,-0.295,0.18,
5460,-0.285,0.16,
5461,-0.275,0.155,
5462,-0.3,0.14,
5463,-0.295,0.14,
5464,-0.3,0.16,
5465,-0.29,0.175,
5466,-0.28,0.17,
5467,-0.275,0.16,
5468,-0.3,0.13,
5469,-0.325,0.13,
5470,-0.32,0.14,
5471,-0.305,0.16,
5472,-0.29,0.17,
5473,-0.285,0.15,
5474,-0.29,0.14,
5475,-0.31,0.14,
5476,-0.32,0.16,
5477,-0.3,0.17,
5478,-0.3,0.165,
5479,-0.305,0.175,
5480,-0.305,0.15,
5481,-0.315,0.145,
5482,-0.315,0.17,
5483,-0.285,0.195,
5484,-0.275,0.19,
5485,-0.3,0.175,
5486,-0.325,0.155,
5487,-0.325,0.165,
5488,-0.325,0.17,
5489,-0.305,0.185,
5490,-0.3,0.19,
5491,-0.3,0.18,
5492,-0.31,0.17,
5493,-0.32,0.175,
5494,-0.35,0.175,
5495,-0.335,0.18,
5496,-0.32,0.175,
5497,-0.315,0.17,
5498,-0.32,0.155,
5499,-0.345,0.145,
5500,-0.34,0.17,
5501,-0.34,0.17,
5502,-0.33,0.19,
5503,-0.33,0.185,
5504,-0.345,0.16,
5505,-0.35,0.17,
5506,-0.325,0.175,
5507,-0.31,0.19,
5508,-0.305,0.19,
5509,-0.32,0.18,
5510,-0.33,0.17,
5511,-0.345,0.155,
5512,-0.335,0.175,
5513,-0.32,0.2,
5514,-0.29,0.19,
5515,-0.29,0.19,
5516,-0.305,0.155,
5517,-0.33,0.155,
5518,-0.36,0.155,
5519,-0.33,0.18,
5520,-0.315,0.205,
5521,-0.3,0.185,
5522,-0.305,0.19,
5523,-0.31,0.18,
5524,-0.31,0.185,
5525,-0.295,0.185,
5526,-0.275,0.185,
5527,-0.28,0.165,
5528,-0.31,0.145,
5529,-0.33,0.145,
5530,-0.325,0.155,
5531,-0.305,0.185,
5532,-0.28,0.175,
5533,-0.28,0.18,
5534,-0.29,0.155,
5535,-0.315,0.135,
5536,-0.31,0.145,
5537,-0.305,0.165,
5538,-0.295,0.175,
5539,-0.285,0.155,
5540,-0.3,0.145,
5541,-0.295,0.13,
5542,-0.285,0.15,
5543,-0.255,0.17,
5544,-0.235,0.145,
5545,-0.225,0.135,
5546,-0.225,0.115,
5547,-0.24,0.11,
5548,-0.23,0.13,
5549,-0.21,0.15,
5550,-0.215,0.165,
5551,-0.22,0.155,
5552,-0.255,0.135,
5553,-0.255,0.14,
5554,-0.25,0.16,
5555,-0.235,0.15,
5556,-0.22,0.16,
5557,-0.215,0.14,
5558,-0.205,0.13,
5559,-0.205,0.125,
5560,-0.22,0.14,
5561,-0.215,0.155,
5562,-0.2,0.135,
5563,-0.21,0.12,
5564,-0.215,0.095,
5565,-0.235,0.1,
5566,-0.22,0.115,
5567,-0.21,0.14,
5568,-0.195,0.13,
5569,-0.2,0.115,
5570,-0.21,0.095,
5571,-0.215,0.115,
5572,-0.245,0.125,
5573,-0.22,0.125,
5574,-0.225,0.145,
5575,-0.23,0.13,
5576,-0.25,0.105,
5577,-0.275,0.11,
5578,-0.26,0.11,
5579,-0.275,0.135,
5580,-0.27,0.125,
5581,-0.27,0.12,
5582,-0.275,0.105,
5583,-0.29,0.09,
5584,-0.32,0.095,
5585,-0.305,0.1,
5586,-0.29,0.1,
5587,-0.29,0.09,
5588,-0.275,0.08,
5589,-0.285,0.08,
5590,-0.275,0.1,
5591,-0.265,0.12,
5592,-0.27,0.135,
5593,-0.28,0.125,
5594,-0.29,0.115,
5595,-0.305,0.115,
5596,-0.3,0.125,
5597,-0.28,0.13,
5598,-0.27,0.135,
5599,-0.275,0.135,
5600,-0.275,0.12,
5601,-0.29,0.11,
5602,-0.285,0.13,
5603,-0.28,0.145,
5604,-0.275,0.135,
5605,-0.265,0.12,
5606,-0.265,0.125,
5607,-0.285,0.115,
5608,-0.27,0.135,
5609,-0.245,0.16,
5610,-0.245,0.155,
5611,-0.245,0.185,
5612,-0.26,0.195,
5613,-0.285,0.195,
5614,-0.295,0.215,
5615,-0.295,0.205,
5616,-0.28,0.185,
5617,-0.26,0.145,
5618,-0.215,0.065,
5619,-0.15,-0.015,
5620,-0.035,-0.09,
5621,0.065,-0.165,
5622,0.165,-0.285,
5623,0.25,-0.385,
5624,0.32,-0.505,
5625,0.4,-0.6,
5626,0.495,-0.67,
5627,0.625,-0.735,
5628,0.765,-0.815,
5629,0.9,-0.895,
5630,1.055,-0.96,
5631,1.21,-1.025,
5632,1.375,-1.04,
5633,1.55,-1.035,
5634,1.72,-1.055,
5635,1.845,-1.085,
5636,1.925,-1.095,
5637,1.98,-1.08,
5638,1.99,-1.065,L
5639,2.005,-1.025,
5640,1.99,-1.01,
5641,1.935,-1.015,
5642,1.835,-1.015,
5643,1.64,-1.015,
5644,1.37,-0.975,
5645,1.055,-0.925,
5646,0.75,-0.875,
5647,0.545,-0.82,
5648,0.395,-0.79,
5649,0.29,-0.73,
5650,0.23,-0.64,
5651,0.21,-0.545,
5652,0.195,-0.465,
5653,0.155,-0.405,
5654,0.135,-0.36,
5655,0.095,-0.325,
5656,0.07,-0.26,
5657,0.055,-0.21,
5658,0.04,-0.165,
5659,0.0,-0.15,
5660,-0.04,-0.13,
5661,-0.08,-0.09,
5662,-0.11,-0.055,
5663,-0.1,-0.01,
5664,-0.1,0.015,
5665,-0.105,0.05,
5666,-0.125,0.055,
5667,-0.145,0.095,
5668,-0.18,0.135,
5669,-0.185,0.195,
5670,-0.205,0.225,
5671,-0.24,0.245,
5672,-0.29,0.27,
5673,-0.33,0.305,
5674,-0.355,0.33,
5675,-0.35,0.36,
5676,-0.37,0.38,
5677,-0.39,0.39,
5678,-0.415,0.38,
5679,-0.455,0.4,
5680,-0.475,0.42,
5681,-0.48,0.445,
5682,-0.455,0.445,
5683,-0.46,0.47,
5684,-0.475,0.46,
5685,-0.475,0.465,
5686,-0.48,0.48,
5687,-0.46,0.495,
5688,-0.44,0.505,
5689,-0.45,0.49,
5690,-0.48,0.475,
5691,-0.495,0.48,
5692,-0.5,0.515,
5693,-0.495,0.53,
5694,-0.495,0.545,
5695,-0.495,0.535,
5696,-0.51,0.525,
5697,-0.53,0.54,
5698,-0.51,0.56,
5699,-0.505,0.565,
5700,-0.485,0.58,
5701,-0.495,0.585,
5702,-0.515,0.575,
5703,-0.54,0.58,
5704,-0.535,0.595,
5705,-0.52,0.63,
5706,-0.505,0.655,
5707,-0.505,0.635,
5708,-0.53,0.615,
5709,-0.545,0.63,
5710,-0.545,0.65,
5711,-0.535,0.665,
5712,-0.525,0.675,
5713,-0.535,0.67,
5714,-0.545,0.67,
5715,-0.56,0.68,
5716,-0.57,0.705,
5717,-0.555,0.725,
5718,-0.535,0.755,
5719,-0.54,0.75,
5720,-0.555,0.745,
5721,-0.575,0.75,
5722,-0.59,0.775,
5723,-0.58,0.795,
5724,-0.57,0.815,
5725,-0.57,0.815,
5726,-0.575,0.81,
5727,-0.605,0.84,
5728,-0.605,0.87,
5729,-0.615,0.9,
5730,-0.6,0.91,
5731,-0.62,0.915,
5732,-0.63,0.905,
5733,-0.645,0.915,
5734,-0.66,0.94,
5735,-0.635,0.96,
5736,-0.635,0.955,
5737,-0.645,0.95,
5738,-0.645,0.955,
5739,-0.655,0.965,
5740,-0.66,0.975,
5741,-0.655,1.01,
5742,-0.655,1.01,
5743,-0.675,1.02,
5744,-0.71,0.995,
5745,-0.715,1.005,
5746,-0.7,1.025,
5747,-0.7,1.05,
5748,-0.695,1.035,
5749,-0.7,1.035,
5750,-0.715,1.03,
5751,-0.725,1.005,
5752,-0.73,1.02,
5753,-0.725,1.03,
5754,-0.705,1.02,
5755,-0.71,0.995,
5756,-0.715,0.975,
5757,-0.73,0.965,
5758,-0.73,0.965,
5759,-0.71,0.96,
5760,-0.7,0.95,
5761,-0.695,0.915,
5762,-0.705,0.885,
5763,-0.71,0.855,
5764,-0.69,0.845,
5765,-0.685,0.845,
5766,-0.645,0.81,
5767,-0.645,0.785,
5768,-0.645,0.73,
5769,-0.635,0.685,
5770,-0.61,0.685,
5771,-0.585,0.685,
5772,-0.555,0.655,
5773,-0.55,0.61,
5774,-0.53,0.57,
5775,-0.525,0.535,
5776,-0.515,0.515,
5777,-0.48,0.51,
5778,-0.46,0.485,
5779,-0.455,0.44,
5780,-0.43,0.41,
5781,-0.425,0.395,
5782,-0.39,0.38,
5783,-0.355,0.38,
5784,-0.335,0.365,
5785,-0.33,0.345,
5786,-0.335,0.33,
5787,-0.33,0.305,
5788,-0.34,0.3,
5789,-0.325,0.305,
5790,-0.305,0.3,
5791,-0.315,0.265,
5792,-0.295,0.245,
5793,-0.305,0.24,
5794,-0.295,0.24,
5795,-0.285,0.25,
5796,-0.255,0.255,
5797,-0.265,0.22,
5798,-0.28,0.21,
5799,-0.28,0.21,
5800,-0.285,0.21,
5801,-0.26,0.21,
5802,-0.255,0.21,
5803,-0.255,0.21,
5804,-0.285,0.19,
5805,-0.295,0.18,
5806,-0.285,0.195,
5807,-0.285,0.2,
5808,-0.26,0.195,
5809,-0.255,0.195,
5810,-0.27,0.17,
5811,-0.285,0.18,
5812,-0.3,0.19,
5813,-0.285,0.195,
5814,-0.27,0.205,
5815,-0.265,0.19,
5816,-0.285,0.195,
5817,-0.29,0.17,
5818,-0.295,0.2,
5819,-0.285,0.2,
5820,-0.285,0.215,
5821,-0.29,0.205,
5822,-0.295,0.195,
5823,-0.29,0.19,
5824,-0.28,0.205,
5825,-0.275,0.235,
5826,-0.27,0.245,
5827,-0.25,0.215,
5828,-0.285,0.21,
5829,-0.3,0.2,
5830,-0.32,0.205,
5831,-0.305,0.235,
5832,-0.27,0.25,
5833,-0.28,0.23,
5834,-0.28,0.215,
5835,-0.31,0.215,
5836,-0.32,0.235,
5837,-0.28,0.255,
5838,-0.265,0.235,
5839,-0.265,0.24,
5840,-0.28,0.215,
5841,-0.305,0.22,
5842,-0.305,0.235,
5843,-0.29,0.255,
5844,-0.27,0.24,
5845,-0.275,0.22,
5846,-0.28,0.22,
5847,-0.295,0.21,
5848,-0.29,0.235,
5849,-0.275,0.24,
5850,-0.265,0.25,
5851,-0.275,0.245,
5852,-0.295,0.215,
5853,-0.3,0.215,
5854,-0.285,0.22,
5855,-0.285,0.235,
5856,-0.26,0.25,
5857,-0.265,0.235,
5858,-0.29,0.22,
5859,-0.305,0.225,
5860,-0.315,0.23,
5861,-0.275,0.245,
5862,-0.245,0.245,
5863,-0.255,0.22,
5864,-0.26,0.21,
5865,-0.285,0.22,
5866,-0.285,0.22,
5867,-0.285,0.235,
5868,-0.27,0.235,
5869,-0.285,0.225,
5870,-0.29,0.205,
5871,-0.31,0.205,
5872,-0.285,0.205,
5873,-0.29,0.23,
5874,-0.275,0.225,
5875,-0.27,0.215,
5876,-0.275,0.2,
5877,-0.285,0.205,
5878,-0.275,0.195,
5879,-0.24,0.205,
5880,-0.235,0.205,
5881,-0.235,0.2,
5882,-0.225,0.185,
5883,-0.235,0.205,
5884,-0.235,0.21,
5885,-0.2,0.23,
5886,-0.21,0.22,
5887,-0.2,0.21,
5888,-0.205,0.205,
5889,-0.22,0.175,
5890,-0.23,0.205,
5891,-0.21,0.205,
5892,-0.19,0.215,
5893,-0.165,0.19,
5894,-0.185,0.17,
5895,-0.195,0.17,
5896,-0.215,0.175,
5897,-0.215,0.195,
5898,-0.195,0.19,
5899,-0.19,0.175,
5900,-0.205,0.19,
5901,-0.21,0.19,
5902,-0.21,0.195,
5903,-0.22,0.23,
5904,-0.21,0.23,
5905,-0.23,0.205,
5906,-0.245,0.185,
5907,-0.245,0.165,
5908,-0.245,0.195,
5909,-0.235,0.205,
5910,-0.225,0.21,
5911,-0.26,0.2,
5912,-0.285,0.155,
5913,-0.31,0.165,
5914,-0.325,0.175,
5915,-0.305,0.185,
5916,-0.27,0.175,
5917,-0.275,0.175,
5918,-0.285,0.145,
5919,-0.315,0.155,
5920,-0.315,0.17,
5921,-0.285,0.19,
5922,-0.285,0.2,
5923,-0.295,0.19,
5924,-0.3,0.19,
5925,-0.31,0.165,
5926,-0.31,0.175,
5927,-0.3,0.185,
5928,-0.295,0.205,
5929,-0.295,0.185,
5930,-0.305,0.165,
5931,-0.305,0.175,
5932,-0.31,0.185,
5933,-0.28,0.19,
5934,-0.28,0.205,
5935,-0.285,0.19,
5936,-0.29,0.185,
5937,-0.3,0.215,
5938,-0.3,0.235,
5939,-0.29,0.29,
5940,-0.275,0.31,
5941,-0.29,0.3,
5942,-0.305,0.275,
5943,-0.315,0.25,
5944,-0.27,0.21,
5945,-0.195,0.14,
5946,-0.07,0.025,
5947,0.045,-0.13,
5948,0.125,-0.29,
5949,0.2,-0.45,
5950,0.3,-0.575,
5951,0.415,-0.655,
5952,0.56,-0.74,
5953,0.735,-0.825,
5954,0.91,-0.885,
5955,1.1,-0.905,
5956,1.3,-0.92,
5957,1.545,-0.92,
5958,1.755,-0.905,
5959,1.91,-0.91,
5960,1.97,-0.91,L
5961,2.0,-0.895,
5962,1.97,-0.89,
5963,1.89,-0.87,
5964,1.745,-0.845,
5965,1.435,-0.84,
5966,1.03,-0.805,
5967,0.655,-0.75,
5968,0.425,-0.695,
5969,0.325,-0.625,
5970,0.265,-0.535,
5971,0.24,-0.455,
5972,0.19,-0.395,
5973,0.15,-0.315,
5974,0.12,-0.26,
5975,0.095,-0.2,
5976,0.08,-0.16,
5977,0.035,-0.115,
5978,-0.015,-0.09,
5979,-0.065,-0.06,
5980,-0.085,-0.015,
5981,-0.11,0.025,
5982,-0.11,0.1,
5983,-0.14,0.135,
5984,-0.18,0.165,
5985,-0.22,0.21,
5986,-0.245,0.25,
5987,-0.265,0.3,
5988,-0.29,0.335,
5989,-0.325,0.34,
5990,-0.365,0.365,
5991,-0.4,0.38,
5992,-0.415,0.44,
5993,-0.415,0.46,
5994,-0.42,0.475,
5995,-0.435,0.46,
5996,-0.455,0.465,
5997,-0.495,0.47,
5998,-0.495,0.465,
5999,-0.48,0.48,
6000,-0.46,0.515,
6001,-0.465,0.505,
6002,-0.475,0.51,
6003,-0.48,0.505,
6004,-0.49,0.54,
6005,-0.485,0.56,
6006,-0.485,0.575,
6007,-0.48,0.575,
6008,-0.485,0.555,
6009,-0.505,0.575,
6010,-0.51,0.595,
6011,-0.5,0.635,
6012,-0.495,0.635,
6013,-0.515,0.63,
6014,-0.515,0.63,
6015,-0.53,0.635,
6016,-0.53,0.66,
6017,-0.515,0.685,
6018,-0.52,0.685,
6019,-0.55,0.69,
6020,-0.585,0.69,
6021,-0.59,0.715,
6022,-0.585,0.72,
6023,-0.57,0.76,
6024,-0.545,0.77,
6025,-0.545,0.77,
6026,-0.575,0.795,
6027,-0.605,0.795,
6028,-0.59,0.825,
6029,-0.595,0.88,
6030,-0.585,0.89,
6031,-0.585,0.885,
6032,-0.605,0.89,
6033,-0.605,0.89,
6034,-0.625,0.915,
6035,-0.635,0.95,
6036,-0.635,0.965,
6037,-0.66,0.975,
6038,-0.67,0.97,
6039,-0.665,0.975,
6040,-0.645,0.99,
6041,-0.635,1.025,
6042,-0.64,1.035,
6043,-0.675,1.04,
6044,-0.72,1.035,
6045,-0.715,1.05,
6046,-0.72,1.045,
6047,-0.725,1.065,
6048,-0.715,1.065,
6049,-0.725,1.02,
6050,-0.74,1.005,
6051,-0.74,1.0,
6052,-0.745,0.995,
6053,-0.745,1.0,
6054,-0.73,0.98,
6055,-0.71,0.96,
6056,-0.72,0.935,
6057,-0.73,0.9,
6058,-0.725,0.89,
6059,-0.705,0.88,
6060,-0.65,0.85,
6061,-0.63,0.81,
6062,-0.64,0.765,
6063,-0.625,0.735,
6064,-0.62,0.705,
6065,-0.595,0.695,
6066,-0.55,0.64,
6067,-0.53,0.6,
6068,-0.52,0.555,
6069,-0.5,0.525,
6070,-0.495,0.495,
6071,-0.455,0.49,
6072,-0.405,0.46,
6073,-0.39,0.435,
6074,-0.38,0.385,
6075,-0.385,0.365,
6076,-0.365,0.37,
6077,-0.355,0.355,
6078,-0.335,0.355,
6079,-0.325,0.325,
6080,-0.335,0.305,
6081,-0.335,0.285,
6082,-0.325,0.295,
6083,-0.31,0.305,
6084,-0.295,0.28,
6085,-0.315,0.265,
6086,-0.325,0.245,
6087,-0.345,0.23,
6088,-0.33,0.255,
6089,-0.3,0.27,
6090,-0.29,0.245,
6091,-0.295,0.255,
6092,-0.33,0.23,
6093,-0.325,0.215,
6094,-0.33,0.215,
6095,-0.32,0.245,
6096,-0.295,0.25,
6097,-0.305,0.24,
6098,-0.32,0.215,
6099,-0.335,0.22,
6100,-0.34,0.225,
6101,-0.315,0.235,
6102,-0.305,0.24,
6103,-0.315,0.23,
6104,-0.335,0.225,
6105,-0.345,0.23,
6106,-0.365,0.235,
6107,-0.345,0.25,
6108,-0.33,0.23,
6109,-0.32,0.25,
6110,-0.335,0.25,
6111,-0.345,0.225,
6112,-0.355,0.25,
6113,-0.35,0.265,
6114,-0.335,0.255,
6115,-0.35,0.25,
6116,-0.36,0.23,
6117,-0.37,0.235,
6118,-0.385,0.23,
6119,-0.37,0.275,
6120,-0.35,0.26,
6121,-0.33,0.26,
6122,-0.35,0.255,
6123,-0.35,0.24,
6124,-0.355,0.25,
6125,-0.35,0.255,
6126,-0.335,0.26,
6127,-0.35,0.26,
6128,-0.35,0.25,
6129,-0.34,0.245,
6130,-0.36,0.25,
6131,-0.345,0.275,
6132,-0.34,0.28,
6133,-0.345,0.27,
6134,-0.335,0.245,
6135,-0.345,0.24,
6136,-0.33,0.255,
6137,-0.33,0.26,
6138,-0.315,0.26,
6139,-0.325,0.245,
6140,-0.34,0.23,
6141,-0.345,0.21,
6142,-0.35,0.22,
6143,-0.33,0.235,
6144,-0.31,0.24,
6145,-0.32,0.235,
6146,-0.335,0.215,
6147,-0.345,0.205,
6148,-0.335,0.21,
6149,-0.315,0.23,
6150,-0.305,0.22,
6151,-0.3,0.21,
6152,-0.315,0.2,
6153,-0.335,0.19,
6154,-0.335,0.225,
6155,-0.335,0.225,
6156,-0.31,0.235,
6157,-0.305,0.195,
6158,-0.315,0.195,
6159,-0.32,0.185,
6160,-0.32,0.185,
6161,-0.295,0.21,
6162,-0.27,0.195,
6163,-0.25,0.19,
6164,-0.26,0.16,
6165,-0.275,0.17,
6166,-0.285,0.17,
6167,-0.275,0.195,
6168,-0.25,0.2,
6169,-0.25,0.19,
6170,-0.245,0.175,
6171,-0.265,0.16,
6172,-0.265,0.165,
6173,-0.25,0.18,
6174,-0.255,0.175,
6175,-0.23,0.165,
6176,-0.255,0.14,
6177,-0.27,0.14,
6178,-0.265,0.165,
6179,-0.25,0.17,
6180,-0.235,0.17,
6181,-0.24,0.17,
6182,-0.255,0.155,
6183,-0.27,0.135,
6184,-0.28,0.135,
6185,-0.285,0.155,
6186,-0.265,0.155,
6187,-0.285,0.15,
6188,-0.325,0.135,
6189,-0.34,0.13,
6190,-0.355,0.14,
6191,-0.345,0.14,
6192,-0.335,0.15,
6193,-0.325,0.14,
6194,-0.335,0.125,
6195,-0.325,0.135,
6196,-0.34,0.145,
6197,-0.345,0.16,
6198,-0.345,0.165,
6199,-0.345,0.165,
6200,-0.34,0.145,
6201,-0.34,0.15,
6202,-0.325,0.155,
6203,-0.32,0.175,
6204,-0.315,0.16,
6205,-0.325,0.165,
6206,-0.34,0.14,
6207,-0.34,0.135,
6208,-0.34,0.145,
6209,-0.315,0.165,
6210,-0.3,0.2,
6211,-0.305,0.22,
6212,-0.325,0.23,
6213,-0.335,0.225,
6214,-0.315,0.19,
6215,-0.24,0.155,
6216,-0.115,0.05,
6217,-0.015,-0.075,
6218,0.05,-0.26,
6219,0.105,-0.435,
6220,0.17,-0.59,
6221,0.28,-0.7,
6222,0.43,-0.81,
6223,0.585,-0.905,
6224,0.75,-0.995,
6225,0.955,-1.04,
6226,1.165,-1.055,
6227,1.41,-1.015,
6228,1.635,-0.98,
6229,1.78,-0.955,L
6230,1.84,-0.945,
6231,1.78,-0.955,
6232,1.625,-0.95,
6233,1.335,-0.95,
6234,0.98,-0.9,
6235,0.69,-0.85,
6236,0.48,-0.79,
6237,0.36,-0.725,
6238,0.26,-0.645,
6239,0.195,-0.54,
6240,0.16,-0.44,
6241,0.14,-0.365,
6242,0.11,-0.305,
6243,0.065,-0.26,
6244,0.005,-0.185,
6245,-0.04,-0.105,
6246,-0.065,-0.05,
6247,-0.1,-0.01,
6248,-0.145,0.035,
6249,-0.17,0.055,
6250,-0.21,0.095,
6251,-0.25,0.14,
6252,-0.265,0.195,
6253,-0.31,0.24,
6254,-0.34,0.265,
6255,-0.37,0.29,
6256,-0.42,0.355,
6257,-0.43,0.39,
6258,-0.44,0.41,
6259,-0.465,0.415,
6260,-0.51,0.415,
6261,-0.515,0.43,
6262,-0.52,0.45,
6263,-0.51,0.465,
6264,-0.495,0.49,
6265,-0.525,0.5,
6266,-0.545,0.49,
6267,-0.545,0.48,
6268,-0.555,0.51,
6269,-0.535,0.515,
6270,-0.53,0.54,
6271,-0.55,0.535,
6272,-0.56,0.52,
6273,-0.57,0.535,
6274,-0.585,0.55,
6275,-0.565,0.585,
6276,-0.55,0.6,
6277,-0.565,0.6,
6278,-0.585,0.595,
6279,-0.59,0.605,
6280,-0.6,0.63,
6281,-0.6,0.655,
6282,-0.58,0.655,
6283,-0.59,0.675,
6284,-0.595,0.67,
6285,-0.62,0.69,
6286,-0.625,0.71,
6287,-0.63,0.74,
6288,-0.615,0.745,
6289,-0.63,0.765,
6290,-0.64,0.765,
6291,-0.645,0.775,
6292,-0.655,0.785,
6293,-0.655,0.845,
6294,-0.645,0.86,
6295,-0.65,0.85,
6296,-0.675,0.86,
6297,-0.68,0.875,
6298,-0.685,0.91,
6299,-0.685,0.92,
6300,-0.695,0.96,
6301,-0.71,0.95,
6302,-0.73,0.955,
6303,-0.755,0.96,
6304,-0.75,0.99,
6305,-0.74,0.995,
6306,-0.725,1.0,
6307,-0.74,1.0,
6308,-0.77,0.965,
6309,-0.8,0.96,
6310,-0.785,0.97,
6311,-0.775,0.985,
6312,-0.765,0.96,
6313,-0.755,0.935,
6314,-0.78,0.89,
6315,-0.79,0.855,
6316,-0.79,0.845,
6317,-0.755,0.845,
6318,-0.73,0.81,
6319,-0.72,0.775,
6320,-0.725,0.735,
6321,-0.735,0.685,
6322,-0.715,0.67,
6323,-0.685,0.66,
6324,-0.65,0.625,
6325,-0.62,0.595,
6326,-0.625,0.545,
6327,-0.605,0.51,
6328,-0.595,0.475,
6329,-0.545,0.445,
6330,-0.525,0.425,
6331,-0.485,0.385,
6332,-0.46,0.34,
6333,-0.445,0.315,
6334,-0.435,0.31,
6335,-0.425,0.305,
6336,-0.4,0.28,
6337,-0.38,0.25,
6338,-0.38,0.22,
6339,-0.38,0.205,
6340,-0.37,0.195,
6341,-0.375,0.21,
6342,-0.36,0.205,
6343,-0.36,0.195,
6344,-0.36,0.17,
6345,-0.355,0.17,
6346,-0.35,0.185,
6347,-0.335,0.18,
6348,-0.325,0.18,
6349,-0.335,0.18,
6350,-0.345,0.17,
6351,-0.36,0.145,
6352,-0.36,0.15,
6353,-0.345,0.16,
6354,-0.325,0.165,
6355,-0.345,0.16,
6356,-0.365,0.155,
6357,-0.37,0.15,
6358,-0.355,0.15,
6359,-0.345,0.175,
6360,-0.32,0.18,
6361,-0.33,0.155,
6362,-0.35,0.14,
6363,-0.375,0.135,
6364,-0.38,0.14,
6365,-0.38,0.155,
6366,-0.34,0.185,
6367,-0.35,0.175,
6368,-0.37,0.155,
6369,-0.38,0.15,
6370,-0.4,0.16,
6371,-0.365,0.175,
6372,-0.345,0.185,
6373,-0.36,0.19,
6374,-0.37,0.16,
6375,-0.39,0.15,
6376,-0.395,0.17,
6377,-0.36,0.17,
6378,-0.345,0.175,
6379,-0.37,0.165,
6380,-0.38,0.145,
6381,-0.385,0.16,
6382,-0.395,0.165,
6383,-0.38,0.185,
6384,-0.355,0.17,
6385,-0.365,0.17,
6386,-0.37,0.16,
6387,-0.375,0.16,
6388,-0.38,0.17,
6389,-0.37,0.175,
6390,-0.355,0.18,
6391,-0.36,0.155,
6392,-0.345,0.135,
6393,-0.35,0.125,
6394,-0.355,0.135,
6395,-0.355,0.155,
6396,-0.35,0.155,
6397,-0.355,0.15,
6398,-0.35,0.125,
6399,-0.355,0.115,
6400,-0.375,0.13,
6401,-0.385,0.125,
6402,-0.36,0.125,
6403,-0.345,0.115,
6404,-0.355,0.11,
6405,-0.355,0.11,
6406,-0.36,0.12,
6407,-0.355,0.13,
6408,-0.345,0.12,
6409,-0.355,0.11,
6410,-0.37,0.09,
6411,-0.365,0.095,
6412,-0.375,0.1,
6413,-0.355,0.11,
6414,-0.325,0.1,
6415,-0.325,0.08,
6416,-0.335,0.065,
6417,-0.33,0.07,
6418,-0.315,0.075,
6419,-0.295,0.095,
6420,-0.28,0.105,
6421,-0.275,0.085,
6422,-0.29,0.075,
6423,-0.29,0.065,
6424,-0.285,0.075,
6425,-0.27,0.09,
6426,-0.245,0.1,
6427,-0.26,0.09,
6428,-0.265,0.065,
6429,-0.27,0.045,
6430,-0.255,0.065,
6431,-0.24,0.075,
6432,-0.23,0.065,
6433,-0.245,0.055,
6434,-0.265,0.055,
6435,-0.28,0.035,
6436,-0.28,0.06,
6437,-0.265,0.07,
6438,-0.255,0.07,
6439,-0.255,0.06,
6440,-0.275,0.035,
6441,-0.305,0.04,
6442,-0.31,0.05,
6443,-0.305,0.055,
6444,-0.305,0.05,
6445,-0.29,0.05,
6446,-0.3,0.015,
6447,-0.32,0.01,
6448,-0.35,0.005,
6449,-0.35,0.02,
6450,-0.355,0.02,
6451,-0.345,0.025,
6452,-0.32,0.015,
6453,-0.335,0.015,
6454,-0.35,0.03,
6455,-0.35,0.03,
6456,-0.36,0.035,
6457,-0.35,0.045,
6458,-0.35,0.045,
6459,-0.35,0.035,
6460,-0.355,0.04,
6461,-0.35,0.065,
6462,-0.335,0.065,
6463,-0.35,0.05,
6464,-0.36,0.01,
6465,-0.365,0.02,
6466,-0.365,0.03,
6467,-0.35,0.045,
6468,-0.32,0.075,
6469,-0.325,0.08,
6470,-0.34,0.08,
6471,-0.345,0.08,
6472,-0.34,0.075,
6473,-0.31,0.04,
6474,-0.24,-0.02,
6475,-0.135,-0.145,
6476,-0.03,-0.295,
6477,0.07,-0.4,
6478,0.16,-0.475,
6479,0.27,-0.59,
6480,0.35,-0.73,
6481,0.46,-0.88,
6482,0.55,-1.025,
6483,0.695,-1.125,
6484,0.875,-1.17,
6485,1.115,-1.185,
6486,1.365,-1.21,
6487,1.58,-1.24,
6488,1.725,-1.235,
6489,1.81,-1.21,L
6490,1.81,-1.185,
6491,1.74,-1.165,
6492,1.555,-1.16,
6493,1.235,-1.16,
6494,0.84,-1.14,
6495,0.525,-1.08,
6496,0.34,-1.03,
6497,0.245,-0.95,
6498,0.18,-0.885,
6499,0.15,-0.78,
6500,0.14,-0.71,
6501,0.11,-0.595,
6502,0.125,-0.505,
6503,0.095,-0.445,
6504,0.09,-0.375,
6505,0.025,-0.335,
6506,-0.02,-0.3,
6507,-0.065,-0.245,
6508,-0.095,-0.19,
6509,-0.095,-0.11,
6510,-0.115,-0.06,
6511,-0.16,-0.04,
6512,-0.215,-0.035,
6513,-0.26,-0.02,
6514,-0.28,0.025,
6515,-0.31,0.075,
6516,-0.32,0.13,
6517,-0.345,0.16,
6518,-0.375,0.175,
6519,-0.43,0.205,
6520,-0.455,0.245,
6521,-0.465,0.255,
6522,-0.475,0.26,
6523,-0.48,0.275,
6524,-0.485,0.28,
6525,-0.5,0.29,
6526,-0.51,0.31,
6527,-0.5,0.34,
6528,-0.49,0.35,
6529,-0.505,0.345,
6530,-0.51,0.325,
6531,-0.525,0.335,
6532,-0.53,0.35,
6533,-0.53,0.375,
6534,-0.52,0.395,
6535,-0.52,0.395,
6536,-0.535,0.385,
6537,-0.545,0.4,
6538,-0.55,0.415,
6539,-0.53,0.435,
6540,-0.53,0.45,
6541,-0.53,0.47,
6542,-0.555,0.46,
6543,-0.58,0.48,
6544,-0.565,0.5,
6545,-0.565,0.53,
6546,-0.55,0.535,
6547,-0.56,0.535,
6548,-0.59,0.53,
6549,-0.6,0.55,
6550,-0.61,0.59,
6551,-0.595,0.615,
6552,-0.59,0.635,
6553,-0.58,0.66,
6554,-0.605,0.635,
6555,-0.625,0.65,
6556,-0.645,0.675,
6557,-0.64,0.71,
6558,-0.63,0.75,
6559,-0.63,0.755,
6560,-0.64,0.75,
6561,-0.665,0.75,
6562,-0.68,0.785,
6563,-0.68,0.81,
6564,-0.68,0.81,
6565,-0.695,0.795,
6566,-0.695,0.795,
6567,-0.72,0.785,
6568,-0.735,0.81,
6569,-0.72,0.83,
6570,-0.73,0.84,
6571,-0.72,0.825,
6572,-0.74,0.815,
6573,-0.755,0.8,
6574,-0.765,0.785,
6575,-0.745,0.795,
6576,-0.745,0.785,
6577,-0.745,0.76,
6578,-0.75,0.705,
6579,-0.75,0.695,
6580,-0.76,0.665,
6581,-0.735,0.64,
6582,-0.71,0.62,
6583,-0.695,0.585,
6584,-0.7,0.55,
6585,-0.695,0.52,
6586,-0.685,0.5,
6587,-0.665,0.47,
6588,-0.615,0.435,
6589,-0.6,0.39,
6590,-0.575,0.34,
6591,-0.58,0.29,
6592,-0.56,0.27,
6593,-0.515,0.24,
6594,-0.46,0.24,
6595,-0.455,0.185,
6596,-0.425,0.135,
6597,-0.425,0.105,
6598,-0.415,0.09,
6599,-0.385,0.08,
6600,-0.35,0.085,
6601,-0.32,0.06,
6602,-0.32,0.03,
6603,-0.33,-0.005,
6604,-0.335,0.025,
6605,-0.32,0.015,
6606,-0.31,0.015,
6607,-0.31,-0.005,
6608,-0.31,-0.03,
6609,-0.32,-0.03,
6610,-0.31,-0.025,
6611,-0.315,-0.015,
6612,-0.3,-0.015,
6613,-0.295,-0.035,
6614,-0.295,-0.05,
6615,-0.31,-0.065,
6616,-0.315,-0.05,
6617,-0.31,-0.04,
6618,-0.305,-0.03,
6619,-0.305,-0.04,
6620,-0.325,-0.055,
6621,-0.335,-0.075,
6622,-0.325,-0.055,
6623,-0.31,-0.05,
6624,-0.305,-0.045,
6625,-0.315,-0.05,
6626,-0.325,-0.06,
6627,-0.34,-0.065,
6628,-0.34,-0.05,
6629,-0.335,-0.055,
6630,-0.305,-0.04,
6631,-0.315,-0.055,
6632,-0.355,-0.055,
6633,-0.35,-0.065,
6634,-0.355,-0.035,
6635,-0.34,-0.03,
6636,-0.32,-0.03,
6637,-0.315,-0.05,
6638,-0.33,-0.05,
6639,-0.355,-0.065,
6640,-0.36,-0.05,
6641,-0.35,-0.03,
6642,-0.325,-0.035,
6643,-0.32,-0.05,
6644,-0.325,-0.045,
6645,-0.345,-0.07,
6646,-0.35,-0.06,
6647,-0.34,-0.04,
6648,-0.33,-0.05,
6649,-0.315,-0.05,
6650,-0.325,-0.065,
6651,-0.33,-0.06,
6652,-0.35,-0.05,
6653,-0.34,-0.035,
6654,-0.33,-0.04,
6655,-0.32,-0.05,
6656,-0.32,-0.065,
6657,-0.315,-0.065,
6658,-0.33,-0.06,
6659,-0.325,-0.04,
6660,-0.305,-0.045,
6661,-0.31,-0.065,
6662,-0.33,-0.09,
6663,-0.33,-0.09,
6664,-0.34,-0.095,
6665,-0.325,-0.08,
6666,-0.31,-0.06,
6667,-0.31,-0.07,
6668,-0.33,-0.1,
6669,-0.325,-0.115,
6670,-0.315,-0.1,
6671,-0.305,-0.09,
6672,-0.295,-0.08,
6673,-0.31,-0.09,
6674,-0.33,-0.105,
6675,-0.315,-0.1,
6676,-0.325,-0.11,
6677,-0.295,-0.095,
6678,-0.29,-0.105,
6679,-0.295,-0.11,
6680,-0.3,-0.12,
6681,-0.295,-0.125,
6682,-0.26,-0.125,
6683,-0.23,-0.11,
6684,-0.22,-0.115,
6685,-0.23,-0.125,
6686,-0.235,-0.135,
6687,-0.255,-0.14,
6688,-0.24,-0.13,
6689,-0.24,-0.1,
6690,-0.22,-0.1,
6691,-0.215,-0.145,
6692,-0.225,-0.14,
6693,-0.235,-0.17,
6694,-0.225,-0.145,
6695,-0.22,-0.135,
6696,-0.2,-0.115,
6697,-0.23,-0.14,
6698,-0.255,-0.155,
6699,-0.25,-0.175,
6700,-0.25,-0.16,
6701,-0.245,-0.145,
6702,-0.22,-0.15,
6703,-0.23,-0.15,
6704,-0.26,-0.165,
6705,-0.28,-0.175,
6706,-0.295,-0.17,
6707,-0.285,-0.155,
6708,-0.28,-0.155,
6709,-0.285,-0.17,
6710,-0.31,-0.19,
6711,-0.335,-0.205,
6712,-0.345,-0.195,
6713,-0.34,-0.19,
6714,-0.3,-0.185,
6715,-0.295,-0.175,
6716,-0.305,-0.195,
6717,-0.325,-0.205,
6718,-0.34,-0.19,
6719,-0.35,-0.17,
6720,-0.34,-0.165,
6721,-0.32,-0.16,
6722,-0.315,-0.175,
6723,-0.325,-0.19,
6724,-0.335,-0.2,
6725,-0.325,-0.175,
6726,-0.31,-0.175,
6727,-0.305,-0.18,
6728,-0.315,-0.185,
6729,-0.33,-0.18,
6730,-0.33,-0.175,
6731,-0.33,-0.12,
6732,-0.31,-0.1,
