,MLII,V1,symbol
0,0.22,0.185,
1,0.22,0.185,
2,0.22,0.185,
3,0.22,0.185,
4,0.22,0.185,
5,0.22,0.185,
6,0.22,0.185,
7,0.22,0.185,
8,0.22,0.185,
9,0.19,0.165,
10,0.17,0.185,
11,0.14,0.195,
12,0.145,0.225,
13,0.125,0.215,
14,0.11,0.19,
15,0.07,0.2,
16,0.025,0.205,
17,0.01,0.22,
18,0.005,0.235,
19,0.0,0.24,
20,-0.03,0.215,
21,-0.05,0.205,
22,-0.08,0.225,
23,-0.08,0.24,
24,-0.08,0.255,
25,-0.085,0.245,
26,-0.11,0.245,
27,-0.145,0.23,
28,-0.16,0.23,
29,-0.14,0.25,
30,-0.13,0.26,
31,-0.13,0.25,
32,-0.14,0.225,
33,-0.155,0.22,
34,-0.18,0.225,
35,-0.175,0.235,
36,-0.16,0.245,
37,-0.155,0.245,
38,-0.17,0.245,
39,-0.165,0.225,
40,-0.17,0.225,
41,-0.16,0.25,+
42,-0.15,0.26,
43,-0.165,0.27,
44,-0.17,0.245,
45,-0.185,0.23,
46,-0.19,0.235,
47,-0.165,0.25,
48,-0.155,0.26,
49,-0.155,0.26,
50,-0.155,0.24,
51,-0.155,0.245,
52,-0.16,0.245,
53,-0.145,0.275,
54,-0.115,0.295,
55,-0.11,0.28,
56,-0.11,0.26,
57,-0.13,0.25,
58,-0.13,0.27,
59,-0.125,0.275,
60,-0.09,0.29,
61,-0.07,0.265,
62,-0.07,0.25,
63,-0.07,0.25,
64,-0.075,0.25,
65,-0.07,0.255,
66,-0.095,0.25,
67,-0.12,0.225,
68,-0.13,0.205,
69,-0.13,0.22,
70,-0.14,0.22,
71,-0.13,0.225,
72,-0.13,0.225,
73,-0.15,0.225,
74,-0.155,0.215,
75,-0.16,0.205,
76,-0.155,0.21,
77,-0.13,0.245,
78,-0.115,0.25,
79,-0.155,0.25,
80,-0.175,0.235,
81,-0.2,0.22,
82,-0.195,0.235,
83,-0.175,0.235,
84,-0.165,0.23,
85,-0.19,0.235,
86,-0.2,0.23,
87,-0.205,0.21,
88,-0.2,0.23,
89,-0.18,0.235,
90,-0.165,0.235,
91,-0.165,0.25,
92,-0.175,0.235,
93,-0.19,0.225,
94,-0.175,0.23,
95,-0.175,0.26,
96,-0.175,0.265,
97,-0.18,0.26,
98,-0.185,0.235,
99,-0.185,0.22,
100,-0.175,0.235,
101,-0.18,0.24,
102,-0.17,0.25,
103,-0.165,0.24,
104,-0.175,0.235,
105,-0.175,0.235,
106,-0.185,0.245,
107,-0.18,0.245,
108,-0.145,0.255,
109,-0.17,0.235,
110,-0.19,0.2,
111,-0.215,0.205,
112,-0.215,0.22,
113,-0.2,0.255,
114,-0.185,0.265,
115,-0.19,0.28,
116,-0.19,0.285,
117,-0.15,0.27,
118,-0.025,0.26,
119,0.14,0.22,
120,0.315,0.175,
121,0.47,0.12,
122,0.63,0.06,
123,0.72,-0.01,
124,0.8,-0.055,N
125,0.84,-0.12,
126,0.8,-0.125,
127,0.675,-0.155,
128,0.515,-0.165,
129,0.26,-0.155,
130,-0.08,-0.115,
131,-0.415,-0.055,
132,-0.65,-0.015,
133,-0.785,0.025,
134,-0.755,0.065,
135,-0.665,0.13,
136,-0.555,0.19,
137,-0.47,0.235,
138,-0.375,0.26,
139,-0.315,0.245,
140,-0.265,0.235,
141,-0.255,0.22,
142,-0.225,0.22,
143,-0.21,0.23,
144,-0.175,0.25,
145,-0.17,0.24,
146,-0.17,0.22,
147,-0.185,0.205,
148,-0.185,0.24,
149,-0.165,0.245,
150,-0.13,0.27,
151,-0.14,0.255,
152,-0.135,0.215,
153,-0.14,0.215,
154,-0.155,0.215,
155,-0.135,0.24,
156,-0.115,0.24,
157,-0.09,0.245,
158,-0.075,0.24,
159,-0.085,0.225,
160,-0.085,0.245,
161,-0.07,0.25,
162,-0.06,0.26,
163,-0.055,0.235,
164,-0.06,0.22,
165,-0.065,0.2,
166,-0.06,0.21,
167,-0.02,0.215,
168,0.025,0.245,
169,0.04,0.235,
170,0.04,0.21,
171,0.04,0.2,
172,0.05,0.205,
173,0.095,0.22,
174,0.1,0.245,
175,0.12,0.23,
176,0.115,0.22,
177,0.12,0.2,
178,0.135,0.21,
179,0.155,0.215,
180,0.195,0.22,
181,0.205,0.215,
182,0.205,0.18,
183,0.205,0.185,
184,0.225,0.19,
185,0.24,0.21,
186,0.265,0.215,
187,0.26,0.2,
188,0.265,0.195,
189,0.25,0.185,
190,0.245,0.19,
191,0.255,0.21,
192,0.265,0.225,
193,0.265,0.205,
194,0.245,0.195,
195,0.225,0.195,
196,0.215,0.215,
197,0.21,0.225,
198,0.205,0.255,
199,0.17,0.23,
200,0.15,0.23,
201,0.12,0.23,
202,0.105,0.235,
203,0.085,0.26,
204,0.08,0.265,
205,0.055,0.265,
206,0.02,0.245,
207,-0.01,0.255,
208,-0.02,0.26,
209,-0.025,0.28,
210,-0.04,0.3,
211,-0.055,0.29,
212,-0.075,0.28,
213,-0.11,0.26,
214,-0.12,0.27,
215,-0.125,0.305,
216,-0.115,0.295,
217,-0.12,0.305,
218,-0.125,0.29,
219,-0.15,0.285,
220,-0.16,0.295,
221,-0.155,0.32,
222,-0.15,0.33,
223,-0.165,0.31,
224,-0.165,0.305,
225,-0.195,0.29,
226,-0.185,0.285,
227,-0.18,0.3,
228,-0.17,0.32,
229,-0.19,0.31,
230,-0.185,0.275,
231,-0.2,0.28,
232,-0.2,0.3,
233,-0.19,0.31,
234,-0.18,0.33,
235,-0.18,0.325,
236,-0.2,0.305,
237,-0.19,0.315,
238,-0.185,0.31,
239,-0.165,0.345,
240,-0.155,0.335,
241,-0.145,0.335,
242,-0.14,0.335,
243,-0.165,0.325,
244,-0.15,0.34,
245,-0.15,0.355,
246,-0.13,0.36,
247,-0.125,0.37,
248,-0.135,0.36,
249,-0.125,0.35,
250,-0.11,0.36,
251,-0.09,0.37,
252,-0.075,0.38,
253,-0.08,0.355,
254,-0.11,0.325,
255,-0.115,0.31,
256,-0.135,0.315,
257,-0.14,0.325,
258,-0.13,0.355,
259,-0.13,0.335,
260,-0.15,0.315,
261,-0.18,0.31,
262,-0.205,0.33,
263,-0.2,0.345,
264,-0.17,0.355,
265,-0.16,0.365,
266,-0.17,0.355,
267,-0.195,0.355,
268,-0.22,0.37,
269,-0.23,0.39,
270,-0.195,0.385,
271,-0.2,0.4,
272,-0.215,0.395,
273,-0.23,0.37,
274,-0.23,0.4,
275,-0.205,0.41,
276,-0.19,0.43,
277,-0.21,0.435,
278,-0.22,0.415,
279,-0.21,0.425,
280,-0.22,0.445,
281,-0.21,0.45,
282,-0.205,0.47,
283,-0.205,0.45,
284,-0.22,0.445,
285,-0.22,0.45,
286,-0.22,0.455,
287,-0.2,0.47,
288,-0.195,0.5,
289,-0.195,0.49,
290,-0.215,0.48,
291,-0.235,0.49,
292,-0.22,0.505,
293,-0.2,0.51,
294,-0.185,0.535,
295,-0.195,0.525,
296,-0.215,0.53,
297,-0.21,0.515,
298,-0.21,0.55,
299,-0.19,0.56,
300,-0.175,0.57,
301,-0.19,0.57,
302,-0.205,0.575,
303,-0.225,0.59,
304,-0.23,0.61,
305,-0.22,0.655,
306,-0.185,0.67,
307,-0.105,0.665,
308,0.015,0.625,
309,0.16,0.585,
310,0.315,0.55,
311,0.485,0.535,
312,0.645,0.51,
313,0.765,0.445,N
314,0.815,0.38,
315,0.8,0.32,
316,0.675,0.31,
317,0.545,0.32,
318,0.365,0.355,
319,0.06,0.38,
320,-0.285,0.44,
321,-0.575,0.465,
322,-0.77,0.515,
323,-0.8,0.585,
324,-0.735,0.675,
325,-0.645,0.745,
326,-0.555,0.785,
327,-0.48,0.79,
328,-0.42,0.815,
329,-0.345,0.825,
330,-0.27,0.82,
331,-0.245,0.825,
332,-0.225,0.825,
333,-0.23,0.81,
334,-0.225,0.815,
335,-0.205,0.845,
336,-0.175,0.855,
337,-0.175,0.86,
338,-0.18,0.845,
339,-0.19,0.83,
340,-0.19,0.835,
341,-0.17,0.85,
342,-0.15,0.87,
343,-0.14,0.865,
344,-0.145,0.855,
345,-0.145,0.845,
346,-0.145,0.835,
347,-0.13,0.845,
348,-0.115,0.86,
349,-0.105,0.855,
350,-0.105,0.83,
351,-0.1,0.83,
352,-0.09,0.83,
353,-0.07,0.855,
354,-0.05,0.88,
355,-0.03,0.85,
356,-0.025,0.83,
357,-0.04,0.815,
358,-0.02,0.82,
359,0.015,0.83,
360,0.05,0.855,
361,0.07,0.845,
362,0.085,0.82,
363,0.065,0.805,
364,0.09,0.81,
365,0.11,0.81,
366,0.13,0.82,
367,0.15,0.81,
368,0.155,0.79,
369,0.165,0.77,
370,0.175,0.785,
371,0.175,0.79,
372,0.195,0.795,
373,0.215,0.805,
374,0.215,0.77,
375,0.205,0.755,
376,0.19,0.775,
377,0.22,0.79,
378,0.25,0.8,
379,0.25,0.78,
380,0.21,0.765,
381,0.195,0.76,
382,0.175,0.785,
383,0.185,0.78,
384,0.21,0.775,
385,0.195,0.77,
386,0.185,0.75,
387,0.14,0.765,
388,0.125,0.765,
389,0.11,0.795,
390,0.1,0.795,
391,0.08,0.785,
392,0.06,0.785,
393,0.025,0.775,
394,-0.02,0.775,
395,-0.03,0.785,
396,-0.045,0.795,
397,-0.065,0.795,
398,-0.09,0.795,
399,-0.11,0.775,
400,-0.11,0.77,
401,-0.115,0.79,
402,-0.125,0.805,
403,-0.14,0.795,
404,-0.16,0.785,
405,-0.18,0.765,
406,-0.185,0.775,
407,-0.185,0.785,
408,-0.175,0.8,
409,-0.185,0.78,
410,-0.21,0.76,
411,-0.225,0.755,
412,-0.21,0.775,
413,-0.205,0.785,
414,-0.2,0.8,
415,-0.225,0.79,
416,-0.22,0.75,
417,-0.235,0.73,
418,-0.235,0.74,
419,-0.23,0.76,
420,-0.21,0.77,
421,-0.195,0.765,
422,-0.2,0.74,
423,-0.23,0.74,
424,-0.225,0.74,
425,-0.2,0.75,
426,-0.185,0.765,
427,-0.19,0.76,
428,-0.195,0.75,
429,-0.21,0.73,
430,-0.185,0.745,
431,-0.175,0.77,
432,-0.16,0.78,
433,-0.165,0.75,
434,-0.195,0.745,
435,-0.185,0.73,
436,-0.17,0.75,
437,-0.15,0.755,
438,-0.12,0.755,
439,-0.105,0.75,
440,-0.105,0.74,
441,-0.11,0.725,
442,-0.12,0.73,
443,-0.125,0.72,
444,-0.145,0.7,
445,-0.155,0.705,
446,-0.18,0.675,
447,-0.2,0.665,
448,-0.205,0.68,
449,-0.2,0.69,
450,-0.2,0.695,
451,-0.215,0.675,
452,-0.225,0.66,
453,-0.23,0.66,
454,-0.23,0.675,
455,-0.205,0.69,
456,-0.195,0.715,
457,-0.215,0.715,
458,-0.24,0.69,
459,-0.27,0.67,
460,-0.28,0.665,
461,-0.265,0.68,
462,-0.24,0.685,
463,-0.25,0.675,
464,-0.25,0.665,
465,-0.27,0.67,
466,-0.275,0.665,
467,-0.26,0.68,
468,-0.23,0.695,
469,-0.22,0.68,
470,-0.24,0.66,
471,-0.26,0.655,
472,-0.26,0.665,
473,-0.25,0.69,
474,-0.24,0.685,
475,-0.245,0.675,
476,-0.25,0.655,
477,-0.255,0.645,
478,-0.25,0.65,
479,-0.255,0.665,
480,-0.235,0.665,
481,-0.235,0.655,
482,-0.25,0.64,
483,-0.255,0.625,
484,-0.255,0.625,
485,-0.24,0.64,
486,-0.22,0.65,
487,-0.21,0.645,
488,-0.22,0.62,
489,-0.24,0.615,
490,-0.24,0.635,
491,-0.245,0.645,
492,-0.26,0.635,
493,-0.285,0.65,
494,-0.285,0.655,
495,-0.26,0.645,
496,-0.18,0.655,
497,-0.035,0.635,
498,0.125,0.59,
499,0.26,0.53,
500,0.37,0.485,
501,0.5,0.415,
502,0.605,0.37,
503,0.68,0.32,N
504,0.725,0.26,
505,0.675,0.21,
506,0.535,0.165,
507,0.365,0.15,
508,0.18,0.175,
509,-0.07,0.23,
510,-0.35,0.275,
511,-0.61,0.315,
512,-0.795,0.33,
513,-0.86,0.38,
514,-0.8,0.45,
515,-0.685,0.54,
516,-0.59,0.585,
517,-0.52,0.615,
518,-0.465,0.595,
519,-0.43,0.6,
520,-0.36,0.6,
521,-0.31,0.59,
522,-0.27,0.595,
523,-0.255,0.575,
524,-0.27,0.57,
525,-0.24,0.57,
526,-0.24,0.58,
527,-0.225,0.59,
528,-0.215,0.605,
529,-0.21,0.575,
530,-0.205,0.56,
531,-0.225,0.54,
532,-0.215,0.555,
533,-0.2,0.57,
534,-0.18,0.585,
535,-0.17,0.575,
536,-0.165,0.54,
537,-0.18,0.54,
538,-0.165,0.545,
539,-0.15,0.565,
540,-0.13,0.58,
541,-0.135,0.56,
542,-0.14,0.54,
543,-0.13,0.53,
544,-0.12,0.53,
545,-0.095,0.545,
546,-0.075,0.56,
547,-0.06,0.53,
548,-0.055,0.525,
549,-0.07,0.515,
550,-0.055,0.505,
551,-0.045,0.52,
552,-0.01,0.52,
553,-0.01,0.5,
554,0.0,0.5,
555,0.015,0.5,
556,0.03,0.505,
557,0.055,0.505,
558,0.095,0.485,
559,0.115,0.45,
560,0.125,0.44,
561,0.12,0.44,
562,0.125,0.435,
563,0.14,0.455,
564,0.17,0.46,
565,0.18,0.43,
566,0.185,0.43,
567,0.185,0.42,
568,0.18,0.42,
569,0.185,0.435,
570,0.2,0.44,
571,0.195,0.425,
572,0.2,0.43,
573,0.19,0.415,
574,0.19,0.43,
575,0.205,0.435,
576,0.215,0.44,
577,0.205,0.435,
578,0.18,0.42,
579,0.16,0.42,
580,0.14,0.43,
581,0.13,0.445,
582,0.135,0.46,
583,0.125,0.44,
584,0.105,0.435,
585,0.075,0.43,
586,0.03,0.44,
587,0.025,0.46,
588,0.005,0.465,
589,-0.01,0.48,
590,-0.025,0.44,
591,-0.065,0.46,
592,-0.085,0.465,
593,-0.085,0.475,
594,-0.08,0.475,
595,-0.095,0.46,
596,-0.12,0.46,
597,-0.14,0.45,
598,-0.16,0.445,
599,-0.16,0.46,
600,-0.15,0.465,
601,-0.17,0.465,
602,-0.185,0.445,
603,-0.195,0.45,
604,-0.195,0.46,
605,-0.2,0.46,
606,-0.2,0.48,
607,-0.205,0.47,
608,-0.21,0.455,
609,-0.23,0.455,
610,-0.23,0.45,
611,-0.225,0.46,
612,-0.205,0.485,
613,-0.205,0.445,
614,-0.215,0.435,
615,-0.23,0.43,
616,-0.23,0.445,
617,-0.225,0.44,
618,-0.22,0.445,
619,-0.22,0.43,
620,-0.23,0.405,
621,-0.245,0.4,
622,-0.245,0.395,
623,-0.235,0.43,
624,-0.215,0.445,
625,-0.2,0.445,
626,-0.2,0.445,
627,-0.225,0.425,
628,-0.21,0.43,
629,-0.2,0.455,
630,-0.2,0.475,
631,-0.175,0.455,
632,-0.18,0.45,
633,-0.185,0.43,
634,-0.18,0.43,
635,-0.155,0.44,
636,-0.145,0.44,
637,-0.13,0.44,
638,-0.135,0.435,
639,-0.12,0.42,
640,-0.13,0.42,
641,-0.12,0.42,
642,-0.125,0.43,
643,-0.14,0.41,
644,-0.165,0.4,
645,-0.19,0.39,
646,-0.215,0.385,
647,-0.21,0.4,
648,-0.205,0.395,
649,-0.2,0.38,
650,-0.22,0.355,
651,-0.245,0.345,
652,-0.245,0.345,
653,-0.245,0.36,
654,-0.24,0.38,
655,-0.23,0.37,
656,-0.23,0.37,
657,-0.24,0.375,
658,-0.255,0.375,
659,-0.25,0.385,
660,-0.245,0.385,
661,-0.24,0.375,
662,-0.255,0.36,
663,-0.27,0.33,
664,-0.27,0.35,
665,-0.26,0.37,
666,-0.265,0.365,
667,-0.255,0.335,
668,-0.245,0.32,
669,-0.275,0.325,
670,-0.285,0.34,
671,-0.285,0.355,
672,-0.275,0.355,
673,-0.285,0.35,
674,-0.29,0.35,
675,-0.315,0.345,
676,-0.325,0.355,
677,-0.295,0.38,
678,-0.265,0.38,
679,-0.27,0.35,
680,-0.285,0.335,
681,-0.305,0.3,
682,-0.3,0.315,
683,-0.27,0.345,
684,-0.25,0.345,
685,-0.245,0.33,
686,-0.265,0.31,
687,-0.285,0.305,
688,-0.285,0.31,
689,-0.26,0.325,
690,-0.235,0.325,
691,-0.235,0.3,
692,-0.265,0.3,
693,-0.3,0.3,
694,-0.3,0.315,
695,-0.3,0.335,
696,-0.285,0.37,
697,-0.285,0.37,
698,-0.235,0.385,
699,-0.17,0.345,
700,-0.04,0.305,
701,0.115,0.23,
702,0.255,0.165,
703,0.4,0.075,
704,0.495,0.005,N
705,0.55,-0.065,
706,0.53,-0.11,
707,0.43,-0.11,
708,0.315,-0.1,
709,0.12,-0.09,
710,-0.16,-0.08,
711,-0.45,-0.04,
712,-0.695,0.025,
713,-0.85,0.09,
714,-0.905,0.14,
715,-0.84,0.185,
716,-0.75,0.22,
717,-0.67,0.23,
718,-0.59,0.245,
719,-0.505,0.285,
720,-0.41,0.28,
721,-0.345,0.265,
722,-0.32,0.25,
723,-0.3,0.245,
724,-0.305,0.26,
725,-0.285,0.26,
726,-0.26,0.26,
727,-0.25,0.26,
728,-0.26,0.26,
729,-0.27,0.255,
730,-0.26,0.275,
731,-0.26,0.295,
732,-0.24,0.315,
733,-0.215,0.29,
734,-0.23,0.255,
735,-0.225,0.25,
736,-0.215,0.25,
737,-0.18,0.265,
738,-0.145,0.265,
739,-0.165,0.245,
740,-0.19,0.225,
741,-0.195,0.235,
742,-0.16,0.235,
743,-0.125,0.25,
744,-0.1,0.255,
745,-0.11,0.24,
746,-0.115,0.23,
747,-0.12,0.215,
748,-0.11,0.24,
749,-0.075,0.255,
750,-0.05,0.24,
751,-0.04,0.24,
752,-0.05,0.21,
753,-0.025,0.195,
754,-0.01,0.19,
755,0.025,0.225,
756,0.055,0.22,
757,0.055,0.2,
758,0.07,0.165,
759,0.055,0.17,
760,0.055,0.19,
761,0.08,0.21,
762,0.105,0.215,
763,0.12,0.19,
764,0.125,0.16,
765,0.115,0.165,
766,0.115,0.175,
767,0.13,0.185,
768,0.14,0.205,
769,0.145,0.175,
770,0.13,0.17,
771,0.125,0.165,
772,0.14,0.16,
773,0.15,0.185,
774,0.145,0.19,
775,0.135,0.185,
776,0.12,0.17,
777,0.1,0.165,
778,0.095,0.18,
779,0.095,0.21,
780,0.09,0.225,
781,0.075,0.215,
782,0.04,0.205,
783,0.01,0.195,
784,-0.02,0.215,
785,-0.035,0.23,
786,-0.04,0.24,
787,-0.07,0.215,
788,-0.1,0.195,
789,-0.14,0.2,
790,-0.15,0.205,
791,-0.15,0.24,
792,-0.135,0.245,
793,-0.135,0.22,
794,-0.165,0.205,
795,-0.215,0.2,
796,-0.225,0.22,
797,-0.205,0.23,
798,-0.19,0.26,
799,-0.195,0.24,
800,-0.205,0.215,
801,-0.23,0.2,
802,-0.245,0.215,
803,-0.245,0.225,
804,-0.255,0.255,
805,-0.255,0.25,
806,-0.255,0.23,
807,-0.265,0.21,
808,-0.255,0.205,
809,-0.24,0.215,
810,-0.23,0.235,
811,-0.235,0.235,
812,-0.245,0.21,
813,-0.27,0.22,
814,-0.28,0.22,
815,-0.26,0.24,
816,-0.25,0.24,
817,-0.25,0.215,
818,-0.255,0.195,
819,-0.265,0.205,
820,-0.26,0.22,
821,-0.24,0.23,
822,-0.22,0.24,
823,-0.21,0.21,
824,-0.23,0.2,
825,-0.235,0.215,
826,-0.245,0.225,
827,-0.22,0.24,
828,-0.195,0.235,
829,-0.195,0.235,
830,-0.195,0.215,
831,-0.19,0.22,
832,-0.185,0.225,
833,-0.195,0.23,
834,-0.175,0.25,
835,-0.17,0.255,
836,-0.16,0.23,
837,-0.15,0.215,
838,-0.145,0.21,
839,-0.155,0.195,
840,-0.15,0.18,
841,-0.185,0.17,
842,-0.22,0.15,
843,-0.245,0.14,
844,-0.245,0.16,
845,-0.23,0.16,
846,-0.205,0.195,
847,-0.215,0.19,
848,-0.23,0.165,
849,-0.235,0.145,
850,-0.245,0.15,
851,-0.24,0.175,
852,-0.215,0.2,
853,-0.25,0.165,
854,-0.3,0.145,
855,-0.35,0.13,
856,-0.35,0.16,
857,-0.32,0.175,
858,-0.3,0.185,
859,-0.29,0.18,
860,-0.3,0.17,
861,-0.305,0.16,
862,-0.305,0.17,
863,-0.29,0.185,
864,-0.26,0.195,
865,-0.25,0.185,
866,-0.27,0.17,
867,-0.295,0.16,
868,-0.28,0.17,
869,-0.285,0.18,
870,-0.275,0.2,
871,-0.28,0.19,
872,-0.285,0.165,
873,-0.29,0.16,
874,-0.27,0.155,
875,-0.275,0.165,
876,-0.28,0.175,
877,-0.285,0.165,
878,-0.3,0.145,
879,-0.295,0.13,
880,-0.275,0.155,
881,-0.265,0.16,
882,-0.28,0.175,
883,-0.28,0.15,
884,-0.295,0.16,
885,-0.285,0.135,
886,-0.265,0.165,
887,-0.25,0.165,
888,-0.25,0.185,
889,-0.255,0.185,
890,-0.29,0.165,
891,-0.32,0.17,
892,-0.3,0.205,
893,-0.255,0.235,
894,-0.195,0.215,
895,-0.11,0.165,
896,-0.01,0.11,
897,0.09,0.06,
898,0.2,0.03,
899,0.33,-0.01,
900,0.44,-0.065,
901,0.51,-0.12,N
902,0.525,-0.175,
903,0.48,-0.205,
904,0.395,-0.19,
905,0.285,-0.15,
906,0.115,-0.145,
907,-0.13,-0.135,
908,-0.4,-0.11,
909,-0.65,-0.085,
910,-0.825,-0.025,
911,-0.9,0.025,
912,-0.835,0.065,
913,-0.725,0.105,
914,-0.63,0.125,
915,-0.585,0.14,
916,-0.52,0.15,
917,-0.435,0.15,
918,-0.345,0.16,
919,-0.3,0.135,
920,-0.285,0.125,
921,-0.275,0.105,
922,-0.265,0.14,
923,-0.265,0.15,
924,-0.255,0.16,
925,-0.245,0.155,
926,-0.25,0.145,
927,-0.275,0.13,
928,-0.28,0.12,
929,-0.245,0.16,
930,-0.22,0.165,
931,-0.215,0.16,
932,-0.215,0.145,
933,-0.2,0.135,
934,-0.21,0.145,
935,-0.205,0.145,
936,-0.195,0.17,
937,-0.165,0.14,
938,-0.17,0.155,
939,-0.175,0.125,
940,-0.165,0.125,
941,-0.14,0.125,
942,-0.11,0.14,
943,-0.105,0.12,
944,-0.1,0.13,
945,-0.095,0.115,
946,-0.075,0.115,
947,-0.075,0.125,
948,-0.045,0.135,
949,-0.025,0.125,
950,-0.005,0.11,
951,0.005,0.09,
952,0.005,0.09,
953,0.0,0.1,
954,0.025,0.12,
955,0.03,0.11,
956,0.035,0.09,
957,0.05,0.09,
958,0.07,0.095,
959,0.095,0.09,
960,0.12,0.085,
961,0.12,0.055,
962,0.115,0.025,
963,0.1,0.04,
964,0.1,0.06,
965,0.135,0.075,
966,0.165,0.095,
967,0.165,0.07,
968,0.175,0.05,
969,0.165,0.045,
970,0.175,0.045,
971,0.175,0.055,
972,0.165,0.065,
973,0.16,0.05,
974,0.175,0.04,
975,0.19,0.025,
976,0.18,0.05,
977,0.17,0.065,
978,0.135,0.11,
979,0.095,0.11,
980,0.035,0.095,
981,-0.015,0.095,
982,-0.045,0.095,
983,-0.045,0.12,
984,-0.01,0.135,
985,-0.02,0.125,
986,-0.065,0.1,
987,-0.125,0.065,
988,-0.15,0.1,
989,-0.15,0.14,
990,-0.135,0.15,
991,-0.14,0.14,
992,-0.17,0.105,
993,-0.215,0.085,
994,-0.225,0.105,
995,-0.23,0.135,
996,-0.215,0.135,
997,-0.215,0.125,
998,-0.235,0.115,
999,-0.235,0.095,
1000,-0.205,0.11,
1001,-0.215,0.115,
1002,-0.245,0.11,
1003,-0.26,0.095,
1004,-0.29,0.1,
1005,-0.295,0.105,
1006,-0.275,0.115,
1007,-0.245,0.12,
1008,-0.235,0.115,
1009,-0.26,0.1,
1010,-0.265,0.1,
1011,-0.26,0.12,
1012,-0.25,0.135,
1013,-0.255,0.155,
1014,-0.265,0.115,
1015,-0.265,0.085,
1016,-0.28,0.06,
1017,-0.28,0.08,
1018,-0.275,0.1,
1019,-0.255,0.14,
1020,-0.25,0.13,
1021,-0.25,0.115,
1022,-0.275,0.1,
1023,-0.26,0.085,
1024,-0.25,0.105,
1025,-0.225,0.11,
1026,-0.22,0.13,
1027,-0.225,0.105,
1028,-0.215,0.095,
1029,-0.2,0.105,
1030,-0.21,0.12,
1031,-0.205,0.135,
1032,-0.185,0.125,
1033,-0.18,0.12,
1034,-0.175,0.105,
1035,-0.17,0.125,
1036,-0.155,0.115,
1037,-0.145,0.11,
1038,-0.15,0.105,
1039,-0.18,0.095,
1040,-0.205,0.08,
1041,-0.21,0.075,
1042,-0.2,0.09,
1043,-0.215,0.075,
1044,-0.24,0.05,
1045,-0.27,0.055,
1046,-0.27,0.045,
1047,-0.26,0.055,
1048,-0.235,0.075,
1049,-0.2,0.1,
1050,-0.195,0.085,
1051,-0.205,0.085,
1052,-0.225,0.075,
1053,-0.25,0.07,
1054,-0.255,0.075,
1055,-0.23,0.08,
1056,-0.235,0.09,
1057,-0.255,0.065,
1058,-0.295,0.06,
1059,-0.305,0.065,
1060,-0.3,0.095,
1061,-0.285,0.09,
1062,-0.28,0.095,
1063,-0.27,0.08,
1064,-0.29,0.075,
1065,-0.285,0.075,
1066,-0.285,0.085,
1067,-0.275,0.095,
1068,-0.28,0.1,
1069,-0.27,0.1,
1070,-0.265,0.095,
1071,-0.25,0.11,
1072,-0.245,0.115,
1073,-0.245,0.135,
1074,-0.25,0.11,
1075,-0.275,0.075,
1076,-0.3,0.055,
1077,-0.31,0.06,
1078,-0.3,0.055,
1079,-0.28,0.07,
1080,-0.275,0.065,
1081,-0.265,0.075,
1082,-0.28,0.055,
1083,-0.285,0.075,
1084,-0.26,0.09,
1085,-0.245,0.08,
1086,-0.275,0.09,
1087,-0.29,0.085,
1088,-0.305,0.105,
1089,-0.305,0.115,
1090,-0.27,0.14,
1091,-0.205,0.145,
1092,-0.11,0.105,
1093,0.01,0.06,
1094,0.11,0.01,
1095,0.21,-0.03,
1096,0.355,-0.055,
1097,0.495,-0.115,
1098,0.59,-0.165,N
1099,0.63,-0.245,
1100,0.61,-0.28,
1101,0.49,-0.285,
1102,0.34,-0.255,
1103,0.115,-0.225,
1104,-0.205,-0.185,
1105,-0.53,-0.14,
1106,-0.79,-0.11,
1107,-0.88,-0.075,
1108,-0.835,-0.03,
1109,-0.72,0.045,
1110,-0.61,0.05,
1111,-0.535,0.07,
1112,-0.485,0.085,
1113,-0.43,0.105,
1114,-0.36,0.12,
1115,-0.3,0.115,
1116,-0.285,0.085,
1117,-0.275,0.05,
1118,-0.28,0.05,
1119,-0.27,0.065,
1120,-0.245,0.085,
1121,-0.22,0.1,
1122,-0.215,0.09,
1123,-0.23,0.075,
1124,-0.23,0.065,
1125,-0.235,0.08,
1126,-0.215,0.105,
1127,-0.19,0.1,
1128,-0.18,0.08,
1129,-0.175,0.08,
1130,-0.195,0.07,
1131,-0.19,0.1,
1132,-0.17,0.115,
1133,-0.135,0.105,
1134,-0.13,0.1,
1135,-0.15,0.075,
1136,-0.145,0.075,
1137,-0.14,0.08,
1138,-0.11,0.095,
1139,-0.075,0.095,
1140,-0.065,0.09,
1141,-0.06,0.08,
1142,-0.055,0.07,
1143,-0.04,0.075,
1144,-0.025,0.08,
1145,0.015,0.1,
1146,0.035,0.1,
1147,0.03,0.08,
1148,0.015,0.07,
1149,0.05,0.07,
1150,0.075,0.08,
1151,0.09,0.07,
1152,0.105,0.055,
1153,0.115,0.045,
1154,0.105,0.05,
1155,0.13,0.055,
1156,0.155,0.07,
1157,0.175,0.09,
1158,0.175,0.065,
1159,0.165,0.035,
1160,0.15,0.035,
1161,0.15,0.045,
1162,0.18,0.075,
1163,0.195,0.08,
1164,0.205,0.065,
1165,0.205,0.045,
1166,0.185,0.045,
1167,0.185,0.065,
1168,0.165,0.07,
1169,0.175,0.09,
1170,0.175,0.075,
1171,0.14,0.06,
1172,0.13,0.06,
1173,0.12,0.085,
1174,0.12,0.11,
1175,0.11,0.115,
1176,0.065,0.105,
1177,0.015,0.11,
1178,-0.005,0.105,
1179,-0.03,0.11,
1180,-0.035,0.135,
1181,-0.05,0.14,
1182,-0.055,0.13,
1183,-0.1,0.115,
1184,-0.135,0.11,
1185,-0.15,0.145,
1186,-0.135,0.165,
1187,-0.12,0.17,
1188,-0.14,0.165,
1189,-0.16,0.155,
1190,-0.18,0.12,
1191,-0.185,0.11,
1192,-0.175,0.14,
1193,-0.175,0.145,
1194,-0.18,0.135,
1195,-0.2,0.13,
1196,-0.215,0.125,
1197,-0.21,0.13,
1198,-0.2,0.15,
1199,-0.19,0.145,
1200,-0.195,0.14,
1201,-0.215,0.125,
1202,-0.23,0.12,
1203,-0.245,0.135,
1204,-0.245,0.165,
1205,-0.22,0.155,
1206,-0.2,0.155,
1207,-0.195,0.115,
1208,-0.195,0.12,
1209,-0.215,0.145,
1210,-0.24,0.16,
1211,-0.235,0.16,
1212,-0.23,0.155,
1213,-0.225,0.15,
1214,-0.22,0.145,
1215,-0.215,0.155,
1216,-0.195,0.185,
1217,-0.185,0.175,
1218,-0.2,0.185,
1219,-0.185,0.16,
1220,-0.2,0.16,
1221,-0.205,0.165,
1222,-0.185,0.195,
1223,-0.15,0.19,
1224,-0.145,0.18,
1225,-0.16,0.155,
1226,-0.16,0.155,
1227,-0.155,0.165,
1228,-0.145,0.175,
1229,-0.125,0.18,
1230,-0.13,0.16,
1231,-0.16,0.125,
1232,-0.175,0.125,
1233,-0.175,0.135,
1234,-0.165,0.155,
1235,-0.17,0.16,
1236,-0.175,0.135,
1237,-0.19,0.115,
1238,-0.205,0.1,
1239,-0.225,0.11,
1240,-0.22,0.12,
1241,-0.215,0.145,
1242,-0.215,0.145,
1243,-0.215,0.13,
1244,-0.205,0.14,
1245,-0.22,0.145,
1246,-0.225,0.16,
1247,-0.225,0.16,
1248,-0.24,0.155,
1249,-0.245,0.135,
1250,-0.255,0.14,
1251,-0.265,0.145,
1252,-0.25,0.16,
1253,-0.23,0.165,
1254,-0.235,0.155,
1255,-0.25,0.16,
1256,-0.26,0.14,
1257,-0.25,0.16,
1258,-0.25,0.17,
1259,-0.235,0.18,
1260,-0.235,0.155,
1261,-0.24,0.13,
1262,-0.25,0.135,
1263,-0.255,0.155,
1264,-0.24,0.165,
1265,-0.24,0.18,
1266,-0.235,0.18,
1267,-0.245,0.155,
1268,-0.25,0.145,
1269,-0.25,0.15,
1270,-0.23,0.165,
1271,-0.225,0.155,
1272,-0.23,0.155,
1273,-0.23,0.15,
1274,-0.24,0.145,
1275,-0.25,0.155,
1276,-0.23,0.16,
1277,-0.205,0.165,
1278,-0.205,0.15,
1279,-0.205,0.125,
1280,-0.24,0.14,
1281,-0.26,0.155,
1282,-0.28,0.18,
1283,-0.265,0.18,
1284,-0.265,0.185,
1285,-0.265,0.18,
1286,-0.23,0.19,
1287,-0.115,0.155,
1288,0.035,0.16,
1289,0.185,0.125,
1290,0.31,0.09,
1291,0.41,0.045,
1292,0.52,-0.02,
1293,0.63,-0.08,
1294,0.73,-0.125,N
1295,0.795,-0.18,
1296,0.75,-0.225,
1297,0.625,-0.245,
1298,0.48,-0.245,
1299,0.285,-0.24,
1300,-0.01,-0.19,
1301,-0.295,-0.15,
1302,-0.56,-0.13,
1303,-0.76,-0.115,
1304,-0.84,-0.085,
1305,-0.825,-0.005,
1306,-0.71,0.095,
1307,-0.615,0.145,
1308,-0.545,0.145,
1309,-0.48,0.135,
1310,-0.42,0.135,
1311,-0.36,0.155,
1312,-0.31,0.16,
1313,-0.27,0.155,
1314,-0.25,0.165,
1315,-0.235,0.145,
1316,-0.255,0.135,
1317,-0.245,0.15,
1318,-0.235,0.165,
1319,-0.2,0.17,
1320,-0.195,0.17,
1321,-0.2,0.165,
1322,-0.215,0.145,
1323,-0.215,0.155,
1324,-0.185,0.16,
1325,-0.17,0.155,
1326,-0.165,0.155,
1327,-0.185,0.14,
1328,-0.23,0.135,
1329,-0.205,0.165,
1330,-0.19,0.17,
1331,-0.155,0.16,
1332,-0.13,0.145,
1333,-0.13,0.115,
1334,-0.115,0.105,
1335,-0.11,0.13,
1336,-0.1,0.155,
1337,-0.09,0.16,
1338,-0.065,0.135,
1339,-0.06,0.115,
1340,-0.05,0.1,
1341,-0.04,0.105,
1342,-0.03,0.115,
1343,-0.01,0.14,
1344,0.0,0.125,
1345,0.03,0.11,
1346,0.045,0.09,
1347,0.055,0.1,
1348,0.09,0.105,
1349,0.09,0.115,
1350,0.08,0.105,
1351,0.08,0.085,
1352,0.08,0.085,
1353,0.095,0.1,
1354,0.105,0.12,
1355,0.14,0.115,
1356,0.15,0.1,
1357,0.175,0.05,
1358,0.175,0.045,
1359,0.185,0.06,
1360,0.195,0.075,
1361,0.22,0.1,
1362,0.215,0.09,
1363,0.21,0.08,
1364,0.205,0.055,
1365,0.195,0.06,
1366,0.195,0.1,
1367,0.195,0.1,
1368,0.175,0.095,
1369,0.16,0.075,
1370,0.145,0.08,
1371,0.095,0.095,
1372,0.08,0.14,
1373,0.06,0.17,
1374,0.02,0.15,
1375,0.005,0.115,
1376,-0.005,0.08,
1377,-0.04,0.1,
1378,-0.05,0.13,
1379,-0.065,0.16,
1380,-0.11,0.145,
1381,-0.13,0.135,
1382,-0.165,0.13,
1383,-0.175,0.135,
1384,-0.185,0.145,
1385,-0.18,0.135,
1386,-0.18,0.145,
1387,-0.2,0.14,
1388,-0.23,0.13,
1389,-0.25,0.135,
1390,-0.265,0.16,
1391,-0.24,0.16,
1392,-0.235,0.145,
1393,-0.25,0.13,
1394,-0.265,0.1,
1395,-0.255,0.135,
1396,-0.245,0.16,
1397,-0.235,0.155,
1398,-0.245,0.14,
1399,-0.26,0.125,
1400,-0.27,0.115,
1401,-0.275,0.14,
1402,-0.27,0.165,
1403,-0.265,0.155,
1404,-0.275,0.16,
1405,-0.285,0.13,
1406,-0.29,0.13,
1407,-0.27,0.14,
1408,-0.245,0.15,
1409,-0.225,0.155,
1410,-0.235,0.165,
1411,-0.26,0.145,
1412,-0.275,0.155,
1413,-0.27,0.18,
1414,-0.25,0.185,
1415,-0.23,0.185,
1416,-0.22,0.165,
1417,-0.22,0.15,
1418,-0.215,0.16,
1419,-0.19,0.165,
1420,-0.155,0.175,
1421,-0.145,0.18,
1422,-0.17,0.175,
1423,-0.195,0.155,
1424,-0.205,0.145,
1425,-0.21,0.16,
1426,-0.215,0.15,
1427,-0.215,0.13,
1428,-0.22,0.12,
1429,-0.235,0.1,
1430,-0.25,0.095,
1431,-0.275,0.125,
1432,-0.27,0.12,
1433,-0.26,0.135,
1434,-0.265,0.12,
1435,-0.265,0.115,
1436,-0.28,0.13,
1437,-0.29,0.145,
1438,-0.29,0.145,
1439,-0.295,0.14,
1440,-0.305,0.135,
1441,-0.305,0.12,
1442,-0.32,0.11,
1443,-0.32,0.115,
1444,-0.285,0.135,
1445,-0.27,0.145,
1446,-0.295,0.145,
1447,-0.32,0.125,
1448,-0.36,0.125,
1449,-0.355,0.14,
1450,-0.325,0.15,
1451,-0.29,0.155,
1452,-0.29,0.135,
1453,-0.315,0.13,
1454,-0.33,0.11,
1455,-0.335,0.135,
1456,-0.315,0.125,
1457,-0.285,0.155,
1458,-0.275,0.13,
1459,-0.295,0.135,
1460,-0.3,0.12,
1461,-0.315,0.135,
1462,-0.305,0.15,
1463,-0.285,0.155,
1464,-0.285,0.135,
1465,-0.3,0.115,
1466,-0.295,0.115,
1467,-0.3,0.105,
1468,-0.28,0.125,
1469,-0.265,0.115,
1470,-0.295,0.11,
1471,-0.32,0.115,
1472,-0.345,0.14,
1473,-0.335,0.155,
1474,-0.275,0.18,
1475,-0.18,0.16,
1476,-0.045,0.105,
1477,0.095,0.04,
1478,0.235,0.0,
1479,0.37,-0.045,
1480,0.515,-0.085,
1481,0.63,-0.135,N
1482,0.69,-0.205,
1483,0.685,-0.29,
1484,0.56,-0.325,
1485,0.42,-0.32,
1486,0.23,-0.29,
1487,-0.04,-0.24,
1488,-0.38,-0.21,
1489,-0.68,-0.175,
1490,-0.895,-0.145,
1491,-0.94,-0.065,
1492,-0.84,0.045,
1493,-0.685,0.1,
1494,-0.585,0.135,
1495,-0.525,0.13,
1496,-0.48,0.12,
1497,-0.425,0.13,
1498,-0.345,0.145,
1499,-0.285,0.15,
1500,-0.27,0.135,
1501,-0.29,0.12,
1502,-0.305,0.1,
1503,-0.31,0.105,
1504,-0.29,0.14,
1505,-0.255,0.145,
1506,-0.245,0.11,
1507,-0.23,0.085,
1508,-0.22,0.085,
1509,-0.205,0.1,
1510,-0.195,0.13,
1511,-0.205,0.14,
1512,-0.225,0.12,
1513,-0.225,0.115,
1514,-0.225,0.115,
1515,-0.225,0.1,
1516,-0.205,0.12,
1517,-0.17,0.13,
1518,-0.16,0.11,
1519,-0.13,0.095,
1520,-0.115,0.085,
1521,-0.115,0.08,
1522,-0.11,0.09,
1523,-0.1,0.11,
1524,-0.095,0.1,
1525,-0.095,0.095,
1526,-0.075,0.08,
1527,-0.055,0.055,
1528,-0.03,0.07,
1529,-0.02,0.075,
1530,0.0,0.07,
1531,0.0,0.065,
1532,0.01,0.06,
1533,0.04,0.07,
1534,0.08,0.055,
1535,0.1,0.06,
1536,0.095,0.04,
1537,0.12,0.04,
1538,0.12,0.03,
1539,0.15,0.04,
1540,0.165,0.055,
1541,0.18,0.055,
1542,0.17,0.04,
1543,0.155,0.025,
1544,0.125,0.02,
1545,0.13,0.015,
1546,0.135,0.045,
1547,0.145,0.06,
1548,0.155,0.035,
1549,0.15,0.015,
1550,0.135,0.015,
1551,0.095,0.045,
1552,0.095,0.08,
1553,0.1,0.09,
1554,0.065,0.08,
1555,0.03,0.06,
1556,0.0,0.04,
1557,-0.005,0.06,
1558,-0.01,0.085,
1559,-0.025,0.08,
1560,-0.055,0.095,
1561,-0.07,0.075,
1562,-0.09,0.08,
1563,-0.11,0.09,
1564,-0.125,0.105,
1565,-0.145,0.1,
1566,-0.17,0.105,
1567,-0.195,0.095,
1568,-0.225,0.09,
1569,-0.225,0.1,
1570,-0.25,0.115,
1571,-0.235,0.135,
1572,-0.23,0.11,
1573,-0.2,0.09,
1574,-0.21,0.08,
1575,-0.24,0.095,
1576,-0.28,0.1,
1577,-0.27,0.105,
1578,-0.24,0.105,
1579,-0.22,0.09,
1580,-0.22,0.07,
1581,-0.23,0.1,
1582,-0.27,0.13,
1583,-0.305,0.165,
1584,-0.33,0.185,
1585,-0.335,0.165,
1586,-0.32,0.13,
1587,-0.3,0.09,
1588,-0.28,0.095,
1589,-0.3,0.085,
1590,-0.315,0.07,
1591,-0.325,0.07,
1592,-0.335,0.065,
1593,-0.315,0.085,
1594,-0.28,0.105,
1595,-0.26,0.12,
1596,-0.25,0.12,
1597,-0.26,0.1,
1598,-0.27,0.115,
1599,-0.275,0.12,
1600,-0.245,0.13,
1601,-0.23,0.13,
1602,-0.225,0.12,
1603,-0.205,0.1,
1604,-0.2,0.11,
1605,-0.195,0.12,
1606,-0.18,0.13,
1607,-0.185,0.135,
1608,-0.21,0.105,
1609,-0.23,0.09,
1610,-0.255,0.07,
1611,-0.25,0.08,
1612,-0.235,0.105,
1613,-0.22,0.105,
1614,-0.24,0.1,
1615,-0.285,0.095,
1616,-0.315,0.08,
1617,-0.33,0.1,
1618,-0.325,0.105,
1619,-0.305,0.095,
1620,-0.31,0.095,
1621,-0.315,0.075,
1622,-0.305,0.08,
1623,-0.32,0.085,
1624,-0.33,0.105,
1625,-0.325,0.12,
1626,-0.325,0.1,
1627,-0.335,0.1,
1628,-0.335,0.095,
1629,-0.33,0.075,
1630,-0.32,0.095,
1631,-0.305,0.105,
1632,-0.305,0.09,
1633,-0.31,0.075,
1634,-0.33,0.09,
1635,-0.33,0.085,
1636,-0.31,0.095,
1637,-0.3,0.09,
1638,-0.325,0.095,
1639,-0.335,0.105,
1640,-0.335,0.11,
1641,-0.345,0.105,
1642,-0.345,0.12,
1643,-0.345,0.13,
1644,-0.345,0.115,
1645,-0.345,0.11,
1646,-0.35,0.11,
1647,-0.35,0.11,
1648,-0.345,0.115,
1649,-0.315,0.11,
1650,-0.32,0.105,
1651,-0.32,0.095,
1652,-0.33,0.095,
1653,-0.315,0.12,
1654,-0.3,0.11,
1655,-0.275,0.115,
1656,-0.29,0.11,
1657,-0.32,0.095,
1658,-0.345,0.11,
1659,-0.375,0.14,
1660,-0.37,0.165,
1661,-0.325,0.17,
1662,-0.245,0.17,
1663,-0.13,0.095,
1664,-0.015,0.04,
1665,0.12,0.0,
1666,0.295,-0.045,
1667,0.46,-0.095,
1668,0.565,-0.165,
1669,0.625,-0.235,N
1670,0.63,-0.305,
1671,0.54,-0.34,
1672,0.395,-0.31,
1673,0.205,-0.29,
1674,-0.07,-0.255,
1675,-0.43,-0.205,
1676,-0.725,-0.175,
1677,-0.915,-0.125,
1678,-0.97,-0.065,
1679,-0.89,0.02,
1680,-0.76,0.06,
1681,-0.68,0.09,
1682,-0.615,0.105,
1683,-0.54,0.12,
1684,-0.455,0.135,
1685,-0.37,0.13,
1686,-0.34,0.105,
1687,-0.335,0.075,
1688,-0.34,0.08,
1689,-0.34,0.095,
1690,-0.315,0.12,
1691,-0.285,0.13,
1692,-0.285,0.135,
1693,-0.285,0.12,
1694,-0.28,0.115,
1695,-0.275,0.135,
1696,-0.245,0.125,
1697,-0.24,0.12,
1698,-0.24,0.1,
1699,-0.24,0.07,
1700,-0.245,0.075,
1701,-0.23,0.085,
1702,-0.215,0.1,
1703,-0.19,0.085,
1704,-0.195,0.105,
1705,-0.19,0.095,
1706,-0.2,0.105,
1707,-0.185,0.1,
1708,-0.165,0.11,
1709,-0.135,0.095,
1710,-0.115,0.09,
1711,-0.1,0.055,
1712,-0.12,0.075,
1713,-0.125,0.08,
1714,-0.1,0.1,
1715,-0.06,0.085,
1716,-0.055,0.055,
1717,-0.04,0.035,
1718,-0.03,0.055,
1719,-0.02,0.06,
1720,0.025,0.05,
1721,0.065,0.045,
1722,0.09,0.045,
1723,0.07,0.045,
1724,0.07,0.025,
1725,0.08,0.03,
1726,0.105,0.035,
1727,0.135,0.025,
1728,0.145,0.03,
1729,0.115,0.015,
1730,0.12,0.025,
1731,0.115,0.045,
1732,0.12,0.05,
1733,0.145,0.055,
1734,0.15,0.035,
1735,0.145,0.02,
1736,0.12,0.035,
1737,0.115,0.055,
1738,0.125,0.065,
1739,0.125,0.075,
1740,0.115,0.065,
1741,0.075,0.055,
1742,0.05,0.035,
1743,0.025,0.045,
1744,0.01,0.07,
1745,0.01,0.09,
1746,-0.01,0.085,
1747,-0.04,0.075,
1748,-0.075,0.07,
1749,-0.1,0.1,
1750,-0.13,0.13,
1751,-0.155,0.12,
1752,-0.165,0.08,
1753,-0.185,0.08,
1754,-0.205,0.11,
1755,-0.215,0.125,
1756,-0.225,0.12,
1757,-0.23,0.115,
1758,-0.225,0.11,
1759,-0.245,0.115,
1760,-0.28,0.125,
1761,-0.285,0.12,
1762,-0.275,0.125,
1763,-0.25,0.115,
1764,-0.25,0.12,
1765,-0.26,0.095,
1766,-0.295,0.11,
1767,-0.29,0.12,
1768,-0.28,0.135,
1769,-0.275,0.145,
1770,-0.27,0.14,
1771,-0.285,0.1,
1772,-0.3,0.09,
1773,-0.295,0.1,
1774,-0.28,0.11,
1775,-0.26,0.13,
1776,-0.26,0.115,
1777,-0.265,0.1,
1778,-0.27,0.1,
1779,-0.265,0.12,
1780,-0.25,0.145,
1781,-0.25,0.14,
1782,-0.26,0.125,
1783,-0.305,0.11,
1784,-0.325,0.135,
1785,-0.315,0.155,
1786,-0.27,0.18,
1787,-0.23,0.17,
1788,-0.23,0.155,
1789,-0.23,0.155,
1790,-0.21,0.135,
1791,-0.21,0.14,
1792,-0.185,0.155,
1793,-0.15,0.15,
1794,-0.15,0.125,
1795,-0.17,0.105,
1796,-0.205,0.11,
1797,-0.24,0.12,
1798,-0.255,0.125,
1799,-0.24,0.115,
1800,-0.25,0.095,
1801,-0.265,0.095,
1802,-0.32,0.115,
1803,-0.34,0.13,
1804,-0.33,0.14,
1805,-0.31,0.135,
1806,-0.3,0.125,
1807,-0.29,0.085,
1808,-0.295,0.095,
1809,-0.315,0.11,
1810,-0.315,0.135,
1811,-0.335,0.125,
1812,-0.315,0.135,
1813,-0.335,0.14,
1814,-0.34,0.13,
1815,-0.35,0.13,
1816,-0.355,0.135,
1817,-0.35,0.14,
1818,-0.34,0.125,
1819,-0.355,0.1,
1820,-0.375,0.125,
1821,-0.345,0.12,
1822,-0.34,0.12,
1823,-0.325,0.11,
1824,-0.33,0.105,
1825,-0.33,0.08,
1826,-0.355,0.085,
1827,-0.36,0.095,
1828,-0.345,0.12,
1829,-0.33,0.115,
1830,-0.325,0.12,
1831,-0.325,0.1,
1832,-0.325,0.11,
1833,-0.31,0.105,
1834,-0.31,0.115,
1835,-0.305,0.135,
1836,-0.31,0.115,
1837,-0.325,0.105,
1838,-0.355,0.12,
1839,-0.365,0.13,
1840,-0.355,0.145,
1841,-0.33,0.13,
1842,-0.32,0.11,
1843,-0.335,0.1,
1844,-0.36,0.135,
1845,-0.375,0.15,
1846,-0.37,0.185,
1847,-0.305,0.185,
1848,-0.23,0.16,
1849,-0.135,0.1,
1850,-0.03,0.045,
1851,0.095,-0.015,
1852,0.23,-0.04,
1853,0.36,-0.1,
1854,0.425,-0.16,N
1855,0.49,-0.205,
1856,0.52,-0.255,
1857,0.465,-0.255,
1858,0.37,-0.24,
1859,0.19,-0.21,
1860,-0.115,-0.195,
1861,-0.47,-0.15,
1862,-0.775,-0.13,
1863,-0.96,-0.08,
1864,-0.98,-0.005,
1865,-0.89,0.07,
1866,-0.775,0.125,
1867,-0.665,0.105,
1868,-0.565,0.105,
1869,-0.45,0.115,
1870,-0.39,0.115,
1871,-0.37,0.12,
1872,-0.36,0.09,
1873,-0.365,0.085,
1874,-0.345,0.07,
1875,-0.33,0.08,
1876,-0.32,0.125,
1877,-0.305,0.135,
1878,-0.29,0.115,
1879,-0.295,0.08,
1880,-0.295,0.065,
1881,-0.29,0.1,
1882,-0.285,0.115,
1883,-0.26,0.105,
1884,-0.255,0.105,
1885,-0.25,0.1,
1886,-0.26,0.095,
1887,-0.26,0.105,
1888,-0.235,0.11,
1889,-0.21,0.105,
1890,-0.21,0.095,
1891,-0.215,0.085,
1892,-0.225,0.07,
1893,-0.205,0.07,
1894,-0.17,0.085,
1895,-0.135,0.075,
1896,-0.115,0.06,
1897,-0.12,0.045,
1898,-0.12,0.045,
1899,-0.12,0.065,
1900,-0.09,0.085,
1901,-0.055,0.06,
1902,-0.04,0.04,
1903,-0.035,0.035,
1904,-0.05,0.035,
1905,-0.045,0.085,
1906,-0.025,0.09,
1907,0.015,0.09,
1908,0.045,0.07,
1909,0.05,0.07,
1910,0.05,0.035,
1911,0.065,0.025,
1912,0.09,0.03,
1913,0.13,0.03,
1914,0.135,0.01,
1915,0.115,0.02,
1916,0.085,0.005,
1917,0.085,0.03,
1918,0.105,0.035,
1919,0.115,0.035,
1920,0.115,0.01,
1921,0.095,0.005,
1922,0.07,-0.005,
1923,0.055,0.025,
1924,0.07,0.03,
1925,0.08,0.035,
1926,0.075,0.04,
1927,0.05,0.035,
1928,0.025,0.035,
1929,0.025,0.06,
1930,0.015,0.09,
1931,0.01,0.085,
1932,-0.015,0.08,
1933,-0.05,0.07,
1934,-0.08,0.07,
1935,-0.075,0.06,
1936,-0.07,0.06,
1937,-0.105,0.075,
1938,-0.195,0.085,
1939,-0.295,0.105,
1940,-0.315,0.105,
1941,-0.29,0.125,
1942,-0.275,0.12,
1943,-0.265,0.14,
1944,-0.27,0.135,
1945,-0.27,0.12,
1946,-0.285,0.105,
1947,-0.295,0.1,
1948,-0.305,0.11,
1949,-0.3,0.115,
1950,-0.3,0.12,
1951,-0.315,0.115,
1952,-0.32,0.11,
1953,-0.32,0.13,
1954,-0.315,0.135,
1955,-0.28,0.15,
1956,-0.265,0.14,
1957,-0.25,0.11,
1958,-0.28,0.075,
1959,-0.325,0.075,
1960,-0.345,0.11,
1961,-0.34,0.125,
1962,-0.345,0.135,
1963,-0.34,0.115,
1964,-0.355,0.105,
1965,-0.335,0.115,
1966,-0.305,0.115,
1967,-0.29,0.13,
1968,-0.295,0.115,
1969,-0.295,0.12,
1970,-0.295,0.135,
1971,-0.28,0.15,
1972,-0.26,0.165,
1973,-0.265,0.16,
1974,-0.285,0.15,
1975,-0.295,0.145,
1976,-0.3,0.14,
1977,-0.28,0.145,
1978,-0.24,0.165,
1979,-0.215,0.17,
1980,-0.225,0.155,
1981,-0.22,0.135,
1982,-0.235,0.11,
1983,-0.235,0.12,
1984,-0.235,0.1,
1985,-0.24,0.095,
1986,-0.255,0.085,
1987,-0.265,0.065,
1988,-0.295,0.07,
1989,-0.3,0.06,
1990,-0.3,0.07,
1991,-0.29,0.08,
1992,-0.275,0.085,
1993,-0.28,0.07,
1994,-0.275,0.07,
1995,-0.285,0.09,
1996,-0.305,0.11,
1997,-0.32,0.14,
1998,-0.33,0.125,
1999,-0.345,0.09,
2000,-0.34,0.07,
2001,-0.35,0.08,
2002,-0.34,0.12,
2003,-0.325,0.125,
2004,-0.325,0.105,
2005,-0.34,0.075,
2006,-0.345,0.075,
2007,-0.335,0.085,
2008,-0.315,0.11,
2009,-0.305,0.11,
2010,-0.305,0.095,
2011,-0.325,0.1,
2012,-0.355,0.09,
2013,-0.335,0.1,
2014,-0.32,0.11,
2015,-0.295,0.09,
2016,-0.295,0.11,
2017,-0.335,0.095,
2018,-0.365,0.08,
2019,-0.37,0.105,
2020,-0.35,0.145,
2021,-0.335,0.14,
2022,-0.335,0.115,
2023,-0.32,0.08,
2024,-0.355,0.06,
2025,-0.355,0.09,
2026,-0.34,0.1,
2027,-0.325,0.11,
2028,-0.335,0.09,
2029,-0.345,0.08,
2030,-0.34,0.08,
2031,-0.33,0.105,
2032,-0.335,0.1,
2033,-0.345,0.12,
2034,-0.355,0.115,
2035,-0.345,0.11,
2036,-0.26,0.105,
2037,-0.135,0.08,
2038,0.005,0.05,
2039,0.18,-0.025,
2040,0.325,-0.09,
2041,0.47,-0.19,
2042,0.54,-0.22,N
2043,0.55,-0.255,
2044,0.46,-0.26,
2045,0.34,-0.255,
2046,0.145,-0.24,
2047,-0.13,-0.23,
2048,-0.445,-0.18,
2049,-0.74,-0.125,
2050,-0.92,-0.07,
2051,-0.95,-0.035,
2052,-0.865,0.015,
2053,-0.755,0.065,
2054,-0.675,0.085,
2055,-0.595,0.1,
2056,-0.515,0.1,
2057,-0.435,0.105,
2058,-0.415,0.11,
2059,-0.4,0.105,
2060,-0.385,0.095,
2061,-0.365,0.09,
2062,-0.355,0.105,
2063,-0.315,0.105,
2064,-0.31,0.095,
2065,-0.305,0.075,
2066,-0.305,0.065,
2067,-0.3,0.1,
2068,-0.29,0.115,
2069,-0.275,0.125,
2070,-0.26,0.105,
2071,-0.26,0.065,
2072,-0.255,0.07,
2073,-0.255,0.075,
2074,-0.225,0.075,
2075,-0.21,0.07,
2076,-0.225,0.06,
2077,-0.245,0.05,
2078,-0.25,0.05,
2079,-0.235,0.095,
2080,-0.225,0.09,
2081,-0.195,0.095,
2082,-0.19,0.075,
2083,-0.185,0.065,
2084,-0.17,0.075,
2085,-0.15,0.08,
2086,-0.125,0.1,
2087,-0.1,0.08,
2088,-0.08,0.045,
2089,-0.065,0.045,
2090,-0.06,0.045,
2091,-0.035,0.055,
2092,0.0,0.055,
2093,0.03,0.05,
2094,0.05,0.02,
2095,0.065,0.025,
2096,0.07,0.015,
2097,0.085,0.02,
2098,0.115,0.04,
2099,0.135,0.015,
2100,0.13,-0.01,
2101,0.11,-0.015,
2102,0.08,0.0,
2103,0.06,0.005,
2104,0.075,0.05,
2105,0.09,0.045,
2106,0.09,0.04,
2107,0.095,0.04,
2108,0.085,0.055,
2109,0.07,0.085,
2110,0.08,0.085,
2111,0.07,0.04,
2112,0.06,0.005,
2113,0.03,0.015,
2114,-0.01,0.03,
2115,-0.035,0.04,
2116,-0.04,0.065,
2117,-0.045,0.075,
2118,-0.075,0.09,
2119,-0.115,0.065,
2120,-0.16,0.07,
2121,-0.185,0.075,
2122,-0.185,0.09,
2123,-0.195,0.1,
2124,-0.2,0.085,
2125,-0.205,0.075,
2126,-0.215,0.05,
2127,-0.24,0.07,
2128,-0.24,0.09,
2129,-0.24,0.095,
2130,-0.255,0.09,
2131,-0.27,0.075,
2132,-0.29,0.08,
2133,-0.275,0.09,
2134,-0.28,0.115,
2135,-0.275,0.13,
2136,-0.28,0.12,
2137,-0.28,0.09,
2138,-0.31,0.075,
2139,-0.35,0.115,
2140,-0.365,0.12,
2141,-0.33,0.115,
2142,-0.31,0.08,
2143,-0.31,0.055,
2144,-0.335,0.06,
2145,-0.325,0.095,
2146,-0.325,0.12,
2147,-0.32,0.115,
2148,-0.33,0.085,
2149,-0.345,0.085,
2150,-0.35,0.095,
2151,-0.325,0.105,
2152,-0.3,0.12,
2153,-0.27,0.12,
2154,-0.275,0.13,
2155,-0.285,0.135,
2156,-0.31,0.105,
2157,-0.275,0.115,
2158,-0.245,0.145,
2159,-0.235,0.13,
2160,-0.235,0.125,
2161,-0.23,0.08,
2162,-0.21,0.075,
2163,-0.2,0.09,
2164,-0.215,0.09,
2165,-0.24,0.085,
2166,-0.285,0.075,
2167,-0.295,0.055,
2168,-0.29,0.04,
2169,-0.28,0.055,
2170,-0.27,0.065,
2171,-0.25,0.075,
2172,-0.27,0.065,
2173,-0.305,0.055,
2174,-0.255,0.08,
2175,-0.235,0.095,
2176,-0.235,0.095,
2177,-0.3,0.1,
2178,-0.365,0.055,
2179,-0.395,0.045,
2180,-0.415,0.075,
2181,-0.435,0.095,
2182,-0.425,0.115,
2183,-0.385,0.125,
2184,-0.365,0.1,
2185,-0.37,0.07,
2186,-0.385,0.08,
2187,-0.37,0.11,
2188,-0.35,0.11,
2189,-0.34,0.07,
2190,-0.325,0.05,
2191,-0.32,0.03,
2192,-0.32,0.045,
2193,-0.31,0.06,
2194,-0.295,0.085,
2195,-0.29,0.105,
2196,-0.325,0.095,
2197,-0.36,0.095,
2198,-0.365,0.075,
2199,-0.345,0.08,
2200,-0.36,0.105,
2201,-0.365,0.135,
2202,-0.38,0.145,
2203,-0.39,0.115,
2204,-0.39,0.07,
2205,-0.385,0.06,
2206,-0.355,0.065,
2207,-0.345,0.1,
2208,-0.365,0.11,
2209,-0.39,0.075,
2210,-0.38,0.06,
2211,-0.375,0.055,
2212,-0.38,0.08,
2213,-0.36,0.115,
2214,-0.34,0.13,
2215,-0.29,0.08,
2216,-0.17,0.02,
2217,-0.02,-0.025,
2218,0.145,-0.06,
2219,0.31,-0.08,
2220,0.455,-0.14,
2221,0.565,-0.21,N
2222,0.635,-0.295,
2223,0.645,-0.335,
2224,0.565,-0.35,
2225,0.41,-0.345,
2226,0.2,-0.345,
2227,-0.1,-0.335,
2228,-0.445,-0.28,
2229,-0.77,-0.215,
2230,-0.96,-0.14,
2231,-0.945,-0.055,
2232,-0.83,0.02,
2233,-0.705,0.075,
2234,-0.605,0.1,
2235,-0.505,0.115,
2236,-0.435,0.1,
2237,-0.395,0.065,
2238,-0.36,0.02,
2239,-0.365,0.02,
2240,-0.35,0.035,
2241,-0.325,0.045,
2242,-0.29,0.07,
2243,-0.31,0.08,
2244,-0.34,0.09,
2245,-0.365,0.08,
2246,-0.36,0.085,
2247,-0.345,0.09,
2248,-0.34,0.08,
2249,-0.325,0.08,
2250,-0.31,0.06,
2251,-0.28,0.015,
2252,-0.26,-0.02,
2253,-0.255,0.0,
2254,-0.265,0.015,
2255,-0.255,0.035,
2256,-0.28,0.025,
2257,-0.29,0.03,
2258,-0.275,0.05,
2259,-0.245,0.085,
2260,-0.245,0.06,
2261,-0.22,0.045,
2262,-0.2,0.02,
2263,-0.16,0.02,
2264,-0.13,0.02,
2265,-0.12,0.015,
2266,-0.11,0.03,
2267,-0.085,0.04,
2268,-0.07,0.03,
2269,-0.05,-0.01,
2270,-0.065,-0.02,
2271,-0.045,0.0,
2272,-0.03,0.035,
2273,0.02,0.035,
2274,0.04,0.025,
2275,0.035,-0.01,
2276,0.025,-0.04,
2277,0.055,-0.035,
2278,0.08,0.015,
2279,0.085,0.015,
2280,0.055,-0.01,
2281,0.0,-0.03,
2282,-0.005,-0.03,
2283,0.03,0.01,
2284,0.05,0.05,
2285,0.05,0.03,
2286,0.075,-0.015,
2287,0.09,-0.045,
2288,0.06,-0.03,
2289,0.025,0.0,
2290,0.015,0.035,
2291,0.03,0.045,
2292,0.01,0.01,
2293,-0.03,0.005,
2294,-0.095,0.01,
2295,-0.11,0.015,
2296,-0.11,0.06,
2297,-0.11,0.05,
2298,-0.125,0.02,
2299,-0.155,0.005,
2300,-0.17,0.02,
2301,-0.215,0.07,
2302,-0.225,0.08,
2303,-0.255,0.06,
2304,-0.275,0.035,
2305,-0.3,0.025,
2306,-0.31,0.015,
2307,-0.31,0.04,
2308,-0.315,0.08,
2309,-0.31,0.085,
2310,-0.335,0.085,
2311,-0.37,0.055,
2312,-0.375,0.025,
2313,-0.35,0.035,
2314,-0.335,0.05,
2315,-0.335,0.06,
2316,-0.36,0.05,
2317,-0.39,0.06,
2318,-0.415,0.065,
2319,-0.395,0.075,
2320,-0.385,0.08,
2321,-0.345,0.065,
2322,-0.38,0.025,
2323,-0.39,0.03,
2324,-0.405,0.05,
2325,-0.395,0.09,
2326,-0.39,0.085,
2327,-0.34,0.06,
2328,-0.36,0.04,
2329,-0.36,0.025,
2330,-0.365,0.035,
2331,-0.345,0.07,
2332,-0.335,0.08,
2333,-0.32,0.065,
2334,-0.325,0.055,
2335,-0.32,0.045,
2336,-0.31,0.065,
2337,-0.3,0.11,
2338,-0.295,0.135,
2339,-0.305,0.14,
2340,-0.315,0.095,
2341,-0.315,0.07,
2342,-0.295,0.05,
2343,-0.28,0.045,
2344,-0.26,0.065,
2345,-0.235,0.065,
2346,-0.24,0.05,
2347,-0.255,0.02,
2348,-0.27,0.0,
2349,-0.29,0.0,
2350,-0.3,0.02,
2351,-0.29,0.02,
2352,-0.3,0.01,
2353,-0.295,0.015,
2354,-0.335,0.01,
2355,-0.325,0.015,
2356,-0.315,0.045,
2357,-0.32,0.035,
2358,-0.335,0.045,
2359,-0.335,0.055,
2360,-0.335,0.09,
2361,-0.335,0.08,
2362,-0.33,0.065,
2363,-0.325,0.02,
2364,-0.33,-0.01,
2365,-0.36,-0.01,
2366,-0.4,0.005,
2367,-0.41,0.05,
2368,-0.4,0.07,
2369,-0.37,0.065,
2370,-0.38,0.055,
2371,-0.395,0.06,
2372,-0.425,0.055,
2373,-0.39,0.04,
2374,-0.385,0.045,
2375,-0.36,0.065,
2376,-0.35,0.08,
2377,-0.34,0.075,
2378,-0.355,0.065,
2379,-0.38,0.075,
2380,-0.385,0.07,
2381,-0.385,0.08,
2382,-0.39,0.08,
2383,-0.385,0.055,
2384,-0.38,0.015,
2385,-0.37,0.02,
2386,-0.345,0.055,
2387,-0.345,0.07,
2388,-0.375,0.06,
2389,-0.38,0.035,
2390,-0.395,0.005,
2391,-0.365,0.025,
2392,-0.35,0.035,
2393,-0.335,0.055,
2394,-0.345,0.04,
2395,-0.37,0.035,
2396,-0.395,0.035,
2397,-0.4,0.05,
2398,-0.37,0.075,
2399,-0.315,0.065,
2400,-0.27,0.065,
2401,-0.2,0.03,
2402,-0.08,-0.015,
2403,0.06,-0.05,
2404,0.225,-0.075,
2405,0.385,-0.125,
2406,0.545,-0.18,
2407,0.625,-0.28,N
2408,0.615,-0.345,
2409,0.5,-0.38,
2410,0.365,-0.35,
2411,0.2,-0.33,
2412,-0.055,-0.32,
2413,-0.415,-0.325,
2414,-0.76,-0.275,
2415,-0.98,-0.17,
2416,-0.985,-0.08,
2417,-0.855,-0.01,
2418,-0.705,0.005,
2419,-0.605,0.015,
2420,-0.565,0.03,
2421,-0.53,0.07,
2422,-0.485,0.07,
2423,-0.415,0.025,
2424,-0.355,0.005,
2425,-0.335,-0.025,
2426,-0.325,-0.02,
2427,-0.335,-0.015,
2428,-0.32,0.005,
2429,-0.32,0.015,
2430,-0.295,-0.005,
2431,-0.295,0.015,
2432,-0.285,0.01,
2433,-0.285,0.03,
2434,-0.285,0.035,
2435,-0.265,0.03,
2436,-0.26,0.005,
2437,-0.26,0.0,
2438,-0.285,0.0,
2439,-0.275,0.015,
2440,-0.265,0.035,
2441,-0.24,0.03,
2442,-0.235,0.03,
2443,-0.245,0.015,
2444,-0.25,0.01,
2445,-0.25,0.015,
2446,-0.225,0.045,
2447,-0.205,0.04,
2448,-0.18,0.005,
2449,-0.19,-0.01,
2450,-0.18,-0.005,
2451,-0.14,0.0,
2452,-0.09,0.01,
2453,-0.06,-0.005,
2454,-0.06,-0.005,
2455,-0.065,-0.015,
2456,-0.06,-0.01,
2457,-0.02,-0.01,
2458,0.015,-0.01,
2459,0.035,-0.01,
2460,0.035,-0.035,
2461,0.03,-0.05,
2462,0.025,-0.05,
2463,0.045,-0.035,
2464,0.085,0.0,
2465,0.1,0.0,
2466,0.11,-0.02,
2467,0.085,-0.045,
2468,0.08,-0.05,
2469,0.085,-0.045,
2470,0.11,-0.01,
2471,0.125,-0.005,
2472,0.13,-0.015,
2473,0.105,-0.035,
2474,0.075,-0.04,
2475,0.07,-0.02,
2476,0.07,-0.015,
2477,0.07,-0.025,
2478,0.04,0.0,
2479,0.01,0.0,
2480,-0.01,0.015,
2481,-0.025,0.045,
2482,-0.035,0.09,
2483,-0.05,0.095,
2484,-0.095,0.1,
2485,-0.12,0.065,
2486,-0.12,0.045,
2487,-0.12,0.055,
2488,-0.12,0.045,
2489,-0.175,0.03,
2490,-0.25,0.035,
2491,-0.29,0.02,
2492,-0.3,0.045,
2493,-0.28,0.06,
2494,-0.265,0.055,
2495,-0.25,0.055,
2496,-0.27,0.045,
2497,-0.295,0.035,
2498,-0.305,0.025,
2499,-0.31,0.045,
2500,-0.285,0.08,
2501,-0.275,0.09,
2502,-0.28,0.085,
2503,-0.28,0.05,
2504,-0.305,0.03,
2505,-0.32,0.035,
2506,-0.32,0.045,
2507,-0.315,0.055,
2508,-0.29,0.035,
2509,-0.305,0.02,
2510,-0.31,0.01,
2511,-0.325,0.05,
2512,-0.325,0.07,
2513,-0.315,0.05,
2514,-0.325,0.045,
2515,-0.34,0.04,
2516,-0.34,0.045,
2517,-0.325,0.05,
2518,-0.305,0.075,
2519,-0.265,0.08,
2520,-0.265,0.065,
2521,-0.28,0.075,
2522,-0.295,0.075,
2523,-0.275,0.08,
2524,-0.265,0.095,
2525,-0.255,0.115,
2526,-0.255,0.115,
2527,-0.26,0.09,
2528,-0.26,0.06,
2529,-0.255,0.055,
2530,-0.215,0.06,
2531,-0.19,0.09,
2532,-0.19,0.065,
2533,-0.225,0.045,
2534,-0.25,0.03,
2535,-0.255,0.035,
2536,-0.25,0.055,
2537,-0.25,0.035,
2538,-0.275,0.01,
2539,-0.305,-0.025,
2540,-0.33,-0.01,
2541,-0.33,-0.005,
2542,-0.315,0.015,
2543,-0.295,0.01,
2544,-0.285,0.015,
2545,-0.28,-0.01,
2546,-0.285,0.005,
2547,-0.31,0.015,
2548,-0.33,0.045,
2549,-0.34,0.055,
2550,-0.335,0.065,
2551,-0.36,0.03,
2552,-0.34,0.025,
2553,-0.325,0.015,
2554,-0.315,0.0,
2555,-0.295,-0.005,
2556,-0.295,0.0,
2557,-0.34,0.015,
2558,-0.35,0.03,
2559,-0.345,0.045,
2560,-0.32,0.06,
2561,-0.315,0.04,
2562,-0.3,0.025,
2563,-0.315,0.015,
2564,-0.325,0.025,
2565,-0.325,0.06,
2566,-0.315,0.06,
2567,-0.315,0.06,
2568,-0.335,0.03,
2569,-0.345,0.03,
2570,-0.345,0.025,
2571,-0.345,0.035,
2572,-0.33,0.055,
2573,-0.3,0.05,
2574,-0.305,0.03,
2575,-0.3,0.02,
2576,-0.31,0.015,
2577,-0.32,0.035,
2578,-0.31,0.06,
2579,-0.315,0.05,
2580,-0.295,0.025,
2581,-0.295,0.005,
2582,-0.305,0.035,
2583,-0.325,0.04,
2584,-0.32,0.075,
2585,-0.315,0.08,
2586,-0.315,0.08,
2587,-0.29,0.075,
2588,-0.245,0.06,
2589,-0.135,0.07,
2590,0.01,0.035,
2591,0.155,-0.035,
2592,0.31,-0.15,
2593,0.44,-0.225,
2594,0.535,-0.265,N
2595,0.585,-0.315,
2596,0.56,-0.35,
2597,0.435,-0.35,
2598,0.27,-0.325,
2599,-0.03,-0.285,
2600,-0.395,-0.255,
2601,-0.72,-0.235,
2602,-0.915,-0.185,
2603,-0.945,-0.125,
2604,-0.84,-0.07,
2605,-0.735,-0.03,
2606,-0.645,0.0,
2607,-0.575,0.01,
2608,-0.495,0.025,
2609,-0.415,0.04,
2610,-0.355,0.035,
2611,-0.33,0.01,
2612,-0.32,-0.015,
2613,-0.3,-0.015,
2614,-0.275,0.005,
2615,-0.26,0.02,
2616,-0.26,0.01,
2617,-0.265,0.01,
2618,-0.28,0.01,
2619,-0.255,0.03,
2620,-0.245,0.04,
2621,-0.225,0.055,
2622,-0.23,0.04,
2623,-0.23,0.02,
2624,-0.23,0.02,
2625,-0.235,0.035,
2626,-0.21,0.035,
2627,-0.205,0.03,
2628,-0.2,-0.01,
2629,-0.2,-0.005,
2630,-0.19,0.015,
2631,-0.18,0.02,
2632,-0.16,0.015,
2633,-0.12,-0.01,
2634,-0.125,-0.025,
2635,-0.115,-0.02,
2636,-0.11,-0.01,
2637,-0.08,0.005,
2638,-0.05,0.01,
2639,-0.03,-0.01,
2640,-0.025,-0.045,
2641,-0.03,-0.065,
2642,-0.02,-0.03,
2643,0.005,-0.025,
2644,0.03,-0.035,
2645,0.07,-0.06,
2646,0.08,-0.065,
2647,0.09,-0.085,
2648,0.08,-0.07,
2649,0.115,-0.07,
2650,0.13,-0.04,
2651,0.145,-0.055,
2652,0.11,-0.06,
2653,0.08,-0.07,
2654,0.105,-0.06,
2655,0.12,-0.06,
2656,0.145,-0.055,
2657,0.165,-0.06,
2658,0.17,-0.055,
2659,0.145,-0.07,
2660,0.145,-0.04,
2661,0.15,-0.03,
2662,0.15,-0.02,
2663,0.17,-0.02,
2664,0.16,-0.06,
2665,0.11,-0.075,
2666,0.095,-0.07,
2667,0.07,-0.025,
2668,0.07,-0.025,
2669,0.055,-0.035,
2670,0.035,-0.025,
2671,0.0,-0.04,
2672,-0.04,-0.01,
2673,-0.075,0.025,
2674,-0.08,0.06,
2675,-0.085,0.055,
2676,-0.12,0.03,
2677,-0.14,0.01,
2678,-0.16,0.0,
2679,-0.18,-0.015,
2680,-0.185,0.015,
2681,-0.18,-0.01,
2682,-0.18,-0.005,
2683,-0.2,-0.025,
2684,-0.225,-0.025,
2685,-0.235,-0.015,
2686,-0.215,0.0,
2687,-0.19,0.0,
2688,-0.22,0.0,
2689,-0.26,-0.025,
2690,-0.26,-0.005,
2691,-0.255,0.035,
2692,-0.25,0.055,
2693,-0.235,0.03,
2694,-0.24,0.005,
2695,-0.255,-0.01,
2696,-0.25,-0.005,
2697,-0.255,0.015,
2698,-0.24,0.025,
2699,-0.23,0.01,
2700,-0.225,-0.01,
2701,-0.235,-0.015,
2702,-0.26,0.0,
2703,-0.28,0.0,
2704,-0.28,0.04,
2705,-0.285,0.075,
2706,-0.275,0.095,
2707,-0.275,0.08,
2708,-0.26,0.03,
2709,-0.23,0.025,
2710,-0.225,0.03,
2711,-0.21,0.02,
2712,-0.2,0.005,
2713,-0.205,-0.035,
2714,-0.215,-0.025,
2715,-0.215,0.0,
2716,-0.195,0.02,
2717,-0.175,0.065,
2718,-0.155,0.045,
2719,-0.17,0.025,
2720,-0.165,0.015,
2721,-0.155,0.025,
2722,-0.125,0.03,
2723,-0.125,0.0,
2724,-0.14,-0.005,
2725,-0.18,-0.03,
2726,-0.21,-0.02,
2727,-0.235,-0.04,
2728,-0.23,-0.035,
2729,-0.215,-0.04,
2730,-0.225,-0.035,
2731,-0.245,-0.04,
2732,-0.255,-0.03,
2733,-0.26,-0.02,
2734,-0.26,0.01,
2735,-0.235,-0.005,
2736,-0.22,-0.015,
2737,-0.255,-0.025,
2738,-0.27,-0.01,
2739,-0.27,0.02,
2740,-0.275,0.02,
2741,-0.28,0.015,
2742,-0.26,0.0,
2743,-0.275,-0.005,
2744,-0.28,-0.01,
2745,-0.265,0.01,
2746,-0.27,0.01,
2747,-0.255,0.02,
2748,-0.26,0.005,
2749,-0.275,-0.015,
2750,-0.295,-0.015,
2751,-0.285,-0.005,
2752,-0.28,0.02,
2753,-0.265,0.03,
2754,-0.275,0.02,
2755,-0.275,0.0,
2756,-0.285,0.0,
2757,-0.28,0.02,
2758,-0.26,0.03,
2759,-0.255,0.02,
2760,-0.245,0.005,
2761,-0.265,-0.02,
2762,-0.285,-0.01,
2763,-0.295,0.005,
2764,-0.295,0.02,
2765,-0.285,0.03,
2766,-0.285,0.005,
2767,-0.275,-0.01,
2768,-0.29,-0.015,
2769,-0.285,0.0,
2770,-0.265,0.03,
2771,-0.25,0.035,
2772,-0.26,0.055,
2773,-0.27,0.03,
2774,-0.275,0.025,
2775,-0.295,0.04,
2776,-0.285,0.05,
2777,-0.275,0.065,
2778,-0.25,0.055,
2779,-0.2,0.025,
2780,-0.12,-0.02,
2781,-0.01,-0.045,
2782,0.115,-0.075,
2783,0.235,-0.12,
2784,0.375,-0.195,
2785,0.48,-0.25,
2786,0.535,-0.285,N
2787,0.57,-0.315,
2788,0.58,-0.345,
2789,0.52,-0.35,
2790,0.385,-0.355,
2791,0.175,-0.355,
2792,-0.12,-0.31,
2793,-0.425,-0.235,
2794,-0.7,-0.185,
2795,-0.84,-0.13,
2796,-0.9,-0.085,
2797,-0.83,-0.05,
2798,-0.72,0.005,
2799,-0.64,0.04,
2800,-0.545,0.04,
2801,-0.47,0.01,
2802,-0.4,-0.025,
2803,-0.35,-0.045,
2804,-0.33,-0.035,
2805,-0.3,-0.025,
2806,-0.28,-0.01,
2807,-0.265,-0.005,
2808,-0.25,-0.025,
2809,-0.25,-0.015,
2810,-0.24,-0.015,
2811,-0.24,0.02,
2812,-0.215,0.01,
2813,-0.19,-0.005,
2814,-0.205,0.0,
2815,-0.21,0.005,
2816,-0.22,0.005,
2817,-0.22,0.035,
2818,-0.21,0.045,
2819,-0.2,0.03,
2820,-0.185,0.0,
2821,-0.185,-0.03,
2822,-0.18,-0.025,
2823,-0.185,-0.005,
2824,-0.15,0.015,
2825,-0.13,0.01,
2826,-0.115,-0.03,
2827,-0.125,-0.04,
2828,-0.13,-0.035,
2829,-0.125,-0.02,
2830,-0.095,-0.005,
2831,-0.075,-0.005,
2832,-0.055,-0.035,
2833,-0.045,-0.055,
2834,-0.035,-0.06,
2835,-0.02,-0.03,
2836,0.005,-0.04,
2837,0.035,-0.045,
2838,0.04,-0.05,
2839,0.055,-0.05,
2840,0.06,-0.03,
2841,0.07,-0.04,
2842,0.095,-0.045,
2843,0.115,-0.07,
2844,0.12,-0.075,
2845,0.115,-0.065,
2846,0.105,-0.05,
2847,0.12,-0.035,
2848,0.14,-0.025,
2849,0.17,-0.06,
2850,0.17,-0.08,
2851,0.17,-0.085,
2852,0.165,-0.085,
2853,0.19,-0.055,
2854,0.19,-0.045,
2855,0.19,-0.06,
2856,0.18,-0.08,
2857,0.16,-0.095,
2858,0.145,-0.085,
2859,0.155,-0.06,
2860,0.16,-0.035,
2861,0.14,-0.02,
2862,0.125,0.0,
2863,0.09,-0.025,
2864,0.065,-0.005,
2865,0.045,-0.01,
2866,0.03,-0.005,
2867,0.035,-0.025,
2868,0.025,-0.025,
2869,-0.005,-0.025,
2870,-0.055,-0.02,
2871,-0.065,0.015,
2872,-0.065,0.025,
2873,-0.115,0.03,
2874,-0.13,0.0,
2875,-0.16,-0.01,
2876,-0.17,0.0,
2877,-0.17,0.02,
2878,-0.16,0.045,
2879,-0.16,0.045,
2880,-0.175,0.03,
2881,-0.21,0.005,
2882,-0.22,0.01,
2883,-0.225,0.015,
2884,-0.22,0.015,
2885,-0.22,0.01,
2886,-0.225,0.005,
2887,-0.245,-0.005,
2888,-0.245,0.015,
2889,-0.23,0.02,
2890,-0.225,0.05,
2891,-0.22,0.06,
2892,-0.23,0.075,
2893,-0.24,0.06,
2894,-0.255,0.04,
2895,-0.24,0.015,
2896,-0.235,0.02,
2897,-0.225,0.02,
2898,-0.25,0.01,
2899,-0.255,0.0,
2900,-0.25,-0.005,
2901,-0.24,0.01,
2902,-0.225,0.025,
2903,-0.21,0.035,
2904,-0.215,0.065,
2905,-0.22,0.055,
2906,-0.225,0.045,
2907,-0.215,0.05,
2908,-0.195,0.06,
2909,-0.18,0.07,
2910,-0.18,0.055,
2911,-0.185,0.035,
2912,-0.21,0.06,
2913,-0.205,0.075,
2914,-0.195,0.08,
2915,-0.185,0.055,
2916,-0.155,0.055,
2917,-0.145,0.03,
2918,-0.145,0.02,
2919,-0.135,0.05,
2920,-0.135,0.045,
2921,-0.1,0.055,
2922,-0.12,0.025,
2923,-0.15,0.01,
2924,-0.175,0.025,
2925,-0.19,0.015,
2926,-0.18,0.025,
2927,-0.155,-0.01,
2928,-0.17,-0.04,
2929,-0.185,-0.04,
2930,-0.215,-0.035,
2931,-0.215,-0.015,
2932,-0.2,0.01,
2933,-0.195,-0.005,
2934,-0.2,-0.005,
2935,-0.215,-0.03,
2936,-0.21,-0.025,
2937,-0.205,0.01,
2938,-0.195,0.01,
2939,-0.2,0.015,
2940,-0.225,-0.01,
2941,-0.255,-0.01,
2942,-0.27,-0.01,
2943,-0.265,0.01,
2944,-0.245,0.05,
2945,-0.235,0.06,
2946,-0.255,0.035,
2947,-0.255,-0.01,
2948,-0.26,0.0,
2949,-0.255,0.035,
2950,-0.25,0.045,
2951,-0.235,0.06,
2952,-0.245,0.02,
2953,-0.235,-0.01,
2954,-0.24,-0.025,
2955,-0.255,-0.03,
2956,-0.24,-0.015,
2957,-0.23,-0.015,
2958,-0.235,-0.015,
2959,-0.25,-0.02,
2960,-0.255,-0.01,
2961,-0.245,0.02,
2962,-0.235,0.065,
2963,-0.21,0.06,
2964,-0.22,0.03,
2965,-0.235,-0.01,
2966,-0.25,-0.03,
2967,-0.235,0.0,
2968,-0.22,0.02,
2969,-0.23,0.035,
2970,-0.225,0.01,
2971,-0.24,0.005,
2972,-0.24,0.005,
2973,-0.235,0.015,
2974,-0.245,0.035,
2975,-0.23,0.05,
2976,-0.245,0.035,
2977,-0.275,0.015,
2978,-0.295,0.01,
2979,-0.29,0.03,
2980,-0.265,0.07,
2981,-0.22,0.05,
2982,-0.185,0.015,
2983,-0.13,-0.045,
2984,-0.045,-0.065,
2985,0.055,-0.065,
2986,0.175,-0.06,
2987,0.305,-0.12,
2988,0.42,-0.18,
2989,0.485,-0.25,
2990,0.535,-0.285,N
2991,0.585,-0.3,
2992,0.6,-0.31,
2993,0.555,-0.315,
2994,0.425,-0.31,
2995,0.225,-0.305,
2996,-0.06,-0.27,
2997,-0.345,-0.245,
2998,-0.585,-0.195,
2999,-0.76,-0.155,
3000,-0.845,-0.125,
3001,-0.83,-0.11,
3002,-0.735,-0.055,
3003,-0.625,-0.015,
3004,-0.535,0.025,
3005,-0.46,0.025,
3006,-0.39,0.02,
3007,-0.35,-0.005,
3008,-0.315,-0.035,
3009,-0.285,-0.03,
3010,-0.25,0.0,
3011,-0.24,-0.005,
3012,-0.225,-0.02,
3013,-0.24,-0.035,
3014,-0.235,-0.025,
3015,-0.22,0.005,
3016,-0.19,0.01,
3017,-0.175,0.0,
3018,-0.19,-0.005,
3019,-0.19,-0.015,
3020,-0.195,-0.02,
3021,-0.18,-0.01,
3022,-0.155,-0.025,
3023,-0.15,-0.03,
3024,-0.16,-0.035,
3025,-0.165,-0.025,
3026,-0.17,0.005,
3027,-0.15,0.035,
3028,-0.13,0.055,
3029,-0.11,0.05,
3030,-0.105,0.005,
3031,-0.105,-0.05,
3032,-0.1,-0.075,
3033,-0.09,-0.07,
3034,-0.075,-0.045,
3035,-0.05,-0.04,
3036,-0.04,-0.03,
3037,-0.05,-0.055,
3038,-0.03,-0.04,
3039,-0.01,-0.035,
3040,0.015,-0.035,
3041,0.04,-0.065,
3042,0.05,-0.08,
3043,0.05,-0.075,
3044,0.065,-0.06,
3045,0.085,-0.045,
3046,0.115,-0.03,
3047,0.135,-0.065,
3048,0.14,-0.115,
3049,0.145,-0.14,
3050,0.145,-0.115,
3051,0.16,-0.11,
3052,0.18,-0.09,
3053,0.195,-0.1,
3054,0.21,-0.105,
3055,0.2,-0.105,
3056,0.185,-0.105,
3057,0.2,-0.105,
3058,0.225,-0.08,
3059,0.23,-0.07,
3060,0.22,-0.08,
3061,0.21,-0.1,
3062,0.195,-0.105,
3063,0.195,-0.08,
3064,0.215,-0.075,
3065,0.225,-0.085,
3066,0.215,-0.085,
3067,0.195,-0.085,
3068,0.175,-0.07,
3069,0.16,-0.055,
3070,0.16,-0.025,
3071,0.135,-0.04,
3072,0.12,-0.05,
3073,0.085,-0.065,
3074,0.065,-0.065,
3075,0.05,-0.04,
3076,0.05,-0.035,
3077,0.02,-0.055,
3078,0.0,-0.055,
3079,-0.04,-0.04,
3080,-0.07,-0.03,
3081,-0.09,-0.005,
3082,-0.1,0.025,
3083,-0.09,0.03,
3084,-0.11,0.02,
3085,-0.13,-0.015,
3086,-0.155,-0.03,
3087,-0.15,-0.015,
3088,-0.14,0.015,
3089,-0.14,-0.005,
3090,-0.155,-0.045,
3091,-0.165,-0.05,
3092,-0.19,-0.025,
3093,-0.19,-0.005,
3094,-0.165,0.005,
3095,-0.165,-0.015,
3096,-0.175,-0.025,
3097,-0.205,-0.035,
3098,-0.2,-0.015,
3099,-0.195,-0.01,
3100,-0.175,0.0,
3101,-0.17,-0.02,
3102,-0.165,-0.03,
3103,-0.19,-0.025,
3104,-0.215,-0.02,
3105,-0.205,0.01,
3106,-0.18,-0.01,
3107,-0.155,-0.015,
3108,-0.165,-0.02,
3109,-0.18,-0.025,
3110,-0.195,-0.02,
3111,-0.195,0.005,
3112,-0.175,0.01,
3113,-0.17,0.01,
3114,-0.16,0.0,
3115,-0.165,-0.035,
3116,-0.17,-0.05,
3117,-0.145,-0.005,
3118,-0.125,0.02,
3119,-0.145,0.005,
3120,-0.14,-0.015,
3121,-0.16,-0.03,
3122,-0.15,-0.005,
3123,-0.14,0.01,
3124,-0.105,0.035,
3125,-0.075,0.06,
3126,-0.07,0.035,
3127,-0.09,0.01,
3128,-0.1,-0.005,
3129,-0.095,0.01,
3130,-0.09,0.0,
3131,-0.085,-0.03,
3132,-0.095,-0.05,
3133,-0.12,-0.09,
3134,-0.15,-0.07,
3135,-0.145,-0.045,
3136,-0.13,-0.02,
3137,-0.14,-0.025,
3138,-0.14,-0.03,
3139,-0.155,-0.03,
3140,-0.175,-0.02,
3141,-0.18,0.015,
3142,-0.165,0.03,
3143,-0.15,0.005,
3144,-0.15,-0.045,
3145,-0.15,-0.08,
3146,-0.16,-0.06,
3147,-0.185,-0.03,
3148,-0.16,-0.01,
3149,-0.15,-0.01,
3150,-0.155,-0.025,
3151,-0.16,-0.06,
3152,-0.185,-0.055,
3153,-0.17,-0.05,
3154,-0.175,-0.015,
3155,-0.155,-0.015,
3156,-0.16,-0.03,
3157,-0.18,-0.06,
3158,-0.18,-0.07,
3159,-0.175,-0.065,
3160,-0.16,-0.05,
3161,-0.13,-0.04,
3162,-0.145,-0.06,
3163,-0.165,-0.055,
3164,-0.165,-0.035,
3165,-0.15,-0.005,
3166,-0.14,-0.005,
3167,-0.14,0.01,
3168,-0.145,-0.025,
3169,-0.155,-0.06,
3170,-0.175,-0.065,
3171,-0.16,-0.09,
3172,-0.145,-0.055,
3173,-0.13,-0.04,
3174,-0.135,-0.045,
3175,-0.155,-0.035,
3176,-0.16,-0.045,
3177,-0.15,-0.03,
3178,-0.13,-0.035,
3179,-0.125,-0.05,
3180,-0.14,-0.065,
3181,-0.15,-0.06,
3182,-0.17,-0.05,
3183,-0.16,-0.045,
3184,-0.13,-0.025,
3185,-0.135,-0.015,
3186,-0.16,-0.04,
3187,-0.19,-0.02,
3188,-0.22,0.01,
3189,-0.19,0.065,
3190,-0.105,0.075,
3191,0.02,0.045,
3192,0.16,-0.035,
3193,0.28,-0.145,
3194,0.41,-0.195,
3195,0.555,-0.22,
3196,0.695,-0.215,
3197,0.795,-0.25,
3198,0.875,-0.33,
3199,0.925,-0.42,N
3200,0.925,-0.47,
3201,0.865,-0.49,
3202,0.755,-0.465,
3203,0.595,-0.475,
3204,0.315,-0.455,
3205,-0.01,-0.415,
3206,-0.315,-0.37,
3207,-0.555,-0.32,
3208,-0.7,-0.245,
3209,-0.73,-0.185,
3210,-0.68,-0.105,
3211,-0.61,-0.06,
3212,-0.525,-0.03,
3213,-0.43,-0.015,
3214,-0.33,-0.005,
3215,-0.255,-0.035,
3216,-0.225,-0.05,
3217,-0.205,-0.05,
3218,-0.195,-0.045,
3219,-0.175,-0.02,
3220,-0.14,-0.01,
3221,-0.12,-0.01,
3222,-0.115,-0.015,
3223,-0.13,-0.025,
3224,-0.125,-0.025,
3225,-0.115,-0.015,
3226,-0.095,-0.005,
3227,-0.09,0.0,
3228,-0.085,-0.015,
3229,-0.095,-0.05,
3230,-0.105,-0.04,
3231,-0.1,-0.01,
3232,-0.1,0.035,
3233,-0.08,0.025,
3234,-0.08,0.01,
3235,-0.08,-0.035,
3236,-0.085,-0.055,
3237,-0.055,-0.045,
3238,-0.045,-0.02,
3239,-0.025,-0.03,
3240,-0.025,-0.065,
3241,-0.02,-0.06,
3242,-0.01,-0.065,
3243,-0.005,-0.055,
3244,0.02,-0.03,
3245,0.035,-0.04,
3246,0.04,-0.035,
3247,0.035,-0.06,
3248,0.03,-0.07,
3249,0.06,-0.07,
3250,0.09,-0.045,
3251,0.11,-0.05,
3252,0.12,-0.065,
3253,0.125,-0.08,
3254,0.135,-0.075,
3255,0.155,-0.06,
3256,0.185,-0.04,
3257,0.21,-0.05,
3258,0.215,-0.035,
3259,0.2,-0.05,
3260,0.215,-0.06,
3261,0.235,-0.09,
3262,0.25,-0.08,
3263,0.28,-0.075,
3264,0.285,-0.1,
3265,0.285,-0.125,
3266,0.275,-0.135,
3267,0.28,-0.125,
3268,0.31,-0.11,
3269,0.325,-0.11,
3270,0.325,-0.11,
3271,0.305,-0.13,
3272,0.285,-0.125,
3273,0.295,-0.1,
3274,0.295,-0.08,
3275,0.3,-0.075,
3276,0.285,-0.09,
3277,0.25,-0.105,
3278,0.235,-0.11,
3279,0.23,-0.105,
3280,0.21,-0.065,
3281,0.19,-0.035,
3282,0.165,-0.05,
3283,0.13,-0.035,
3284,0.1,-0.045,
3285,0.09,-0.04,
3286,0.075,-0.025,
3287,0.07,-0.015,
3288,0.04,-0.03,
3289,0.025,-0.025,
3290,-0.005,-0.005,
3291,-0.02,0.01,
3292,-0.015,0.015,
3293,-0.025,0.015,
3294,-0.05,-0.01,
3295,-0.055,-0.015,
3296,-0.07,-0.005,
3297,-0.07,-0.015,
3298,-0.055,-0.01,
3299,-0.05,-0.005,
3300,-0.065,-0.03,
3301,-0.085,-0.035,
3302,-0.12,-0.005,
3303,-0.11,0.0,
3304,-0.105,0.025,
3305,-0.09,0.015,
3306,-0.105,0.0,
3307,-0.13,-0.01,
3308,-0.115,0.005,
3309,-0.12,0.015,
3310,-0.1,0.055,
3311,-0.1,0.05,
3312,-0.105,0.01,
3313,-0.125,-0.035,
3314,-0.12,-0.045,
3315,-0.11,-0.01,
3316,-0.085,0.03,
3317,-0.07,0.025,
3318,-0.07,0.005,
3319,-0.075,-0.005,
3320,-0.075,0.005,
3321,-0.085,0.05,
3322,-0.07,0.11,
3323,-0.055,0.09,
3324,-0.05,0.06,
3325,-0.07,0.04,
3326,-0.075,0.045,
3327,-0.055,0.045,
3328,-0.02,0.06,
3329,0.005,0.065,
3330,0.005,0.05,
3331,-0.015,0.03,
3332,-0.02,0.015,
3333,-0.02,-0.005,
3334,-0.04,-0.005,
3335,-0.05,-0.02,
3336,-0.065,-0.035,
3337,-0.075,-0.025,
3338,-0.105,-0.045,
3339,-0.105,-0.005,
3340,-0.085,0.025,
3341,-0.07,-0.005,
3342,-0.08,-0.02,
3343,-0.11,-0.04,
3344,-0.14,-0.035,
3345,-0.13,-0.005,
3346,-0.115,0.025,
3347,-0.095,0.035,
3348,-0.11,0.03,
3349,-0.145,0.02,
3350,-0.175,0.02,
3351,-0.19,0.005,
3352,-0.195,0.02,
3353,-0.185,0.04,
3354,-0.18,0.045,
3355,-0.18,0.025,
3356,-0.19,0.0,
3357,-0.18,0.0,
3358,-0.15,0.005,
3359,-0.135,-0.025,
3360,-0.135,-0.035,
3361,-0.15,-0.035,
3362,-0.17,-0.03,
3363,-0.18,-0.01,
3364,-0.16,0.005,
3365,-0.155,-0.005,
3366,-0.16,0.015,
3367,-0.18,0.035,
3368,-0.21,0.055,
3369,-0.205,0.075,
3370,-0.18,0.06,
3371,-0.16,0.03,
3372,-0.155,-0.015,
3373,-0.165,-0.005,
3374,-0.155,-0.015,
3375,-0.155,-0.03,
3376,-0.15,-0.055,
3377,-0.155,-0.08,
3378,-0.155,-0.065,
3379,-0.18,-0.04,
3380,-0.17,-0.005,
3381,-0.165,0.025,
3382,-0.15,0.02,
3383,-0.135,0.015,
3384,-0.16,0.025,
3385,-0.19,0.02,
3386,-0.19,0.025,
3387,-0.19,0.03,
3388,-0.17,0.035,
3389,-0.165,0.05,
3390,-0.155,0.06,
3391,-0.135,0.04,
3392,-0.075,0.015,
3393,0.05,0.015,
3394,0.19,-0.025,
3395,0.315,-0.045,
3396,0.44,-0.095,
3397,0.58,-0.17,
3398,0.685,-0.245,
3399,0.75,-0.3,N
3400,0.795,-0.355,
3401,0.77,-0.395,
3402,0.64,-0.405,
3403,0.475,-0.43,
3404,0.225,-0.455,
3405,-0.105,-0.39,
3406,-0.45,-0.26,
3407,-0.715,-0.18,
3408,-0.825,-0.115,
3409,-0.78,-0.07,
3410,-0.655,-0.06,
3411,-0.54,-0.065,
3412,-0.46,-0.075,
3413,-0.375,-0.04,
3414,-0.315,-0.03,
3415,-0.265,-0.035,
3416,-0.21,-0.055,
3417,-0.185,-0.045,
3418,-0.165,0.01,
3419,-0.175,0.03,
3420,-0.16,0.04,
3421,-0.14,0.0,
3422,-0.16,0.01,
3423,-0.15,-0.005,
3424,-0.155,-0.015,
3425,-0.145,-0.015,
3426,-0.15,-0.02,
3427,-0.145,0.01,
3428,-0.155,0.0,
3429,-0.135,0.025,
3430,-0.11,0.03,
3431,-0.085,0.03,
3432,-0.07,0.025,
3433,-0.085,0.01,
3434,-0.07,-0.025,
3435,-0.06,-0.065,
3436,-0.05,-0.045,
3437,-0.05,-0.025,
3438,-0.07,-0.015,
3439,-0.08,-0.035,
3440,-0.08,-0.055,
3441,-0.06,-0.05,
3442,-0.02,-0.03,
3443,0.01,-0.025,
3444,0.005,-0.015,
3445,0.005,-0.025,
3446,0.01,-0.04,
3447,0.05,-0.03,
3448,0.07,-0.01,
3449,0.105,-0.025,
3450,0.11,-0.045,
3451,0.105,-0.075,
3452,0.105,-0.055,
3453,0.115,0.0,
3454,0.13,0.035,
3455,0.165,-0.02,
3456,0.2,-0.115,
3457,0.2,-0.155,
3458,0.185,-0.135,
3459,0.195,-0.08,
3460,0.215,-0.045,
3461,0.21,-0.06,
3462,0.225,-0.065,
3463,0.23,-0.06,
3464,0.225,-0.06,
3465,0.235,-0.075,
3466,0.265,-0.11,
3467,0.28,-0.135,
3468,0.26,-0.145,
3469,0.235,-0.11,
3470,0.22,-0.065,
3471,0.22,-0.03,
3472,0.225,0.0,
3473,0.26,-0.015,
3474,0.25,-0.085,
3475,0.22,-0.16,
3476,0.21,-0.155,
3477,0.2,-0.105,
3478,0.185,-0.07,
3479,0.14,-0.04,
3480,0.1,-0.025,
3481,0.07,-0.04,
3482,0.04,-0.045,
3483,0.005,-0.04,
3484,0.015,-0.03,
3485,0.005,-0.04,
3486,-0.02,-0.05,
3487,-0.05,-0.06,
3488,-0.065,-0.045,
3489,-0.075,-0.015,
3490,-0.08,0.0,
3491,-0.085,0.0,
3492,-0.09,0.025,
3493,-0.14,0.04,
3494,-0.18,0.095,
3495,-0.18,0.125,
3496,-0.16,0.125,
3497,-0.13,0.045,
3498,-0.12,-0.035,
3499,-0.125,-0.08,
3500,-0.16,-0.075,
3501,-0.18,-0.035,
3502,-0.18,0.0,
3503,-0.175,0.035,
3504,-0.18,0.04,
3505,-0.195,0.025,
3506,-0.19,0.02,
3507,-0.22,0.03,
3508,-0.2,0.05,
3509,-0.195,0.03,
3510,-0.19,-0.025,
3511,-0.18,-0.06,
3512,-0.19,-0.055,
3513,-0.2,-0.04,
3514,-0.19,-0.01,
3515,-0.19,-0.035,
3516,-0.195,-0.035,
3517,-0.205,-0.04,
3518,-0.215,-0.015,
3519,-0.215,-0.01,
3520,-0.19,0.02,
3521,-0.18,0.01,
3522,-0.17,-0.025,
3523,-0.19,-0.02,
3524,-0.21,-0.005,
3525,-0.19,0.02,
3526,-0.16,0.015,
3527,-0.16,-0.01,
3528,-0.155,-0.005,
3529,-0.175,0.005,
3530,-0.18,0.02,
3531,-0.18,0.05,
3532,-0.185,0.06,
3533,-0.165,0.05,
3534,-0.15,0.015,
3535,-0.145,-0.03,
3536,-0.135,-0.035,
3537,-0.115,-0.01,
3538,-0.095,0.01,
3539,-0.105,-0.01,
3540,-0.105,0.005,
3541,-0.13,0.01,
3542,-0.155,-0.01,
3543,-0.175,-0.02,
3544,-0.16,-0.03,
3545,-0.165,-0.06,
3546,-0.18,-0.07,
3547,-0.205,-0.07,
3548,-0.24,-0.065,
3549,-0.225,-0.06,
3550,-0.2,-0.035,
3551,-0.175,-0.005,
3552,-0.21,0.005,
3553,-0.23,-0.005,
3554,-0.22,-0.005,
3555,-0.185,0.0,
3556,-0.205,0.035,
3557,-0.22,0.03,
3558,-0.235,-0.015,
3559,-0.255,-0.06,
3560,-0.26,-0.065,
3561,-0.25,-0.035,
3562,-0.24,-0.02,
3563,-0.215,-0.03,
3564,-0.22,-0.045,
3565,-0.24,-0.05,
3566,-0.245,-0.025,
3567,-0.245,-0.03,
3568,-0.235,-0.02,
3569,-0.215,-0.035,
3570,-0.225,-0.03,
3571,-0.24,-0.02,
3572,-0.25,-0.02,
3573,-0.25,-0.005,
3574,-0.25,0.035,
3575,-0.245,0.045,
3576,-0.26,0.03,
3577,-0.28,-0.015,
3578,-0.26,-0.07,
3579,-0.23,-0.08,
3580,-0.225,-0.045,
3581,-0.24,0.01,
3582,-0.245,-0.005,
3583,-0.25,-0.02,
3584,-0.265,-0.04,
3585,-0.24,-0.02,
3586,-0.23,0.005,
3587,-0.255,-0.005,
3588,-0.255,-0.015,
3589,-0.265,-0.035,
3590,-0.28,-0.045,
3591,-0.27,-0.04,
3592,-0.245,0.005,
3593,-0.255,0.025,
3594,-0.275,0.04,
3595,-0.285,0.03,
3596,-0.28,0.04,
3597,-0.245,0.04,
3598,-0.175,0.03,
3599,-0.07,-0.025,
3600,0.045,-0.07,
3601,0.145,-0.17,
3602,0.275,-0.225,
3603,0.405,-0.255,
3604,0.53,-0.26,
3605,0.62,-0.31,N
3606,0.68,-0.37,
3607,0.66,-0.43,
3608,0.545,-0.435,
3609,0.36,-0.415,
3610,0.115,-0.355,
3611,-0.18,-0.305,
3612,-0.5,-0.285,
3613,-0.755,-0.285,
3614,-0.89,-0.23,
3615,-0.88,-0.165,
3616,-0.76,-0.085,
3617,-0.635,-0.04,
3618,-0.55,-0.025,
3619,-0.49,-0.025,
3620,-0.44,-0.03,
3621,-0.38,-0.025,
3622,-0.34,-0.01,
3623,-0.305,-0.015,
3624,-0.275,-0.03,
3625,-0.255,-0.05,
3626,-0.23,-0.06,
3627,-0.23,-0.035,
3628,-0.21,-0.015,
3629,-0.215,-0.035,
3630,-0.22,-0.07,
3631,-0.24,-0.08,
3632,-0.245,-0.045,
3633,-0.235,-0.005,
3634,-0.2,0.035,
3635,-0.175,-0.005,
3636,-0.175,-0.02,
3637,-0.185,-0.035,
3638,-0.185,-0.03,
3639,-0.155,-0.03,
3640,-0.14,-0.035,
3641,-0.13,-0.08,
3642,-0.125,-0.105,
3643,-0.15,-0.11,
3644,-0.115,-0.085,
3645,-0.085,-0.045,
3646,-0.055,-0.03,
3647,-0.055,-0.045,
3648,-0.05,-0.06,
3649,-0.035,-0.07,
3650,-0.02,-0.055,
3651,-0.01,-0.05,
3652,0.03,-0.03,
3653,0.03,-0.055,
3654,0.04,-0.075,
3655,0.04,-0.09,
3656,0.05,-0.095,
3657,0.08,-0.08,
3658,0.115,-0.055,
3659,0.135,-0.025,
3660,0.14,-0.025,
3661,0.145,-0.055,
3662,0.15,-0.08,
3663,0.175,-0.085,
3664,0.185,-0.065,
3665,0.2,-0.045,
3666,0.185,-0.045,
3667,0.185,-0.09,
3668,0.195,-0.13,
3669,0.22,-0.1,
3670,0.23,-0.07,
3671,0.215,-0.08,
3672,0.2,-0.08,
3673,0.19,-0.08,
3674,0.17,-0.04,
3675,0.165,-0.01,
3676,0.165,0.02,
3677,0.165,-0.02,
3678,0.16,-0.075,
3679,0.14,-0.14,
3680,0.115,-0.13,
3681,0.1,-0.075,
3682,0.085,-0.02,
3683,0.055,-0.01,
3684,0.03,-0.015,
3685,-0.025,-0.03,
3686,-0.055,-0.015,
3687,-0.06,0.005,
3688,-0.04,0.05,
3689,-0.06,0.025,
3690,-0.09,-0.01,
3691,-0.105,-0.035,
3692,-0.125,-0.04,
3693,-0.14,-0.015,
3694,-0.13,-0.015,
3695,-0.14,-0.005,
3696,-0.155,0.0,
3697,-0.185,0.0,
3698,-0.185,0.005,
3699,-0.185,0.035,
3700,-0.185,0.035,
3701,-0.18,0.01,
3702,-0.18,-0.02,
3703,-0.185,-0.015,
3704,-0.2,-0.025,
3705,-0.21,-0.005,
3706,-0.185,0.03,
3707,-0.18,0.03,
3708,-0.195,0.02,
3709,-0.215,0.015,
3710,-0.215,0.025,
3711,-0.21,0.06,
3712,-0.195,0.075,
3713,-0.19,0.045,
3714,-0.2,0.035,
3715,-0.215,0.04,
3716,-0.22,0.05,
3717,-0.2,0.07,
3718,-0.17,0.055,
3719,-0.155,0.04,
3720,-0.155,0.025,
3721,-0.18,0.04,
3722,-0.185,0.05,
3723,-0.185,0.085,
3724,-0.155,0.115,
3725,-0.13,0.115,
3726,-0.13,0.09,
3727,-0.125,0.075,
3728,-0.135,0.05,
3729,-0.115,0.01,
3730,-0.09,-0.02,
3731,-0.085,-0.015,
3732,-0.115,0.0,
3733,-0.16,-0.005,
3734,-0.185,0.005,
3735,-0.19,0.04,
3736,-0.18,0.08,
3737,-0.185,0.085,
3738,-0.195,0.065,
3739,-0.21,0.08,
3740,-0.21,0.085,
3741,-0.205,0.06,
3742,-0.19,0.02,
3743,-0.19,0.01,
3744,-0.195,0.03,
3745,-0.23,0.07,
3746,-0.25,0.075,
3747,-0.25,0.045,
3748,-0.22,0.02,
3749,-0.205,0.03,
3750,-0.225,0.025,
3751,-0.23,0.03,
3752,-0.245,0.055,
3753,-0.245,0.095,
3754,-0.225,0.09,
3755,-0.22,0.075,
3756,-0.22,0.005,
3757,-0.23,-0.02,
3758,-0.24,0.005,
3759,-0.235,0.05,
3760,-0.21,0.075,
3761,-0.19,0.06,
3762,-0.185,0.045,
3763,-0.18,0.02,
3764,-0.195,0.015,
3765,-0.215,0.035,
3766,-0.21,0.05,
3767,-0.22,0.03,
3768,-0.225,0.02,
3769,-0.24,0.035,
3770,-0.26,0.05,
3771,-0.245,0.075,
3772,-0.23,0.11,
3773,-0.22,0.105,
3774,-0.22,0.05,
3775,-0.22,0.025,
3776,-0.23,0.035,
3777,-0.215,0.095,
3778,-0.21,0.11,
3779,-0.21,0.07,
3780,-0.23,0.06,
3781,-0.245,0.09,
3782,-0.2,0.14,
3783,-0.095,0.14,
3784,0.07,0.07,
3785,0.215,-0.025,
3786,0.36,-0.09,
3787,0.495,-0.13,
3788,0.615,-0.18,
3789,0.71,-0.235,N
3790,0.775,-0.285,
3791,0.75,-0.345,
3792,0.61,-0.39,
3793,0.41,-0.405,
3794,0.125,-0.37,
3795,-0.24,-0.275,
3796,-0.575,-0.195,
3797,-0.81,-0.135,
3798,-0.88,-0.095,
3799,-0.81,-0.02,
3800,-0.675,0.06,
3801,-0.545,0.09,
3802,-0.44,0.095,
3803,-0.355,0.07,
3804,-0.3,0.03,
3805,-0.26,0.005,
3806,-0.26,0.0,
3807,-0.24,0.035,
3808,-0.2,0.06,
3809,-0.195,0.065,
3810,-0.19,0.04,
3811,-0.195,0.025,
3812,-0.195,0.04,
3813,-0.175,0.07,
3814,-0.155,0.09,
3815,-0.145,0.105,
3816,-0.155,0.1,
3817,-0.17,0.08,
3818,-0.16,0.085,
3819,-0.15,0.1,
3820,-0.12,0.125,
3821,-0.095,0.13,
3822,-0.11,0.11,
3823,-0.11,0.08,
3824,-0.095,0.065,
3825,-0.095,0.1,
3826,-0.075,0.135,
3827,-0.055,0.13,
3828,-0.03,0.085,
3829,-0.03,0.045,
3830,-0.02,0.005,
3831,0.015,0.015,
3832,0.04,0.035,
3833,0.05,0.03,
3834,0.04,0.05,
3835,0.04,0.045,
3836,0.055,0.05,
3837,0.1,0.065,
3838,0.125,0.07,
3839,0.15,0.045,
3840,0.165,0.015,
3841,0.185,0.005,
3842,0.17,0.0,
3843,0.175,0.03,
3844,0.195,0.03,
3845,0.215,0.015,
3846,0.235,-0.005,
3847,0.23,-0.015,
3848,0.22,0.005,
3849,0.23,0.02,
3850,0.255,0.035,
3851,0.27,0.035,
3852,0.24,0.04,
3853,0.195,0.035,
3854,0.19,0.02,
3855,0.215,0.035,
3856,0.225,0.035,
3857,0.215,0.01,
3858,0.18,0.01,
3859,0.145,0.02,
3860,0.145,0.035,
3861,0.14,0.045,
3862,0.125,0.065,
3863,0.095,0.075,
3864,0.05,0.075,
3865,0.005,0.065,
3866,-0.005,0.055,
3867,-0.015,0.05,
3868,-0.025,0.07,
3869,-0.03,0.065,
3870,-0.07,0.075,
3871,-0.11,0.075,
3872,-0.125,0.1,
3873,-0.115,0.125,
3874,-0.115,0.125,
3875,-0.125,0.135,
3876,-0.14,0.085,
3877,-0.17,0.09,
3878,-0.165,0.095,
3879,-0.16,0.085,
3880,-0.17,0.125,
3881,-0.185,0.12,
3882,-0.19,0.115,
3883,-0.185,0.1,
3884,-0.185,0.1,
3885,-0.18,0.115,
3886,-0.16,0.135,
3887,-0.155,0.105,
3888,-0.165,0.08,
3889,-0.19,0.065,
3890,-0.18,0.09,
3891,-0.18,0.1,
3892,-0.19,0.115,
3893,-0.195,0.11,
3894,-0.19,0.095,
3895,-0.2,0.1,
3896,-0.205,0.115,
3897,-0.19,0.13,
3898,-0.16,0.135,
3899,-0.155,0.115,
3900,-0.165,0.135,
3901,-0.17,0.15,
3902,-0.165,0.14,
3903,-0.155,0.145,
3904,-0.125,0.145,
3905,-0.115,0.15,
3906,-0.135,0.155,
3907,-0.135,0.16,
3908,-0.125,0.165,
3909,-0.1,0.17,
3910,-0.07,0.18,
3911,-0.05,0.155,
3912,-0.055,0.135,
3913,-0.09,0.12,
3914,-0.12,0.11,
3915,-0.13,0.115,
3916,-0.145,0.14,
3917,-0.15,0.125,
3918,-0.19,0.085,
3919,-0.21,0.065,
3920,-0.205,0.06,
3921,-0.195,0.105,
3922,-0.17,0.105,
3923,-0.16,0.095,
3924,-0.16,0.09,
3925,-0.165,0.085,
3926,-0.18,0.075,
3927,-0.195,0.075,
3928,-0.185,0.095,
3929,-0.19,0.105,
3930,-0.21,0.075,
3931,-0.225,0.05,
3932,-0.23,0.06,
3933,-0.235,0.085,
3934,-0.225,0.12,
3935,-0.235,0.115,
3936,-0.24,0.11,
3937,-0.25,0.065,
3938,-0.235,0.09,
3939,-0.21,0.11,
3940,-0.21,0.125,
3941,-0.21,0.1,
3942,-0.215,0.07,
3943,-0.23,0.07,
3944,-0.235,0.09,
3945,-0.225,0.115,
3946,-0.2,0.145,
3947,-0.175,0.135,
3948,-0.19,0.115,
3949,-0.21,0.075,
3950,-0.205,0.065,
3951,-0.18,0.09,
3952,-0.18,0.095,
3953,-0.19,0.135,
3954,-0.21,0.14,
3955,-0.24,0.11,
3956,-0.245,0.07,
3957,-0.255,0.045,
3958,-0.24,0.08,
3959,-0.23,0.095,
3960,-0.24,0.1,
3961,-0.25,0.1,
3962,-0.26,0.1,
3963,-0.265,0.165,
3964,-0.245,0.205,
3965,-0.19,0.17,
3966,-0.085,0.105,
3967,0.025,0.03,
3968,0.155,-0.005,
3969,0.31,-0.075,
3970,0.47,-0.12,
3971,0.595,-0.19,N
3972,0.65,-0.27,
3973,0.645,-0.315,
3974,0.57,-0.33,
3975,0.435,-0.305,
3976,0.26,-0.275,
3977,-0.02,-0.24,
3978,-0.365,-0.165,
3979,-0.685,-0.14,
3980,-0.87,-0.115,
3981,-0.885,-0.06,
3982,-0.75,0.05,
3983,-0.61,0.13,
3984,-0.515,0.13,
3985,-0.455,0.065,
3986,-0.39,0.075,
3987,-0.3,0.045,
3988,-0.24,0.055,
3989,-0.225,0.065,
3990,-0.22,0.075,
3991,-0.22,0.055,
3992,-0.21,0.06,
3993,-0.19,0.07,
3994,-0.175,0.11,
3995,-0.16,0.11,
3996,-0.18,0.085,
3997,-0.185,0.055,
3998,-0.19,0.035,
3999,-0.175,0.06,
4000,-0.15,0.075,
4001,-0.115,0.08,
4002,-0.115,0.06,
4003,-0.125,0.035,
4004,-0.13,0.02,
4005,-0.105,0.025,
4006,-0.09,0.06,
4007,-0.07,0.075,
4008,-0.065,0.06,
4009,-0.08,0.045,
4010,-0.075,0.05,
4011,-0.055,0.09,
4012,-0.04,0.105,
4013,-0.015,0.1,
4014,-0.005,0.065,
4015,0.005,0.03,
4016,0.015,-0.01,
4017,0.05,0.015,
4018,0.08,0.035,
4019,0.105,0.025,
4020,0.12,0.015,
4021,0.12,-0.005,
4022,0.13,0.01,
4023,0.155,-0.005,
4024,0.19,0.015,
4025,0.19,0.05,
4026,0.175,0.055,
4027,0.185,0.01,
4028,0.19,-0.05,
4029,0.215,-0.065,
4030,0.245,-0.035,
4031,0.235,-0.005,
4032,0.23,-0.005,
4033,0.205,-0.015,
4034,0.205,-0.03,
4035,0.225,-0.025,
4036,0.235,0.005,
4037,0.235,-0.015,
4038,0.2,-0.05,
4039,0.155,-0.015,
4040,0.115,0.02,
4041,0.095,0.045,
4042,0.095,0.04,
4043,0.09,0.05,
4044,0.075,0.045,
4045,0.035,0.07,
4046,0.01,0.095,
4047,-0.02,0.085,
4048,-0.035,0.055,
4049,-0.05,0.045,
4050,-0.08,0.06,
4051,-0.105,0.08,
4052,-0.115,0.075,
4053,-0.125,0.07,
4054,-0.135,0.075,
4055,-0.145,0.075,
4056,-0.15,0.07,
4057,-0.2,0.08,
4058,-0.235,0.105,
4059,-0.225,0.125,
4060,-0.205,0.145,
4061,-0.185,0.09,
4062,-0.185,0.025,
4063,-0.195,-0.01,
4064,-0.205,0.035,
4065,-0.205,0.055,
4066,-0.18,0.07,
4067,-0.18,0.07,
4068,-0.185,0.095,
4069,-0.215,0.095,
4070,-0.22,0.07,
4071,-0.21,0.035,
4072,-0.165,0.025,
4073,-0.16,0.04,
4074,-0.17,0.035,
4075,-0.185,0.025,
4076,-0.185,0.03,
4077,-0.19,0.055,
4078,-0.19,0.075,
4079,-0.2,0.065,
4080,-0.19,0.045,
4081,-0.19,0.045,
4082,-0.195,0.075,
4083,-0.175,0.11,
4084,-0.16,0.135,
4085,-0.17,0.16,
4086,-0.185,0.18,
4087,-0.175,0.16,
4088,-0.155,0.105,
4089,-0.125,0.055,
4090,-0.09,0.035,
4091,-0.11,0.05,
4092,-0.11,0.08,
4093,-0.125,0.085,
4094,-0.135,0.095,
4095,-0.135,0.075,
4096,-0.14,0.055,
4097,-0.14,0.035,
4098,-0.135,-0.025,
4099,-0.125,-0.075,
4100,-0.155,-0.1,
4101,-0.195,-0.055,
4102,-0.215,-0.01,
4103,-0.215,0.02,
4104,-0.195,0.03,
4105,-0.2,0.02,
4106,-0.185,-0.015,
4107,-0.175,-0.025,
4108,-0.185,-0.02,
4109,-0.205,-0.02,
4110,-0.215,-0.005,
4111,-0.235,-0.03,
4112,-0.235,-0.035,
4113,-0.22,-0.025,
4114,-0.225,-0.015,
4115,-0.23,0.0,
4116,-0.245,-0.02,
4117,-0.255,-0.025,
4118,-0.26,-0.025,
4119,-0.265,0.015,
4120,-0.255,0.025,
4121,-0.235,0.01,
4122,-0.24,0.0,
4123,-0.27,-0.03,
4124,-0.27,-0.06,
4125,-0.25,-0.07,
4126,-0.235,-0.025,
4127,-0.23,0.015,
4128,-0.25,0.015,
4129,-0.27,-0.01,
4130,-0.27,-0.035,
4131,-0.25,-0.055,
4132,-0.24,-0.05,
4133,-0.225,-0.03,
4134,-0.225,-0.045,
4135,-0.24,-0.08,
4136,-0.235,-0.11,
4137,-0.235,-0.07,
4138,-0.235,-0.05,
4139,-0.225,-0.08,
4140,-0.235,-0.095,
4141,-0.25,-0.115,
4142,-0.26,-0.085,
4143,-0.25,-0.07,
4144,-0.235,-0.04,
4145,-0.23,-0.015,
4146,-0.22,0.0,
4147,-0.15,-0.03,
4148,-0.04,-0.075,
4149,0.08,-0.11,
4150,0.205,-0.14,
4151,0.335,-0.21,
4152,0.44,-0.315,
4153,0.51,-0.425,N
4154,0.545,-0.505,
4155,0.525,-0.535,
4156,0.45,-0.495,
4157,0.325,-0.445,
4158,0.07,-0.43,
4159,-0.225,-0.42,
4160,-0.515,-0.35,
4161,-0.735,-0.265,
4162,-0.83,-0.19,
4163,-0.775,-0.12,
4164,-0.66,-0.1,
4165,-0.565,-0.095,
4166,-0.49,-0.075,
4167,-0.415,-0.075,
4168,-0.355,-0.135,
4169,-0.32,-0.16,
4170,-0.275,-0.145,
4171,-0.27,-0.115,
4172,-0.245,-0.11,
4173,-0.23,-0.085,
4174,-0.215,-0.09,
4175,-0.225,-0.11,
4176,-0.23,-0.125,
4177,-0.235,-0.125,
4178,-0.225,-0.11,
4179,-0.2,-0.1,
4180,-0.165,-0.105,
4181,-0.16,-0.13,
4182,-0.145,-0.135,
4183,-0.165,-0.145,
4184,-0.165,-0.12,
4185,-0.165,-0.135,
4186,-0.145,-0.115,
4187,-0.135,-0.1,
4188,-0.13,-0.09,
4189,-0.11,-0.11,
4190,-0.11,-0.14,
4191,-0.08,-0.18,
4192,-0.065,-0.155,
4193,-0.05,-0.17,
4194,-0.05,-0.165,
4195,-0.045,-0.195,
4196,-0.045,-0.21,
4197,0.0,-0.22,
4198,0.035,-0.185,
4199,0.07,-0.14,
4200,0.065,-0.1,
4201,0.065,-0.1,
4202,0.095,-0.125,
4203,0.12,-0.205,
4204,0.125,-0.23,
4205,0.09,-0.21,
4206,0.075,-0.2,
4207,0.075,-0.205,
4208,0.12,-0.21,
4209,0.13,-0.22,
4210,0.16,-0.23,
4211,0.175,-0.21,
4212,0.16,-0.205,
4213,0.135,-0.205,
4214,0.155,-0.205,
4215,0.17,-0.2,
4216,0.2,-0.2,
4217,0.215,-0.225,
4218,0.2,-0.225,
4219,0.175,-0.245,
4220,0.14,-0.23,
4221,0.12,-0.215,
4222,0.145,-0.19,
4223,0.16,-0.19,
4224,0.155,-0.225,
4225,0.105,-0.24,
4226,0.07,-0.26,
4227,0.055,-0.235,
4228,0.055,-0.195,
4229,0.02,-0.17,
4230,-0.005,-0.185,
4231,-0.03,-0.205,
4232,-0.05,-0.2,
4233,-0.07,-0.155,
4234,-0.08,-0.12,
4235,-0.105,-0.125,
4236,-0.125,-0.16,
4237,-0.14,-0.215,
4238,-0.135,-0.245,
4239,-0.135,-0.2,
4240,-0.15,-0.12,
4241,-0.165,-0.07,
4242,-0.175,-0.115,
4243,-0.18,-0.215,
4244,-0.185,-0.24,
4245,-0.18,-0.22,
4246,-0.175,-0.19,
4247,-0.17,-0.19,
4248,-0.175,-0.215,
4249,-0.195,-0.225,
4250,-0.21,-0.205,
4251,-0.21,-0.2,
4252,-0.215,-0.19,
4253,-0.215,-0.195,
4254,-0.22,-0.2,
4255,-0.22,-0.165,
4256,-0.235,-0.115,
4257,-0.205,-0.05,
4258,-0.19,-0.075,
4259,-0.185,-0.14,
4260,-0.205,-0.195,
4261,-0.23,-0.24,
4262,-0.225,-0.245,
4263,-0.205,-0.225,
4264,-0.21,-0.195,
4265,-0.19,-0.185,
4266,-0.2,-0.17,
4267,-0.2,-0.175,
4268,-0.2,-0.185,
4269,-0.19,-0.17,
4270,-0.18,-0.14,
4271,-0.2,-0.155,
4272,-0.205,-0.16,
4273,-0.21,-0.155,
4274,-0.18,-0.15,
4275,-0.16,-0.14,
4276,-0.13,-0.12,
4277,-0.135,-0.12,
4278,-0.15,-0.11,
4279,-0.155,-0.115,
4280,-0.14,-0.14,
4281,-0.125,-0.185,
4282,-0.09,-0.21,
4283,-0.085,-0.235,
4284,-0.105,-0.27,
4285,-0.14,-0.275,
4286,-0.15,-0.255,
4287,-0.155,-0.245,
4288,-0.16,-0.235,
4289,-0.17,-0.23,
4290,-0.17,-0.255,
4291,-0.175,-0.235,
4292,-0.16,-0.19,
4293,-0.15,-0.14,
4294,-0.14,-0.11,
4295,-0.155,-0.12,
4296,-0.18,-0.15,
4297,-0.2,-0.175,
4298,-0.205,-0.215,
4299,-0.185,-0.26,
4300,-0.17,-0.265,
4301,-0.175,-0.25,
4302,-0.205,-0.275,
4303,-0.205,-0.255,
4304,-0.195,-0.235,
4305,-0.2,-0.2,
4306,-0.195,-0.16,
4307,-0.175,-0.17,
4308,-0.185,-0.155,
4309,-0.2,-0.17,
4310,-0.205,-0.16,
4311,-0.21,-0.155,
4312,-0.205,-0.135,
4313,-0.19,-0.165,
4314,-0.185,-0.205,
4315,-0.2,-0.255,
4316,-0.22,-0.26,
4317,-0.21,-0.22,
4318,-0.195,-0.185,
4319,-0.18,-0.135,
4320,-0.185,-0.13,
4321,-0.205,-0.14,
4322,-0.225,-0.185,
4323,-0.195,-0.245,
4324,-0.165,-0.27,
4325,-0.155,-0.275,
4326,-0.17,-0.27,
4327,-0.195,-0.25,
4328,-0.21,-0.19,
4329,-0.22,-0.1,
4330,-0.235,-0.05,
4331,-0.23,-0.07,
4332,-0.18,-0.16,
4333,-0.095,-0.25,
4334,0.02,-0.265,
4335,0.17,-0.27,
4336,0.305,-0.285,
4337,0.46,-0.36,
4338,0.585,-0.45,
4339,0.665,-0.53,N
4340,0.705,-0.55,
4341,0.665,-0.565,
4342,0.55,-0.54,
4343,0.355,-0.555,
4344,0.035,-0.52,
4345,-0.32,-0.485,
4346,-0.61,-0.445,
4347,-0.79,-0.395,
4348,-0.77,-0.31,
4349,-0.655,-0.215,
4350,-0.53,-0.17,
4351,-0.45,-0.195,
4352,-0.38,-0.205,
4353,-0.305,-0.2,
4354,-0.25,-0.145,
4355,-0.225,-0.125,
4356,-0.225,-0.145,
4357,-0.23,-0.175,
4358,-0.225,-0.18,
4359,-0.2,-0.175,
4360,-0.17,-0.185,
4361,-0.14,-0.265,
4362,-0.13,-0.32,
4363,-0.15,-0.295,
4364,-0.17,-0.22,
4365,-0.145,-0.175,
4366,-0.135,-0.13,
4367,-0.125,-0.095,
4368,-0.12,-0.11,
4369,-0.115,-0.17,
4370,-0.095,-0.235,
4371,-0.08,-0.26,
4372,-0.05,-0.23,
4373,-0.03,-0.235,
4374,-0.03,-0.24,
4375,-0.03,-0.26,
4376,-0.055,-0.255,
4377,-0.03,-0.22,
4378,0.005,-0.17,
4379,0.04,-0.2,
4380,0.065,-0.25,
4381,0.055,-0.275,
4382,0.06,-0.235,
4383,0.08,-0.15,
4384,0.11,-0.11,
4385,0.14,-0.12,
4386,0.135,-0.16,
4387,0.14,-0.2,
4388,0.16,-0.21,
4389,0.19,-0.26,
4390,0.22,-0.305,
4391,0.245,-0.33,
4392,0.225,-0.295,
4393,0.21,-0.255,
4394,0.215,-0.22,
4395,0.255,-0.22,
4396,0.28,-0.22,
4397,0.275,-0.23,
4398,0.27,-0.225,
4399,0.245,-0.23,
4400,0.225,-0.225,
4401,0.22,-0.175,
4402,0.245,-0.14,
4403,0.23,-0.125,
4404,0.2,-0.18,
4405,0.155,-0.215,
4406,0.115,-0.205,
4407,0.1,-0.175,
4408,0.11,-0.21,
4409,0.13,-0.26,
4410,0.12,-0.28,
4411,0.08,-0.24,
4412,0.045,-0.17,
4413,0.01,-0.105,
4414,-0.01,-0.1,
4415,-0.05,-0.08,
4416,-0.06,-0.09,
4417,-0.055,-0.145,
4418,-0.06,-0.195,
4419,-0.09,-0.19,
4420,-0.1,-0.17,
4421,-0.125,-0.16,
4422,-0.125,-0.145,
4423,-0.115,-0.105,
4424,-0.135,-0.09,
4425,-0.15,-0.13,
4426,-0.16,-0.16,
4427,-0.145,-0.17,
4428,-0.135,-0.17,
4429,-0.15,-0.175,
4430,-0.165,-0.155,
4431,-0.17,-0.105,
4432,-0.16,-0.09,
4433,-0.15,-0.11,
4434,-0.175,-0.14,
4435,-0.185,-0.19,
4436,-0.18,-0.18,
4437,-0.16,-0.14,
4438,-0.14,-0.065,
4439,-0.15,-0.02,
4440,-0.18,-0.05,
4441,-0.19,-0.16,
4442,-0.185,-0.26,
4443,-0.15,-0.27,
4444,-0.14,-0.22,
4445,-0.165,-0.155,
4446,-0.195,-0.095,
4447,-0.205,-0.06,
4448,-0.18,-0.045,
4449,-0.135,-0.075,
4450,-0.095,-0.105,
4451,-0.095,-0.125,
4452,-0.11,-0.12,
4453,-0.135,-0.1,
4454,-0.13,-0.05,
4455,-0.11,-0.065,
4456,-0.08,-0.08,
4457,-0.075,-0.105,
4458,-0.075,-0.135,
4459,-0.08,-0.16,
4460,-0.095,-0.15,
4461,-0.09,-0.085,
4462,-0.095,-0.045,
4463,-0.115,-0.06,
4464,-0.135,-0.14,
4465,-0.145,-0.235,
4466,-0.125,-0.255,
4467,-0.1,-0.235,
4468,-0.105,-0.18,
4469,-0.11,-0.17,
4470,-0.14,-0.145,
4471,-0.155,-0.12,
4472,-0.16,-0.11,
4473,-0.155,-0.09,
4474,-0.15,-0.085,
4475,-0.17,-0.07,
4476,-0.21,-0.065,
4477,-0.245,-0.085,
4478,-0.23,-0.12,
4479,-0.165,-0.145,
4480,-0.155,-0.15,
4481,-0.175,-0.145,
4482,-0.22,-0.135,
4483,-0.24,-0.13,
4484,-0.235,-0.09,
4485,-0.195,-0.11,
4486,-0.17,-0.125,
4487,-0.16,-0.11,
4488,-0.175,-0.065,
4489,-0.2,-0.065,
4490,-0.195,-0.135,
4491,-0.19,-0.23,
4492,-0.18,-0.24,
4493,-0.16,-0.2,
4494,-0.19,-0.17,
4495,-0.225,-0.165,
4496,-0.235,-0.15,
4497,-0.21,-0.085,
4498,-0.21,-0.005,
4499,-0.205,-0.005,
4500,-0.22,-0.025,
4501,-0.21,-0.095,
4502,-0.195,-0.125,
4503,-0.175,-0.14,
4504,-0.17,-0.135,
4505,-0.165,-0.145,
4506,-0.175,-0.165,
4507,-0.2,-0.165,
4508,-0.2,-0.14,
4509,-0.215,-0.095,
4510,-0.2,-0.05,
4511,-0.18,-0.05,
4512,-0.175,-0.08,
4513,-0.15,-0.09,
4514,-0.09,-0.1,
4515,0.055,-0.135,
4516,0.205,-0.135,
4517,0.335,-0.18,
4518,0.46,-0.25,
4519,0.565,-0.335,
4520,0.66,-0.41,N
4521,0.77,-0.485,
4522,0.81,-0.5,
4523,0.715,-0.535,
4524,0.53,-0.55,
4525,0.275,-0.525,
4526,-0.07,-0.46,
4527,-0.385,-0.395,
4528,-0.615,-0.345,
4529,-0.735,-0.305,
4530,-0.745,-0.25,
4531,-0.66,-0.225,
4532,-0.555,-0.205,
4533,-0.46,-0.18,
4534,-0.375,-0.155,
4535,-0.335,-0.15,
4536,-0.3,-0.13,
4537,-0.27,-0.105,
4538,-0.25,-0.06,
4539,-0.22,-0.04,
4540,-0.205,-0.005,
4541,-0.21,-0.03,
4542,-0.19,-0.065,
4543,-0.17,-0.14,
4544,-0.165,-0.21,
4545,-0.165,-0.175,
4546,-0.18,-0.13,
4547,-0.185,-0.1,
4548,-0.19,-0.11,
4549,-0.185,-0.11,
4550,-0.18,-0.08,
4551,-0.165,-0.05,
4552,-0.14,-0.04,
4553,-0.125,-0.07,
4554,-0.13,-0.08,
4555,-0.145,-0.035,
4556,-0.15,0.01,
4557,-0.13,-0.005,
4558,-0.075,-0.1,
4559,-0.035,-0.205,
4560,0.005,-0.245,
4561,0.025,-0.23,
4562,0.035,-0.185,
4563,0.01,-0.175,
4564,0.01,-0.18,
4565,0.01,-0.195,
4566,0.005,-0.165,
4567,0.03,-0.13,
4568,0.075,-0.11,
4569,0.135,-0.085,
4570,0.18,-0.055,
4571,0.19,-0.03,
4572,0.165,-0.07,
4573,0.16,-0.11,
4574,0.155,-0.12,
4575,0.165,-0.09,
4576,0.19,-0.115,
4577,0.22,-0.165,
4578,0.235,-0.225,
4579,0.245,-0.26,
4580,0.255,-0.25,
4581,0.265,-0.155,
4582,0.245,-0.065,
4583,0.245,-0.03,
4584,0.235,-0.06,
4585,0.23,-0.1,
4586,0.21,-0.07,
4587,0.205,-0.06,
4588,0.21,-0.105,
4589,0.245,-0.185,
4590,0.25,-0.215,
4591,0.21,-0.17,
4592,0.175,-0.135,
4593,0.165,-0.145,
4594,0.17,-0.19,
4595,0.145,-0.19,
4596,0.11,-0.165,
4597,0.075,-0.105,
4598,0.025,-0.065,
4599,0.015,-0.03,
4600,0.015,-0.035,
4601,-0.015,-0.025,
4602,-0.06,-0.055,
4603,-0.105,-0.08,
4604,-0.105,-0.1,
4605,-0.08,-0.09,
4606,-0.065,-0.075,
4607,-0.08,-0.02,
4608,-0.12,0.0,
4609,-0.15,-0.03,
4610,-0.14,-0.085,
4611,-0.135,-0.1,
4612,-0.125,-0.09,
4613,-0.135,-0.07,
4614,-0.135,-0.125,
4615,-0.145,-0.155,
4616,-0.175,-0.135,
4617,-0.185,-0.105,
4618,-0.18,-0.035,
4619,-0.17,-0.02,
4620,-0.145,0.0,
4621,-0.15,-0.005,
4622,-0.185,-0.03,
4623,-0.195,-0.05,
4624,-0.195,-0.055,
4625,-0.18,-0.07,
4626,-0.165,-0.11,
4627,-0.165,-0.125,
4628,-0.18,-0.075,
4629,-0.19,-0.005,
4630,-0.185,0.035,
4631,-0.165,0.005,
4632,-0.145,-0.035,
4633,-0.15,-0.075,
4634,-0.18,-0.075,
4635,-0.195,-0.065,
4636,-0.19,-0.04,
4637,-0.16,-0.01,
4638,-0.135,-0.015,
4639,-0.13,-0.065,
4640,-0.1,-0.08,
4641,-0.1,-0.03,
4642,-0.12,0.025,
4643,-0.135,0.005,
4644,-0.115,-0.055,
4645,-0.11,-0.065,
4646,-0.105,-0.06,
4647,-0.08,-0.03,
4648,-0.065,0.02,
4649,-0.04,0.01,
4650,-0.07,-0.035,
4651,-0.1,-0.08,
4652,-0.14,-0.08,
4653,-0.14,-0.055,
4654,-0.14,-0.02,
4655,-0.13,-0.04,
4656,-0.135,-0.045,
4657,-0.165,-0.015,
4658,-0.16,-0.015,
4659,-0.15,-0.05,
4660,-0.13,-0.085,
4661,-0.115,-0.12,
4662,-0.12,-0.11,
4663,-0.14,-0.12,
4664,-0.16,-0.085,
4665,-0.17,-0.03,
4666,-0.18,0.035,
4667,-0.19,0.06,
4668,-0.2,0.035,
4669,-0.2,-0.065,
4670,-0.205,-0.1,
4671,-0.23,-0.095,
4672,-0.23,-0.045,
4673,-0.22,-0.055,
4674,-0.215,-0.065,
4675,-0.215,-0.08,
4676,-0.21,-0.055,
4677,-0.175,-0.01,
4678,-0.16,0.0,
4679,-0.16,-0.035,
4680,-0.17,-0.095,
4681,-0.195,-0.12,
4682,-0.225,-0.095,
4683,-0.22,-0.07,
4684,-0.185,-0.04,
4685,-0.18,-0.04,
4686,-0.195,-0.045,
4687,-0.22,-0.035,
4688,-0.21,-0.015,
4689,-0.185,0.01,
4690,-0.185,0.02,
4691,-0.215,-0.005,
4692,-0.215,-0.015,
4693,-0.235,0.005,
4694,-0.235,-0.005,
4695,-0.21,-0.02,
4696,-0.195,-0.04,
4697,-0.185,-0.065,
4698,-0.21,-0.09,
4699,-0.25,-0.085,
4700,-0.26,-0.065,
4701,-0.24,-0.035,
4702,-0.205,-0.005,
4703,-0.195,0.015,
4704,-0.16,-0.02,
4705,-0.08,-0.08,
4706,0.065,-0.13,
4707,0.2,-0.145,
4708,0.355,-0.17,
4709,0.48,-0.2,
4710,0.585,-0.235,
4711,0.68,-0.285,N
4712,0.73,-0.34,
4713,0.705,-0.375,
4714,0.59,-0.395,
4715,0.345,-0.415,
4716,-0.035,-0.39,
4717,-0.385,-0.33,
4718,-0.645,-0.275,
4719,-0.795,-0.23,
4720,-0.8,-0.165,
4721,-0.705,-0.1,
4722,-0.615,-0.095,
4723,-0.525,-0.11,
4724,-0.455,-0.095,
4725,-0.385,-0.035,
4726,-0.305,-0.025,
4727,-0.27,-0.03,
4728,-0.255,-0.06,
4729,-0.255,-0.085,
4730,-0.225,-0.1,
4731,-0.19,-0.07,
4732,-0.17,-0.02,
4733,-0.195,-0.015,
4734,-0.22,-0.025,
4735,-0.22,-0.03,
4736,-0.195,-0.03,
4737,-0.195,-0.015,
4738,-0.21,-0.025,
4739,-0.21,-0.055,
4740,-0.2,-0.07,
4741,-0.19,-0.08,
4742,-0.165,-0.045,
4743,-0.145,-0.025,
4744,-0.145,-0.035,
4745,-0.125,-0.045,
4746,-0.105,-0.06,
4747,-0.105,-0.08,
4748,-0.115,-0.065,
4749,-0.125,-0.04,
4750,-0.11,-0.015,
4751,-0.105,-0.02,
4752,-0.09,-0.005,
4753,-0.095,-0.005,
4754,-0.08,0.0,
4755,-0.045,-0.01,
4756,-0.005,-0.015,
4757,0.005,0.005,
4758,0.005,-0.01,
4759,0.0,-0.035,
4760,0.03,-0.07,
4761,0.075,-0.11,
4762,0.11,-0.13,
4763,0.1,-0.125,
4764,0.095,-0.105,
4765,0.095,-0.09,
4766,0.13,-0.085,
4767,0.155,-0.1,
4768,0.17,-0.08,
4769,0.175,-0.095,
4770,0.165,-0.095,
4771,0.155,-0.085,
4772,0.15,-0.04,
4773,0.155,-0.04,
4774,0.195,-0.04,
4775,0.22,-0.075,
4776,0.22,-0.09,
4777,0.2,-0.07,
4778,0.175,-0.045,
4779,0.165,-0.02,
4780,0.155,-0.025,
4781,0.14,-0.065,
4782,0.115,-0.065,
4783,0.105,-0.065,
4784,0.1,-0.06,
4785,0.12,-0.045,
4786,0.13,-0.035,
4787,0.1,-0.025,
4788,0.05,-0.035,
4789,0.0,-0.02,
4790,-0.03,-0.02,
4791,-0.05,-0.005,
4792,-0.075,0.045,
4793,-0.105,0.045,
4794,-0.15,0.02,
4795,-0.17,0.0,
4796,-0.19,-0.005,
4797,-0.195,-0.005,
4798,-0.195,0.035,
4799,-0.21,0.04,
4800,-0.225,0.025,
4801,-0.235,0.01,
4802,-0.255,-0.04,
4803,-0.245,-0.05,
4804,-0.215,-0.065,
4805,-0.23,-0.05,
4806,-0.25,-0.04,
4807,-0.285,-0.02,
4808,-0.29,0.0,
4809,-0.3,0.03,
4810,-0.3,0.085,
4811,-0.315,0.13,
4812,-0.34,0.165,
4813,-0.335,0.145,
4814,-0.315,0.125,
4815,-0.3,0.05,
4816,-0.285,-0.02,
4817,-0.265,-0.07,
4818,-0.28,-0.065,
4819,-0.28,-0.02,
4820,-0.28,0.005,
4821,-0.29,0.02,
4822,-0.275,0.02,
4823,-0.285,0.01,
4824,-0.3,0.0,
4825,-0.32,0.005,
4826,-0.335,0.025,
4827,-0.325,0.05,
4828,-0.32,0.075,
4829,-0.295,0.07,
4830,-0.305,0.1,
4831,-0.315,0.12,
4832,-0.32,0.145,
4833,-0.315,0.15,
4834,-0.285,0.12,
4835,-0.28,0.115,
4836,-0.27,0.095,
4837,-0.28,0.07,
4838,-0.28,0.065,
4839,-0.24,0.07,
4840,-0.205,0.075,
4841,-0.205,0.095,
4842,-0.215,0.095,
4843,-0.225,0.07,
4844,-0.23,0.085,
4845,-0.23,0.07,
4846,-0.22,0.065,
4847,-0.23,0.06,
4848,-0.245,0.035,
4849,-0.26,-0.01,
4850,-0.27,0.0,
4851,-0.275,-0.005,
4852,-0.28,0.025,
4853,-0.275,0.065,
4854,-0.295,0.07,
4855,-0.315,0.075,
4856,-0.32,0.075,
4857,-0.305,0.065,
4858,-0.27,0.065,
4859,-0.255,0.03,
4860,-0.28,0.045,
4861,-0.31,0.03,
4862,-0.325,0.035,
4863,-0.33,0.06,
4864,-0.31,0.04,
4865,-0.315,0.04,
4866,-0.32,0.05,
4867,-0.375,0.065,
4868,-0.41,0.09,
4869,-0.4,0.105,
4870,-0.36,0.11,
4871,-0.33,0.075,
4872,-0.34,0.06,
4873,-0.375,0.035,
4874,-0.385,0.065,
4875,-0.365,0.095,
4876,-0.36,0.1,
4877,-0.365,0.075,
4878,-0.355,0.045,
4879,-0.34,0.025,
4880,-0.325,0.035,
4881,-0.31,0.055,
4882,-0.305,0.075,
4883,-0.31,0.065,
4884,-0.34,0.045,
4885,-0.35,0.03,
4886,-0.37,0.06,
4887,-0.35,0.095,
4888,-0.36,0.115,
4889,-0.37,0.105,
4890,-0.385,0.085,
4891,-0.405,0.085,
4892,-0.39,0.09,
4893,-0.36,0.145,
4894,-0.32,0.145,
4895,-0.3,0.11,
4896,-0.31,0.065,
4897,-0.355,0.05,
4898,-0.385,0.07,
4899,-0.395,0.09,
4900,-0.395,0.105,
4901,-0.395,0.1,
4902,-0.38,0.125,
4903,-0.32,0.12,
4904,-0.235,0.095,
4905,-0.09,0.06,
4906,0.065,0.03,
4907,0.23,-0.005,
4908,0.36,-0.045,
4909,0.45,-0.085,
4910,0.51,-0.085,N
4911,0.56,-0.1,
4912,0.545,-0.145,
4913,0.46,-0.195,
4914,0.285,-0.265,
4915,0.005,-0.265,
4916,-0.32,-0.195,
4917,-0.59,-0.12,
4918,-0.78,-0.09,
4919,-0.875,-0.07,
4920,-0.87,-0.055,
4921,-0.81,0.005,
4922,-0.745,0.065,
4923,-0.675,0.09,
4924,-0.6,0.115,
4925,-0.52,0.085,
4926,-0.47,0.075,
4927,-0.445,0.065,
4928,-0.43,0.08,
4929,-0.38,0.095,
4930,-0.34,0.13,
4931,-0.3,0.125,
4932,-0.3,0.085,
4933,-0.31,0.025,
4934,-0.295,0.03,
4935,-0.29,0.045,
4936,-0.285,0.11,
4937,-0.285,0.155,
4938,-0.29,0.17,
4939,-0.3,0.16,
4940,-0.31,0.145,
4941,-0.31,0.145,
4942,-0.295,0.15,
4943,-0.29,0.15,
4944,-0.28,0.12,
4945,-0.28,0.08,
4946,-0.265,0.055,
4947,-0.23,0.06,
4948,-0.185,0.075,
4949,-0.165,0.07,
4950,-0.16,0.05,
4951,-0.175,0.045,
4952,-0.175,0.075,
4953,-0.155,0.1,
4954,-0.145,0.11,
4955,-0.155,0.115,
4956,-0.175,0.12,
4957,-0.185,0.115,
4958,-0.18,0.135,
4959,-0.15,0.145,
4960,-0.105,0.165,
4961,-0.055,0.13,
4962,-0.035,0.08,
4963,-0.03,0.06,
4964,-0.025,0.075,
4965,0.0,0.12,
4966,0.03,0.1,
4967,0.035,0.05,
4968,0.02,0.01,
4969,-0.005,0.05,
4970,0.005,0.06,
4971,0.055,0.115,
4972,0.105,0.13,
4973,0.13,0.115,
4974,0.14,0.08,
4975,0.125,0.05,
4976,0.11,0.05,
4977,0.12,0.06,
4978,0.135,0.095,
4979,0.12,0.085,
4980,0.1,0.07,
4981,0.09,0.075,
4982,0.105,0.095,
4983,0.15,0.125,
4984,0.17,0.105,
4985,0.12,0.08,
4986,0.08,0.045,
4987,0.035,0.04,
4988,0.03,0.065,
4989,0.025,0.11,
4990,0.04,0.13,
4991,0.03,0.11,
4992,0.02,0.105,
4993,0.015,0.085,
4994,-0.02,0.075,
4995,-0.05,0.09,
4996,-0.09,0.12,
4997,-0.125,0.145,
4998,-0.16,0.15,
4999,-0.195,0.14,
5000,-0.215,0.13,
5001,-0.21,0.15,
5002,-0.19,0.155,
5003,-0.19,0.185,
5004,-0.23,0.18,
5005,-0.245,0.19,
5006,-0.265,0.205,
5007,-0.27,0.205,
5008,-0.285,0.185,
5009,-0.29,0.145,
5010,-0.29,0.1,
5011,-0.3,0.085,
5012,-0.3,0.085,
5013,-0.29,0.125,
5014,-0.285,0.145,
5015,-0.27,0.135,
5016,-0.27,0.155,
5017,-0.29,0.145,
5018,-0.28,0.165,
5019,-0.255,0.175,
5020,-0.235,0.195,
5021,-0.295,0.175,
5022,-0.35,0.17,
5023,-0.365,0.145,
5024,-0.34,0.17,
5025,-0.305,0.225,
5026,-0.27,0.22,
5027,-0.245,0.17,
5028,-0.225,0.07,
5029,-0.225,0.035,
5030,-0.235,0.06,
5031,-0.245,0.115,
5032,-0.25,0.16,
5033,-0.24,0.155,
5034,-0.255,0.15,
5035,-0.28,0.17,
5036,-0.3,0.175,
5037,-0.325,0.205,
5038,-0.33,0.24,
5039,-0.31,0.225,
5040,-0.3,0.21,
5041,-0.275,0.22,
5042,-0.265,0.245,
5043,-0.225,0.24,
5044,-0.205,0.23,
5045,-0.21,0.195,
5046,-0.205,0.155,
5047,-0.21,0.15,
5048,-0.205,0.16,
5049,-0.215,0.17,
5050,-0.205,0.175,
5051,-0.22,0.165,
5052,-0.255,0.14,
5053,-0.255,0.155,
5054,-0.26,0.15,
5055,-0.245,0.135,
5056,-0.235,0.105,
5057,-0.255,0.075,
5058,-0.275,0.075,
5059,-0.29,0.11,
5060,-0.275,0.135,
5061,-0.285,0.17,
5062,-0.275,0.165,
5063,-0.275,0.15,
5064,-0.28,0.145,
5065,-0.305,0.14,
5066,-0.305,0.175,
5067,-0.295,0.185,
5068,-0.295,0.19,
5069,-0.32,0.155,
5070,-0.34,0.145,
5071,-0.325,0.13,
5072,-0.325,0.13,
5073,-0.29,0.145,
5074,-0.28,0.155,
5075,-0.29,0.175,
5076,-0.305,0.17,
5077,-0.335,0.15,
5078,-0.325,0.155,
5079,-0.305,0.185,
5080,-0.28,0.2,
5081,-0.285,0.17,
5082,-0.295,0.12,
5083,-0.3,0.09,
5084,-0.305,0.09,
5085,-0.31,0.125,
5086,-0.275,0.14,
5087,-0.27,0.13,
5088,-0.275,0.125,
5089,-0.27,0.125,
5090,-0.28,0.135,
5091,-0.29,0.145,
5092,-0.305,0.17,
5093,-0.335,0.185,
5094,-0.34,0.155,
5095,-0.33,0.15,
5096,-0.32,0.13,
5097,-0.29,0.145,
5098,-0.26,0.16,
5099,-0.265,0.18,
5100,-0.295,0.165,
5101,-0.335,0.175,
5102,-0.375,0.215,
5103,-0.365,0.235,
5104,-0.32,0.22,
5105,-0.245,0.17,
5106,-0.16,0.105,
5107,-0.04,0.045,
5108,0.125,0.005,
5109,0.305,0.005,
5110,0.46,-0.005,
5111,0.555,-0.045,N
5112,0.595,-0.075,
5113,0.58,-0.12,
5114,0.505,-0.1,
5115,0.35,-0.105,
5116,0.09,-0.065,
5117,-0.235,-0.01,
5118,-0.53,0.055,
5119,-0.76,0.07,
5120,-0.87,0.09,
5121,-0.84,0.12,
5122,-0.71,0.135,
5123,-0.605,0.13,
5124,-0.545,0.12,
5125,-0.465,0.115,
5126,-0.385,0.13,
5127,-0.335,0.16,
5128,-0.295,0.17,
5129,-0.3,0.175,
5130,-0.3,0.135,
5131,-0.295,0.115,
5132,-0.29,0.135,
5133,-0.26,0.165,
5134,-0.24,0.17,
5135,-0.245,0.17,
5136,-0.25,0.145,
5137,-0.245,0.15,
5138,-0.245,0.165,
5139,-0.23,0.18,
5140,-0.205,0.185,
5141,-0.22,0.185,
5142,-0.245,0.16,
5143,-0.25,0.155,
5144,-0.24,0.16,
5145,-0.215,0.175,
5146,-0.2,0.19,
5147,-0.215,0.18,
5148,-0.205,0.17,
5149,-0.2,0.165,
5150,-0.18,0.17,
5151,-0.155,0.17,
5152,-0.13,0.18,
5153,-0.12,0.155,
5154,-0.135,0.135,
5155,-0.13,0.13,
5156,-0.11,0.135,
5157,-0.085,0.155,
5158,-0.05,0.18,
5159,-0.025,0.175,
5160,-0.035,0.155,
5161,-0.04,0.13,
5162,-0.03,0.165,
5163,0.015,0.16,
5164,0.075,0.155,
5165,0.095,0.14,
5166,0.085,0.115,
5167,0.045,0.11,
5168,0.05,0.12,
5169,0.085,0.17,
5170,0.13,0.185,
5171,0.14,0.155,
5172,0.15,0.15,
5173,0.13,0.145,
5174,0.13,0.13,
5175,0.16,0.125,
5176,0.195,0.125,
5177,0.2,0.125,
5178,0.18,0.095,
5179,0.14,0.085,
5180,0.125,0.09,
5181,0.13,0.115,
5182,0.145,0.145,
5183,0.135,0.15,
5184,0.11,0.15,
5185,0.07,0.15,
5186,0.055,0.15,
5187,0.03,0.155,
5188,0.005,0.125,
5189,-0.01,0.12,
5190,-0.04,0.085,
5191,-0.075,0.08,
5192,-0.08,0.09,
5193,-0.085,0.09,
5194,-0.115,0.12,
5195,-0.135,0.105,
5196,-0.155,0.085,
5197,-0.165,0.075,
5198,-0.185,0.09,
5199,-0.19,0.11,
5200,-0.205,0.12,
5201,-0.2,0.095,
5202,-0.205,0.095,
5203,-0.23,0.095,
5204,-0.22,0.11,
5205,-0.215,0.105,
5206,-0.215,0.115,
5207,-0.22,0.09,
5208,-0.245,0.075,
5209,-0.275,0.085,
5210,-0.275,0.105,
5211,-0.25,0.115,
5212,-0.225,0.115,
5213,-0.24,0.1,
5214,-0.245,0.095,
5215,-0.255,0.065,
5216,-0.255,0.085,
5217,-0.225,0.105,
5218,-0.22,0.1,
5219,-0.22,0.085,
5220,-0.225,0.08,
5221,-0.26,0.09,
5222,-0.275,0.095,
5223,-0.265,0.095,
5224,-0.265,0.085,
5225,-0.27,0.105,
5226,-0.285,0.09,
5227,-0.275,0.12,
5228,-0.255,0.115,
5229,-0.22,0.115,
5230,-0.195,0.105,
5231,-0.205,0.1,
5232,-0.23,0.1,
5233,-0.235,0.1,
5234,-0.22,0.135,
5235,-0.2,0.155,
5236,-0.185,0.155,
5237,-0.18,0.16,
5238,-0.19,0.14,
5239,-0.18,0.115,
5240,-0.175,0.11,
5241,-0.155,0.1,
5242,-0.14,0.095,
5243,-0.135,0.115,
5244,-0.16,0.105,
5245,-0.185,0.095,
5246,-0.195,0.09,
5247,-0.19,0.095,
5248,-0.185,0.1,
5249,-0.185,0.105,
5250,-0.21,0.065,
5251,-0.23,0.055,
5252,-0.235,0.085,
5253,-0.225,0.115,
5254,-0.22,0.155,
5255,-0.215,0.17,
5256,-0.225,0.135,
5257,-0.235,0.125,
5258,-0.21,0.115,
5259,-0.19,0.115,
5260,-0.215,0.125,
5261,-0.26,0.115,
5262,-0.28,0.105,
5263,-0.275,0.085,
5264,-0.265,0.09,
5265,-0.23,0.1,
5266,-0.215,0.095,
5267,-0.225,0.095,
5268,-0.255,0.09,
5269,-0.27,0.095,
5270,-0.285,0.125,
5271,-0.275,0.145,
5272,-0.255,0.14,
5273,-0.225,0.125,
5274,-0.22,0.11,
5275,-0.24,0.09,
5276,-0.245,0.115,
5277,-0.26,0.145,
5278,-0.245,0.17,
5279,-0.26,0.155,
5280,-0.255,0.135,
5281,-0.25,0.125,
5282,-0.25,0.135,
5283,-0.26,0.16,
5284,-0.255,0.165,
5285,-0.24,0.14,
5286,-0.21,0.105,
5287,-0.215,0.1,
5288,-0.21,0.11,
5289,-0.195,0.125,
5290,-0.175,0.13,
5291,-0.18,0.125,
5292,-0.215,0.095,
5293,-0.265,0.11,
5294,-0.27,0.13,
5295,-0.24,0.135,
5296,-0.215,0.135,
5297,-0.23,0.15,
5298,-0.25,0.15,
5299,-0.285,0.15,
5300,-0.26,0.185,
5301,-0.19,0.18,
5302,-0.115,0.145,
5303,-0.02,0.09,
5304,0.1,0.05,
5305,0.25,0.04,
5306,0.42,0.025,
5307,0.57,0.005,
5308,0.685,-0.025,
5309,0.765,-0.09,N
5310,0.79,-0.17,
5311,0.715,-0.165,
5312,0.565,-0.09,
5313,0.3,-0.055,
5314,-0.015,-0.01,
5315,-0.335,-0.005,
5316,-0.605,-0.005,
5317,-0.72,-0.01,
5318,-0.73,0.035,
5319,-0.665,0.09,
5320,-0.575,0.12,
5321,-0.53,0.135,
5322,-0.5,0.165,
5323,-0.455,0.165,
5324,-0.375,0.15,
5325,-0.295,0.145,
5326,-0.25,0.12,
5327,-0.235,0.145,
5328,-0.245,0.155,
5329,-0.26,0.155,
5330,-0.255,0.155,
5331,-0.23,0.16,
5332,-0.17,0.155,
5333,-0.135,0.095,
5334,-0.15,0.07,
5335,-0.175,0.055,
5336,-0.175,0.08,
5337,-0.165,0.115,
5338,-0.15,0.12,
5339,-0.145,0.125,
5340,-0.155,0.095,
5341,-0.15,0.065,
5342,-0.135,0.06,
5343,-0.11,0.095,
5344,-0.07,0.135,
5345,-0.07,0.12,
5346,-0.09,0.13,
5347,-0.13,0.16,
5348,-0.145,0.185,
5349,-0.115,0.185,
5350,-0.075,0.175,
5351,-0.055,0.125,
5352,-0.06,0.11,
5353,-0.065,0.105,
5354,-0.045,0.11,
5355,-0.02,0.13,
5356,0.01,0.13,
5357,0.035,0.1,
5358,0.065,0.08,
5359,0.055,0.055,
5360,0.07,0.05,
5361,0.07,0.075,
5362,0.095,0.08,
5363,0.1,0.09,
5364,0.12,0.08,
5365,0.13,0.07,
5366,0.155,0.075,
5367,0.155,0.07,
5368,0.19,0.085,
5369,0.19,0.1,
5370,0.165,0.09,
5371,0.17,0.075,
5372,0.195,0.08,
5373,0.26,0.095,
5374,0.3,0.105,
5375,0.27,0.105,
5376,0.205,0.065,
5377,0.175,0.055,
5378,0.19,0.06,
5379,0.2,0.09,
5380,0.18,0.105,
5381,0.16,0.12,
5382,0.14,0.09,
5383,0.115,0.1,
5384,0.115,0.1,
5385,0.125,0.125,
5386,0.11,0.13,
5387,0.065,0.115,
5388,0.03,0.09,
5389,0.01,0.065,
5390,0.0,0.08,
5391,-0.005,0.085,
5392,-0.03,0.105,
5393,-0.06,0.145,
5394,-0.08,0.16,
5395,-0.08,0.175,
5396,-0.105,0.19,
5397,-0.125,0.195,
5398,-0.16,0.185,
5399,-0.19,0.17,
5400,-0.205,0.14,
5401,-0.2,0.16,
5402,-0.185,0.17,
5403,-0.15,0.175,
5404,-0.115,0.145,
5405,-0.12,0.11,
5406,-0.145,0.095,
5407,-0.175,0.08,
5408,-0.2,0.105,
5409,-0.195,0.155,
5410,-0.205,0.175,
5411,-0.23,0.185,
5412,-0.255,0.145,
5413,-0.28,0.12,
5414,-0.26,0.14,
5415,-0.25,0.16,
5416,-0.24,0.155,
5417,-0.24,0.15,
5418,-0.23,0.12,
5419,-0.235,0.095,
5420,-0.24,0.12,
5421,-0.255,0.17,
5422,-0.25,0.195,
5423,-0.24,0.205,
5424,-0.235,0.185,
5425,-0.22,0.15,
5426,-0.225,0.155,
5427,-0.225,0.135,
5428,-0.22,0.135,
5429,-0.215,0.12,
5430,-0.205,0.145,
5431,-0.195,0.175,
5432,-0.185,0.2,
5433,-0.16,0.18,
5434,-0.135,0.17,
5435,-0.135,0.15,
5436,-0.14,0.15,
5437,-0.145,0.18,
5438,-0.15,0.205,
5439,-0.12,0.2,
5440,-0.125,0.175,
5441,-0.145,0.155,
5442,-0.18,0.155,
5443,-0.18,0.145,
5444,-0.18,0.14,
5445,-0.19,0.13,
5446,-0.17,0.105,
5447,-0.18,0.13,
5448,-0.215,0.115,
5449,-0.24,0.135,
5450,-0.245,0.145,
5451,-0.23,0.13,
5452,-0.225,0.12,
5453,-0.235,0.095,
5454,-0.255,0.07,
5455,-0.26,0.08,
5456,-0.27,0.12,
5457,-0.26,0.165,
5458,-0.27,0.23,
5459,-0.28,0.25,
5460,-0.265,0.24,
5461,-0.285,0.195,
5462,-0.275,0.155,
5463,-0.255,0.145,
5464,-0.215,0.145,
5465,-0.22,0.16,
5466,-0.25,0.15,
5467,-0.27,0.14,
5468,-0.275,0.13,
5469,-0.265,0.105,
5470,-0.225,0.085,
5471,-0.205,0.09,
5472,-0.225,0.08,
5473,-0.25,0.11,
5474,-0.275,0.17,
5475,-0.27,0.21,
5476,-0.265,0.245,
5477,-0.27,0.235,
5478,-0.285,0.175,
5479,-0.305,0.115,
5480,-0.295,0.085,
5481,-0.265,0.125,
5482,-0.265,0.19,
5483,-0.28,0.21,
5484,-0.29,0.185,
5485,-0.29,0.145,
5486,-0.285,0.13,
5487,-0.255,0.155,
5488,-0.215,0.17,
5489,-0.19,0.185,
5490,-0.215,0.19,
5491,-0.26,0.22,
5492,-0.285,0.24,
5493,-0.305,0.22,
5494,-0.295,0.245,
5495,-0.255,0.235,
5496,-0.2,0.185,
5497,-0.1,0.15,
5498,0.035,0.095,
5499,0.205,0.04,
5500,0.39,0.02,
5501,0.54,0.005,
5502,0.635,-0.01,
5503,0.72,-0.055,N
5504,0.81,-0.125,
5505,0.865,-0.12,
5506,0.81,-0.1,
5507,0.6,-0.08,
5508,0.285,-0.075,
5509,-0.07,-0.08,
5510,-0.39,-0.03,
5511,-0.625,-0.01,
5512,-0.725,0.01,
5513,-0.74,0.035,
5514,-0.67,0.055,
5515,-0.595,0.065,
5516,-0.515,0.095,
5517,-0.41,0.12,
5518,-0.315,0.115,
5519,-0.275,0.145,
5520,-0.245,0.15,
5521,-0.25,0.185,
5522,-0.27,0.205,
5523,-0.265,0.27,
5524,-0.22,0.25,
5525,-0.215,0.235,
5526,-0.215,0.195,
5527,-0.225,0.17,
5528,-0.24,0.155,
5529,-0.215,0.185,
5530,-0.2,0.21,
5531,-0.185,0.21,
5532,-0.17,0.195,
5533,-0.145,0.16,
5534,-0.155,0.135,
5535,-0.14,0.135,
5536,-0.1,0.155,
5537,-0.105,0.175,
5538,-0.12,0.135,
5539,-0.14,0.135,
5540,-0.11,0.14,
5541,-0.095,0.175,
5542,-0.055,0.195,
5543,-0.055,0.165,
5544,-0.045,0.17,
5545,-0.03,0.16,
5546,-0.005,0.185,
5547,0.0,0.21,
5548,0.015,0.205,
5549,0.02,0.18,
5550,0.04,0.15,
5551,0.055,0.115,
5552,0.075,0.115,
5553,0.095,0.145,
5554,0.105,0.17,
5555,0.12,0.15,
5556,0.12,0.14,
5557,0.12,0.145,
5558,0.145,0.165,
5559,0.175,0.185,
5560,0.195,0.195,
5561,0.22,0.155,
5562,0.225,0.115,
5563,0.235,0.095,
5564,0.235,0.11,
5565,0.255,0.155,
5566,0.26,0.18,
5567,0.25,0.19,
5568,0.25,0.19,
5569,0.255,0.2,
5570,0.255,0.19,
5571,0.245,0.18,
5572,0.245,0.175,
5573,0.21,0.14,
5574,0.185,0.095,
5575,0.165,0.095,
5576,0.15,0.125,
5577,0.13,0.195,
5578,0.105,0.205,
5579,0.08,0.16,
5580,0.045,0.14,
5581,0.02,0.125,
5582,0.025,0.145,
5583,0.01,0.19,
5584,-0.005,0.18,
5585,-0.05,0.155,
5586,-0.09,0.16,
5587,-0.115,0.16,
5588,-0.11,0.185,
5589,-0.105,0.21,
5590,-0.14,0.22,
5591,-0.175,0.225,
5592,-0.18,0.21,
5593,-0.165,0.19,
5594,-0.15,0.175,
5595,-0.11,0.165,
5596,-0.105,0.175,
5597,-0.105,0.185,
5598,-0.145,0.195,
5599,-0.18,0.205,
5600,-0.185,0.205,
5601,-0.185,0.195,
5602,-0.19,0.155,
5603,-0.23,0.15,
5604,-0.215,0.155,
5605,-0.205,0.16,
5606,-0.2,0.165,
5607,-0.245,0.17,
5608,-0.235,0.215,
5609,-0.245,0.25,
5610,-0.235,0.25,
5611,-0.205,0.235,
5612,-0.19,0.245,
5613,-0.15,0.255,
5614,-0.13,0.255,
5615,-0.145,0.205,
5616,-0.18,0.175,
5617,-0.2,0.185,
5618,-0.19,0.21,
5619,-0.165,0.21,
5620,-0.115,0.215,
5621,-0.125,0.21,
5622,-0.14,0.195,
5623,-0.125,0.175,
5624,-0.09,0.18,
5625,-0.05,0.18,
5626,-0.02,0.18,
5627,-0.03,0.155,
5628,-0.07,0.125,
5629,-0.105,0.12,
5630,-0.135,0.14,
5631,-0.15,0.15,
5632,-0.14,0.19,
5633,-0.175,0.205,
5634,-0.19,0.21,
5635,-0.19,0.205,
5636,-0.185,0.215,
5637,-0.175,0.22,
5638,-0.145,0.21,
5639,-0.15,0.17,
5640,-0.17,0.13,
5641,-0.195,0.135,
5642,-0.225,0.175,
5643,-0.23,0.21,
5644,-0.2,0.225,
5645,-0.205,0.23,
5646,-0.225,0.2,
5647,-0.245,0.175,
5648,-0.235,0.19,
5649,-0.23,0.235,
5650,-0.225,0.245,
5651,-0.24,0.21,
5652,-0.25,0.16,
5653,-0.255,0.15,
5654,-0.235,0.18,
5655,-0.2,0.225,
5656,-0.17,0.255,
5657,-0.175,0.235,
5658,-0.23,0.185,
5659,-0.255,0.14,
5660,-0.255,0.165,
5661,-0.24,0.205,
5662,-0.21,0.235,
5663,-0.22,0.21,
5664,-0.225,0.185,
5665,-0.23,0.175,
5666,-0.235,0.18,
5667,-0.22,0.19,
5668,-0.195,0.205,
5669,-0.185,0.185,
5670,-0.225,0.175,
5671,-0.23,0.155,
5672,-0.23,0.175,
5673,-0.225,0.185,
5674,-0.185,0.195,
5675,-0.185,0.205,
5676,-0.215,0.165,
5677,-0.245,0.18,
5678,-0.265,0.215,
5679,-0.285,0.29,
5680,-0.305,0.345,
5681,-0.29,0.325,
5682,-0.205,0.25,
5683,-0.07,0.16,
5684,0.08,0.095,
5685,0.25,0.12,
5686,0.43,0.105,
5687,0.62,0.095,
5688,0.765,0.04,
5689,0.89,-0.02,
5690,1.01,-0.08,N
5691,1.04,-0.105,
5692,0.96,-0.09,
5693,0.73,-0.105,
5694,0.39,-0.105,
5695,-0.005,-0.08,
5696,-0.355,-0.03,
5697,-0.59,0.035,
5698,-0.67,0.07,
5699,-0.67,0.1,
5700,-0.61,0.1,
5701,-0.515,0.12,
5702,-0.4,0.12,
5703,-0.31,0.145,
5704,-0.225,0.18,
5705,-0.205,0.2,
5706,-0.18,0.205,
5707,-0.185,0.215,
5708,-0.18,0.21,
5709,-0.16,0.16,
5710,-0.14,0.145,
5711,-0.155,0.135,
5712,-0.155,0.165,
5713,-0.165,0.18,
5714,-0.16,0.21,
5715,-0.145,0.22,
5716,-0.12,0.2,
5717,-0.12,0.165,
5718,-0.15,0.175,
5719,-0.15,0.215,
5720,-0.13,0.255,
5721,-0.105,0.265,
5722,-0.07,0.23,
5723,-0.06,0.205,
5724,-0.06,0.19,
5725,-0.06,0.205,
5726,-0.045,0.235,
5727,-0.015,0.255,
5728,0.0,0.235,
5729,0.005,0.21,
5730,0.005,0.205,
5731,0.0,0.155,
5732,0.02,0.185,
5733,0.05,0.225,
5734,0.095,0.225,
5735,0.11,0.22,
5736,0.105,0.215,
5737,0.11,0.215,
5738,0.13,0.23,
5739,0.15,0.24,
5740,0.18,0.2,
5741,0.21,0.165,
5742,0.225,0.16,
5743,0.22,0.16,
5744,0.225,0.195,
5745,0.245,0.205,
5746,0.28,0.21,
5747,0.29,0.205,
5748,0.275,0.215,
5749,0.265,0.255,
5750,0.275,0.285,
5751,0.295,0.295,
5752,0.335,0.265,
5753,0.33,0.225,
5754,0.32,0.185,
5755,0.295,0.18,
5756,0.275,0.225,
5757,0.285,0.255,
5758,0.31,0.275,
5759,0.33,0.195,
5760,0.295,0.125,
5761,0.265,0.08,
5762,0.245,0.075,
5763,0.24,0.12,
5764,0.22,0.16,
5765,0.205,0.185,
5766,0.15,0.16,
5767,0.11,0.17,
5768,0.075,0.22,
5769,0.055,0.3,
5770,0.055,0.32,
5771,0.035,0.27,
5772,0.02,0.19,
5773,0.0,0.155,
5774,-0.03,0.18,
5775,-0.035,0.215,
5776,-0.03,0.21,
5777,-0.03,0.165,
5778,-0.06,0.17,
5779,-0.095,0.195,
5780,-0.1,0.25,
5781,-0.1,0.29,
5782,-0.09,0.28,
5783,-0.075,0.225,
5784,-0.085,0.21,
5785,-0.095,0.21,
5786,-0.095,0.255,
5787,-0.1,0.27,
5788,-0.09,0.27,
5789,-0.1,0.24,
5790,-0.105,0.195,
5791,-0.12,0.165,
5792,-0.1,0.2,
5793,-0.07,0.23,
5794,-0.04,0.195,
5795,-0.05,0.145,
5796,-0.095,0.15,
5797,-0.11,0.22,
5798,-0.11,0.295,
5799,-0.1,0.355,
5800,-0.08,0.34,
5801,-0.09,0.32,
5802,-0.08,0.275,
5803,-0.075,0.225,
5804,-0.055,0.21,
5805,-0.02,0.22,
5806,0.015,0.24,
5807,-0.005,0.255,
5808,-0.025,0.26,
5809,-0.025,0.2,
5810,0.005,0.145,
5811,0.02,0.145,
5812,0.04,0.19,
5813,0.025,0.22,
5814,0.015,0.245,
5815,-0.005,0.25,
5816,-0.015,0.245,
5817,-0.025,0.245,
5818,-0.025,0.255,
5819,-0.04,0.24,
5820,-0.06,0.195,
5821,-0.065,0.165,
5822,-0.08,0.165,
5823,-0.085,0.19,
5824,-0.08,0.215,
5825,-0.09,0.23,
5826,-0.1,0.235,
5827,-0.105,0.215,
5828,-0.105,0.23,
5829,-0.095,0.23,
5830,-0.095,0.235,
5831,-0.11,0.19,
5832,-0.15,0.185,
5833,-0.165,0.2,
5834,-0.165,0.22,
5835,-0.15,0.265,
5836,-0.145,0.27,
5837,-0.155,0.275,
5838,-0.145,0.26,
5839,-0.13,0.25,
5840,-0.12,0.24,
5841,-0.1,0.255,
5842,-0.075,0.24,
5843,-0.07,0.21,
5844,-0.08,0.19,
5845,-0.11,0.18,
5846,-0.11,0.195,
5847,-0.11,0.205,
5848,-0.12,0.2,
5849,-0.135,0.235,
5850,-0.15,0.29,
5851,-0.15,0.29,
5852,-0.135,0.26,
5853,-0.105,0.205,
5854,-0.07,0.155,
5855,-0.09,0.145,
5856,-0.13,0.17,
5857,-0.145,0.2,
5858,-0.14,0.225,
5859,-0.1,0.24,
5860,-0.1,0.21,
5861,-0.095,0.215,
5862,-0.11,0.21,
5863,-0.125,0.245,
5864,-0.125,0.265,
5865,-0.12,0.25,
5866,-0.1,0.245,
5867,-0.105,0.26,
5868,-0.105,0.295,
5869,-0.045,0.29,
5870,0.1,0.25,
5871,0.29,0.165,
5872,0.465,0.115,
5873,0.605,0.1,
5874,0.755,0.08,
5875,0.905,0.02,
5876,1.025,-0.065,N
5877,1.105,-0.155,
5878,1.085,-0.195,
5879,0.97,-0.215,
5880,0.775,-0.25,
5881,0.495,-0.28,
5882,0.12,-0.25,
5883,-0.26,-0.16,
5884,-0.535,-0.04,
5885,-0.64,0.08,
5886,-0.625,0.14,
5887,-0.53,0.165,
5888,-0.4,0.17,
5889,-0.285,0.19,
5890,-0.2,0.2,
5891,-0.17,0.215,
5892,-0.165,0.195,
5893,-0.15,0.2,
5894,-0.125,0.195,
5895,-0.095,0.24,
5896,-0.105,0.29,
5897,-0.105,0.335,
5898,-0.1,0.355,
5899,-0.095,0.31,
5900,-0.085,0.255,
5901,-0.05,0.185,
5902,-0.06,0.13,
5903,-0.075,0.165,
5904,-0.095,0.22,
5905,-0.095,0.255,
5906,-0.085,0.245,
5907,-0.055,0.24,
5908,-0.025,0.25,
5909,-0.01,0.27,
5910,-0.01,0.25,
5911,-0.005,0.215,
5912,-0.005,0.2,
5913,0.005,0.19,
5914,0.035,0.195,
5915,0.045,0.205,
5916,0.045,0.205,
5917,0.04,0.175,
5918,0.055,0.17,
5919,0.075,0.19,
5920,0.095,0.175,
5921,0.105,0.17,
5922,0.13,0.165,
5923,0.13,0.215,
5924,0.15,0.275,
5925,0.185,0.33,
5926,0.2,0.295,
5927,0.215,0.22,
5928,0.22,0.15,
5929,0.215,0.16,
5930,0.215,0.185,
5931,0.245,0.18,
5932,0.285,0.14,
5933,0.285,0.09,
5934,0.29,0.09,
5935,0.29,0.1,
5936,0.295,0.135,
5937,0.32,0.155,
5938,0.325,0.175,
5939,0.305,0.17,
5940,0.3,0.165,
5941,0.295,0.14,
5942,0.29,0.18,
5943,0.305,0.23,
5944,0.335,0.25,
5945,0.335,0.205,
5946,0.325,0.145,
5947,0.29,0.095,
5948,0.26,0.13,
5949,0.255,0.165,
5950,0.25,0.175,
5951,0.23,0.16,
5952,0.185,0.19,
5953,0.155,0.225,
5954,0.125,0.265,
5955,0.12,0.245,
5956,0.115,0.22,
5957,0.075,0.205,
5958,0.025,0.245,
5959,-0.015,0.28,
5960,-0.025,0.305,
5961,-0.005,0.28,
5962,0.0,0.27,
5963,-0.02,0.26,
5964,-0.055,0.245,
5965,-0.075,0.25,
5966,-0.065,0.235,
5967,-0.05,0.2,
5968,-0.03,0.17,
5969,-0.045,0.18,
5970,-0.08,0.18,
5971,-0.13,0.22,
5972,-0.145,0.255,
5973,-0.145,0.24,
5974,-0.145,0.2,
5975,-0.14,0.185,
5976,-0.145,0.17,
5977,-0.135,0.16,
5978,-0.135,0.215,
5979,-0.105,0.275,
5980,-0.1,0.295,
5981,-0.12,0.245,
5982,-0.15,0.205,
5983,-0.185,0.24,
5984,-0.175,0.29,
5985,-0.16,0.29,
5986,-0.155,0.25,
5987,-0.145,0.21,
5988,-0.165,0.195,
5989,-0.19,0.185,
5990,-0.225,0.22,
5991,-0.21,0.28,
5992,-0.165,0.285,
5993,-0.165,0.245,
5994,-0.155,0.185,
5995,-0.155,0.195,
5996,-0.16,0.26,
5997,-0.12,0.34,
5998,-0.12,0.385,
5999,-0.115,0.365,
6000,-0.13,0.275,
6001,-0.135,0.18,
6002,-0.12,0.145,
6003,-0.115,0.12,
6004,-0.09,0.14,
6005,-0.11,0.155,
6006,-0.115,0.17,
6007,-0.135,0.2,
6008,-0.14,0.285,
6009,-0.15,0.345,
6010,-0.145,0.35,
6011,-0.165,0.29,
6012,-0.17,0.225,
6013,-0.175,0.165,
6014,-0.165,0.17,
6015,-0.16,0.2,
6016,-0.165,0.23,
6017,-0.2,0.25,
6018,-0.245,0.275,
6019,-0.255,0.32,
6020,-0.235,0.335,
6021,-0.175,0.295,
6022,-0.155,0.225,
6023,-0.16,0.155,
6024,-0.22,0.16,
6025,-0.26,0.21,
6026,-0.285,0.225,
6027,-0.265,0.2,
6028,-0.225,0.16,
6029,-0.235,0.175,
6030,-0.245,0.205,
6031,-0.265,0.235,
6032,-0.25,0.23,
6033,-0.245,0.21,
6034,-0.23,0.215,
6035,-0.23,0.195,
6036,-0.24,0.185,
6037,-0.25,0.165,
6038,-0.245,0.16,
6039,-0.255,0.195,
6040,-0.265,0.225,
6041,-0.275,0.275,
6042,-0.295,0.345,
6043,-0.295,0.355,
6044,-0.275,0.295,
6045,-0.24,0.195,
6046,-0.235,0.115,
6047,-0.245,0.11,
6048,-0.275,0.12,
6049,-0.26,0.105,
6050,-0.25,0.145,
6051,-0.225,0.195,
6052,-0.21,0.19,
6053,-0.225,0.195,
6054,-0.255,0.21,
6055,-0.28,0.225,
6056,-0.315,0.25,
6057,-0.305,0.275,
6058,-0.295,0.27,
6059,-0.29,0.235,
6060,-0.28,0.21,
6061,-0.275,0.25,
6062,-0.205,0.28,
6063,-0.09,0.235,
6064,0.09,0.15,
6065,0.245,0.08,
6066,0.38,0.055,
6067,0.51,0.035,
6068,0.665,-0.005,
6069,0.795,-0.055,N
6070,0.87,-0.12,
6071,0.83,-0.19,
6072,0.695,-0.235,
6073,0.47,-0.25,
6074,0.16,-0.23,
6075,-0.175,-0.19,
6076,-0.495,-0.155,
6077,-0.755,-0.1,
6078,-0.88,-0.02,
6079,-0.85,0.09,
6080,-0.755,0.22,
6081,-0.62,0.265,
6082,-0.495,0.23,
6083,-0.415,0.17,
6084,-0.37,0.105,
6085,-0.335,0.095,
6086,-0.305,0.13,
6087,-0.285,0.15,
6088,-0.255,0.185,
6089,-0.255,0.23,
6090,-0.26,0.215,
6091,-0.28,0.225,
6092,-0.295,0.25,
6093,-0.275,0.285,
6094,-0.27,0.3,
6095,-0.27,0.28,
6096,-0.24,0.22,
6097,-0.225,0.185,
6098,-0.22,0.175,
6099,-0.205,0.2,
6100,-0.185,0.21,
6101,-0.18,0.19,
6102,-0.185,0.185,
6103,-0.21,0.21,
6104,-0.21,0.27,
6105,-0.205,0.305,
6106,-0.18,0.3,
6107,-0.16,0.255,
6108,-0.16,0.205,
6109,-0.175,0.16,
6110,-0.15,0.13,
6111,-0.12,0.14,
6112,-0.095,0.16,
6113,-0.085,0.175,
6114,-0.065,0.17,
6115,-0.06,0.155,
6116,-0.04,0.175,
6117,-0.025,0.21,
6118,0.0,0.225,
6119,0.01,0.215,
6120,0.01,0.195,
6121,0.015,0.17,
6122,0.03,0.19,
6123,0.06,0.2,
6124,0.09,0.195,
6125,0.1,0.165,
6126,0.095,0.125,
6127,0.075,0.14,
6128,0.075,0.17,
6129,0.1,0.225,
6130,0.125,0.225,
6131,0.14,0.175,
6132,0.135,0.125,
6133,0.125,0.12,
6134,0.115,0.15,
6135,0.12,0.185,
6136,0.125,0.19,
6137,0.115,0.14,
6138,0.09,0.125,
6139,0.07,0.145,
6140,0.065,0.165,
6141,0.065,0.205,
6142,0.06,0.24,
6143,0.04,0.23,
6144,0.015,0.21,
6145,-0.005,0.185,
6146,-0.025,0.225,
6147,-0.055,0.245,
6148,-0.05,0.22,
6149,-0.075,0.19,
6150,-0.11,0.165,
6151,-0.155,0.175,
6152,-0.185,0.235,
6153,-0.19,0.255,
6154,-0.195,0.265,
6155,-0.22,0.27,
6156,-0.25,0.25,
6157,-0.255,0.24,
6158,-0.27,0.24,
6159,-0.26,0.235,
6160,-0.26,0.24,
6161,-0.27,0.23,
6162,-0.295,0.22,
6163,-0.315,0.235,
6164,-0.32,0.265,
6165,-0.305,0.27,
6166,-0.3,0.285,
6167,-0.315,0.285,
6168,-0.325,0.28,
6169,-0.335,0.28,
6170,-0.335,0.3,
6171,-0.325,0.285,
6172,-0.305,0.285,
6173,-0.315,0.295,
6174,-0.33,0.29,
6175,-0.33,0.27,
6176,-0.325,0.27,
6177,-0.305,0.265,
6178,-0.31,0.255,
6179,-0.315,0.25,
6180,-0.33,0.24,
6181,-0.345,0.245,
6182,-0.35,0.245,
6183,-0.34,0.29,
6184,-0.32,0.32,
6185,-0.33,0.295,
6186,-0.315,0.275,
6187,-0.315,0.265,
6188,-0.32,0.28,
6189,-0.3,0.31,
6190,-0.29,0.315,
6191,-0.29,0.32,
6192,-0.3,0.315,
6193,-0.32,0.305,
6194,-0.32,0.325,
6195,-0.275,0.325,
6196,-0.255,0.34,
6197,-0.25,0.33,
6198,-0.26,0.305,
6199,-0.26,0.28,
6200,-0.25,0.3,
6201,-0.25,0.3,
6202,-0.255,0.27,
6203,-0.27,0.24,
6204,-0.29,0.22,
6205,-0.31,0.2,
6206,-0.315,0.24,
6207,-0.32,0.255,
6208,-0.315,0.27,
6209,-0.325,0.25,
6210,-0.34,0.26,
6211,-0.35,0.275,
6212,-0.345,0.3,
6213,-0.33,0.31,
6214,-0.3,0.3,
6215,-0.315,0.28,
6216,-0.345,0.23,
6217,-0.345,0.235,
6218,-0.34,0.24,
6219,-0.345,0.265,
6220,-0.375,0.29,
6221,-0.4,0.27,
6222,-0.41,0.285,
6223,-0.415,0.315,
6224,-0.41,0.325,
6225,-0.39,0.325,
6226,-0.37,0.305,
6227,-0.36,0.29,
6228,-0.39,0.3,
6229,-0.39,0.33,
6230,-0.385,0.33,
6231,-0.37,0.32,
6232,-0.345,0.295,
6233,-0.365,0.285,
6234,-0.375,0.29,
6235,-0.385,0.305,
6236,-0.365,0.32,
6237,-0.37,0.325,
6238,-0.37,0.33,
6239,-0.38,0.325,
6240,-0.375,0.315,
6241,-0.385,0.31,
6242,-0.38,0.31,
6243,-0.36,0.315,
6244,-0.345,0.32,
6245,-0.35,0.315,
6246,-0.385,0.31,
6247,-0.41,0.315,
6248,-0.41,0.325,
6249,-0.415,0.35,
6250,-0.415,0.36,
6251,-0.425,0.405,
6252,-0.4,0.415,
6253,-0.305,0.41,
6254,-0.13,0.34,
6255,0.075,0.255,
6256,0.28,0.205,
6257,0.455,0.145,
6258,0.57,0.04,N
6259,0.61,-0.04,
6260,0.53,-0.09,
6261,0.385,-0.12,
6262,0.14,-0.11,
6263,-0.205,-0.055,
6264,-0.565,-0.015,
6265,-0.855,0.03,
6266,-0.995,0.105,
6267,-0.955,0.2,
6268,-0.835,0.275,
6269,-0.72,0.295,
6270,-0.645,0.285,
6271,-0.57,0.33,
6272,-0.5,0.365,
6273,-0.435,0.38,
6274,-0.4,0.355,
6275,-0.375,0.33,
6276,-0.38,0.305,
6277,-0.37,0.3,
6278,-0.365,0.295,
6279,-0.345,0.315,
6280,-0.335,0.34,
6281,-0.33,0.35,
6282,-0.33,0.335,
6283,-0.335,0.33,
6284,-0.34,0.34,
6285,-0.315,0.375,
6286,-0.295,0.37,
6287,-0.27,0.34,
6288,-0.275,0.315,
6289,-0.285,0.33,
6290,-0.265,0.355,
6291,-0.25,0.36,
6292,-0.235,0.355,
6293,-0.225,0.35,
6294,-0.23,0.31,
6295,-0.24,0.3,
6296,-0.22,0.325,
6297,-0.195,0.345,
6298,-0.16,0.355,
6299,-0.16,0.345,
6300,-0.135,0.32,
6301,-0.135,0.27,
6302,-0.125,0.295,
6303,-0.115,0.33,
6304,-0.065,0.365,
6305,-0.04,0.325,
6306,-0.025,0.29,
6307,-0.015,0.27,
6308,-0.01,0.27,
6309,0.01,0.305,
6310,0.055,0.305,
6311,0.055,0.275,
6312,0.045,0.25,
6313,0.035,0.26,
6314,0.035,0.295,
6315,0.065,0.32,
6316,0.095,0.315,
6317,0.095,0.295,
6318,0.095,0.265,
6319,0.08,0.305,
6320,0.065,0.35,
6321,0.065,0.385,
6322,0.075,0.39,
6323,0.08,0.34,
6324,0.045,0.34,
6325,0.015,0.35,
6326,0.02,0.35,
6327,0.015,0.325,
6328,0.015,0.285,
6329,-0.005,0.265,
6330,-0.035,0.28,
6331,-0.08,0.3,
6332,-0.115,0.345,
6333,-0.13,0.38,
6334,-0.13,0.365,
6335,-0.155,0.37,
6336,-0.185,0.365,
6337,-0.215,0.37,
6338,-0.215,0.375,
6339,-0.22,0.38,
6340,-0.235,0.385,
6341,-0.26,0.385,
6342,-0.29,0.4,
6343,-0.3,0.44,
6344,-0.305,0.495,
6345,-0.3,0.535,
6346,-0.29,0.47,
6347,-0.27,0.365,
6348,-0.28,0.26,
6349,-0.285,0.26,
6350,-0.305,0.31,
6351,-0.285,0.38,
6352,-0.29,0.38,
6353,-0.275,0.36,
6354,-0.29,0.34,
6355,-0.3,0.355,
6356,-0.305,0.36,
6357,-0.29,0.395,
6358,-0.27,0.38,
6359,-0.285,0.385,
6360,-0.295,0.375,
6361,-0.32,0.39,
6362,-0.305,0.4,
6363,-0.29,0.39,
6364,-0.275,0.385,
6365,-0.28,0.375,
6366,-0.28,0.335,
6367,-0.28,0.33,
6368,-0.275,0.34,
6369,-0.265,0.385,
6370,-0.255,0.405,
6371,-0.26,0.405,
6372,-0.27,0.4,
6373,-0.275,0.38,
6374,-0.25,0.39,
6375,-0.24,0.395,
6376,-0.215,0.42,
6377,-0.22,0.43,
6378,-0.225,0.395,
6379,-0.215,0.36,
6380,-0.2,0.355,
6381,-0.175,0.39,
6382,-0.175,0.44,
6383,-0.19,0.455,
6384,-0.205,0.46,
6385,-0.225,0.395,
6386,-0.215,0.33,
6387,-0.2,0.31,
6388,-0.19,0.315,
6389,-0.19,0.32,
6390,-0.22,0.34,
6391,-0.235,0.325,
6392,-0.22,0.3,
6393,-0.19,0.275,
6394,-0.18,0.29,
6395,-0.18,0.285,
6396,-0.22,0.25,
6397,-0.27,0.255,
6398,-0.28,0.33,
6399,-0.26,0.41,
6400,-0.245,0.48,
6401,-0.21,0.44,
6402,-0.17,0.32,
6403,-0.13,0.235,
6404,-0.1,0.235,
6405,-0.09,0.295,
6406,-0.07,0.29,
6407,-0.04,0.235,
6408,0.025,0.175,
6409,0.11,0.18,
6410,0.24,0.21,
6411,0.39,0.24,
6412,0.55,0.21,
6413,0.695,0.17,
6414,0.815,0.08,
6415,0.915,0.035,
6416,1.015,0.035,
6417,1.095,0.095,
6418,1.16,0.145,
6419,1.185,0.155,
6420,1.19,0.135,
6421,1.205,0.095,
6422,1.205,0.07,
6423,1.205,0.035,
6424,1.185,-0.04,
6425,1.15,-0.105,
6426,1.155,-0.15,
6427,1.185,-0.14,
6428,1.245,-0.105,V
6429,1.325,-0.07,
6430,1.36,-0.065,
6431,1.32,-0.06,
6432,1.195,-0.015,
6433,0.99,0.025,
6434,0.74,0.07,
6435,0.385,0.105,
6436,-0.04,0.18,
6437,-0.37,0.255,
6438,-0.51,0.295,
6439,-0.535,0.31,
6440,-0.52,0.335,
6441,-0.515,0.37,
6442,-0.53,0.36,
6443,-0.55,0.35,
6444,-0.59,0.325,
6445,-0.605,0.32,
6446,-0.625,0.335,
6447,-0.64,0.37,
6448,-0.655,0.385,
6449,-0.665,0.375,
6450,-0.685,0.38,
6451,-0.7,0.38,
6452,-0.7,0.39,
6453,-0.7,0.39,
6454,-0.71,0.4,
6455,-0.715,0.4,
6456,-0.72,0.405,
6457,-0.745,0.41,
6458,-0.75,0.415,
6459,-0.745,0.43,
6460,-0.735,0.435,
6461,-0.73,0.425,
6462,-0.75,0.405,
6463,-0.75,0.425,
6464,-0.765,0.445,
6465,-0.765,0.455,
6466,-0.76,0.445,
6467,-0.76,0.425,
6468,-0.775,0.425,
6469,-0.775,0.46,
6470,-0.78,0.465,
6471,-0.75,0.47,
6472,-0.74,0.48,
6473,-0.76,0.465,
6474,-0.755,0.415,
6475,-0.775,0.39,
6476,-0.765,0.41,
6477,-0.76,0.46,
6478,-0.755,0.5,
6479,-0.735,0.53,
6480,-0.745,0.51,
6481,-0.74,0.475,
6482,-0.705,0.47,
6483,-0.685,0.47,
6484,-0.64,0.43,
6485,-0.635,0.42,
6486,-0.625,0.41,
6487,-0.63,0.41,
6488,-0.595,0.44,
6489,-0.57,0.435,
6490,-0.535,0.425,
6491,-0.53,0.435,
6492,-0.525,0.435,
6493,-0.535,0.41,
6494,-0.505,0.425,
6495,-0.47,0.42,
6496,-0.445,0.38,
6497,-0.435,0.38,
6498,-0.445,0.36,
6499,-0.445,0.355,
6500,-0.425,0.365,
6501,-0.42,0.395,
6502,-0.39,0.415,
6503,-0.37,0.395,
6504,-0.365,0.36,
6505,-0.375,0.32,
6506,-0.38,0.34,
6507,-0.38,0.36,
6508,-0.375,0.385,
6509,-0.375,0.395,
6510,-0.385,0.35,
6511,-0.385,0.325,
6512,-0.39,0.33,
6513,-0.395,0.37,
6514,-0.38,0.405,
6515,-0.375,0.405,
6516,-0.395,0.38,
6517,-0.4,0.38,
6518,-0.39,0.385,
6519,-0.38,0.39,
6520,-0.36,0.37,
6521,-0.365,0.39,
6522,-0.37,0.385,
6523,-0.375,0.35,
6524,-0.36,0.31,
6525,-0.345,0.305,
6526,-0.335,0.32,
6527,-0.34,0.335,
6528,-0.365,0.33,
6529,-0.38,0.31,
6530,-0.375,0.32,
6531,-0.355,0.34,
6532,-0.34,0.35,
6533,-0.325,0.335,
6534,-0.325,0.315,
6535,-0.345,0.305,
6536,-0.345,0.305,
6537,-0.34,0.32,
6538,-0.34,0.335,
6539,-0.335,0.335,
6540,-0.35,0.31,
6541,-0.35,0.32,
6542,-0.34,0.375,
6543,-0.34,0.42,
6544,-0.305,0.405,
6545,-0.305,0.36,
6546,-0.31,0.3,
6547,-0.32,0.29,
6548,-0.315,0.33,
6549,-0.285,0.325,
6550,-0.265,0.31,
6551,-0.26,0.3,
6552,-0.265,0.305,
6553,-0.265,0.335,
6554,-0.305,0.36,
6555,-0.325,0.405,
6556,-0.325,0.395,
6557,-0.3,0.355,
6558,-0.28,0.3,
6559,-0.275,0.265,
6560,-0.255,0.285,
6561,-0.24,0.31,
6562,-0.23,0.315,
6563,-0.25,0.31,
6564,-0.25,0.3,
6565,-0.255,0.32,
6566,-0.235,0.34,
6567,-0.205,0.36,
6568,-0.18,0.345,
6569,-0.17,0.31,
6570,-0.19,0.3,
6571,-0.205,0.32,
6572,-0.21,0.34,
6573,-0.18,0.355,
6574,-0.17,0.365,
6575,-0.18,0.345,
6576,-0.2,0.325,
6577,-0.235,0.35,
6578,-0.24,0.41,
6579,-0.215,0.435,
6580,-0.205,0.365,
6581,-0.2,0.225,
6582,-0.215,0.145,
6583,-0.245,0.155,
6584,-0.265,0.205,
6585,-0.26,0.235,
6586,-0.245,0.26,
6587,-0.235,0.275,
6588,-0.25,0.28,
6589,-0.265,0.3,
6590,-0.275,0.31,
6591,-0.265,0.285,
6592,-0.245,0.295,
6593,-0.26,0.28,
6594,-0.28,0.285,
6595,-0.285,0.275,
6596,-0.29,0.275,
6597,-0.275,0.29,
6598,-0.255,0.325,
6599,-0.26,0.325,
6600,-0.27,0.325,
6601,-0.27,0.315,
6602,-0.27,0.305,
6603,-0.255,0.33,
6604,-0.245,0.375,
6605,-0.25,0.405,
6606,-0.24,0.34,
6607,-0.24,0.235,
6608,-0.225,0.19,
6609,-0.23,0.205,
6610,-0.23,0.25,
6611,-0.23,0.27,
6612,-0.25,0.275,
6613,-0.26,0.295,
6614,-0.245,0.325,
6615,-0.23,0.32,
6616,-0.21,0.295,
6617,-0.2,0.275,
6618,-0.225,0.28,
6619,-0.245,0.325,
6620,-0.265,0.39,
6621,-0.245,0.415,
6622,-0.23,0.385,
6623,-0.205,0.26,
6624,-0.185,0.205,
6625,-0.1,0.225,
6626,0.02,0.26,
6627,0.19,0.215,
6628,0.335,0.16,
6629,0.47,0.115,
6630,0.585,0.07,
6631,0.665,0.005,N
6632,0.73,-0.065,
6633,0.71,-0.115,
6634,0.595,-0.125,
6635,0.415,-0.16,
6636,0.17,-0.155,
6637,-0.14,-0.125,
6638,-0.445,-0.08,
6639,-0.685,-0.015,
6640,-0.795,0.06,
6641,-0.8,0.135,
6642,-0.71,0.21,
6643,-0.605,0.255,
6644,-0.495,0.26,
6645,-0.395,0.27,
6646,-0.305,0.265,
6647,-0.27,0.27,
6648,-0.25,0.265,
6649,-0.24,0.295,
6650,-0.23,0.33,
6651,-0.195,0.36,
6652,-0.18,0.335,
6653,-0.19,0.295,
6654,-0.23,0.31,
6655,-0.215,0.325,
6656,-0.2,0.305,
6657,-0.17,0.295,
6658,-0.15,0.295,
6659,-0.13,0.29,
6660,-0.13,0.275,
6661,-0.145,0.25,
6662,-0.145,0.285,
6663,-0.125,0.315,
6664,-0.1,0.315,
6665,-0.085,0.305,
6666,-0.09,0.275,
6667,-0.085,0.29,
6668,-0.07,0.295,
6669,-0.045,0.335,
6670,-0.04,0.33,
6671,-0.03,0.305,
6672,-0.005,0.26,
6673,0.0,0.235,
6674,0.015,0.26,
6675,0.035,0.32,
6676,0.05,0.32,
6677,0.07,0.26,
6678,0.085,0.21,
6679,0.1,0.2,
6680,0.1,0.235,
6681,0.13,0.26,
6682,0.14,0.265,
6683,0.155,0.26,
6684,0.16,0.26,
6685,0.16,0.265,
6686,0.205,0.24,
6687,0.21,0.225,
6688,0.22,0.22,
6689,0.21,0.23,
6690,0.2,0.24,
6691,0.205,0.25,
6692,0.225,0.245,
6693,0.235,0.255,
6694,0.25,0.28,
6695,0.275,0.26,
6696,0.255,0.23,
6697,0.235,0.2,
6698,0.245,0.22,
6699,0.24,0.26,
6700,0.24,0.275,
6701,0.225,0.26,
6702,0.2,0.235,
6703,0.17,0.23,
6704,0.155,0.28,
6705,0.15,0.33,
6706,0.125,0.335,
6707,0.125,0.275,
6708,0.08,0.25,
6709,0.05,0.27,
6710,0.02,0.28,
6711,0.005,0.295,
6712,-0.01,0.295,
6713,-0.025,0.29,
6714,-0.045,0.295,
6715,-0.07,0.295,
6716,-0.1,0.3,
6717,-0.09,0.31,
6718,-0.085,0.3,
6719,-0.095,0.275,
6720,-0.11,0.255,
6721,-0.135,0.265,
6722,-0.12,0.265,
6723,-0.105,0.29,
6724,-0.085,0.3,
6725,-0.11,0.3,
6726,-0.14,0.285,
6727,-0.17,0.28,
6728,-0.16,0.28,
6729,-0.15,0.31,
6730,-0.145,0.335,
6731,-0.15,0.315,
6732,-0.17,0.29,
6733,-0.17,0.295,
6734,-0.145,0.265,
6735,-0.14,0.265,
6736,-0.12,0.275,
6737,-0.125,0.28,
6738,-0.145,0.295,
6739,-0.14,0.26,
6740,-0.145,0.255,
6741,-0.125,0.26,
6742,-0.115,0.295,
6743,-0.105,0.28,
6744,-0.12,0.28,
