,MLII,V1,symbol
0,0.045,-0.76,
1,0.045,-0.76,
2,0.045,-0.76,
3,0.045,-0.76,
4,0.045,-0.76,
5,0.045,-0.76,
6,0.045,-0.76,
7,0.045,-0.77,
8,0.045,-0.76,
9,0.035,-0.74,
10,0.03,-0.72,
11,0.045,-0.685,
12,0.05,-0.655,
13,0.065,-0.64,
14,0.035,-0.645,
15,0.03,-0.61,
16,0.015,-0.57,
17,0.04,-0.53,
18,0.045,-0.485,
19,0.02,-0.47,
20,0.01,-0.45,
21,-0.02,-0.42,
22,-0.01,-0.395,
23,-0.01,-0.35,
24,-0.015,-0.32,
25,-0.035,-0.295,
26,-0.055,-0.29,
27,-0.07,-0.25,
28,-0.085,-0.225,
29,-0.075,-0.175,
30,-0.075,-0.16,
31,-0.1,-0.145,
32,-0.12,-0.125,
33,-0.135,-0.105,
34,-0.15,-0.08,
35,-0.13,-0.045,
36,-0.13,-0.02,
37,-0.135,-0.01,
38,-0.155,-0.005,
39,-0.17,0.0,
40,-0.175,0.04,
41,-0.165,0.05,
42,-0.16,0.08,
43,-0.175,0.075,
44,-0.205,0.065,
45,-0.2,0.075,
46,-0.195,0.085,
47,-0.205,0.1,
48,-0.19,0.12,
49,-0.195,0.11,
50,-0.21,0.105,
51,-0.21,0.105,
52,-0.205,0.1,
53,-0.19,0.115,
54,-0.175,0.115,
55,-0.19,0.1,
56,-0.195,0.08,
57,-0.205,0.07,
58,-0.2,0.08,
59,-0.185,0.11,
60,-0.17,0.115,
61,-0.155,0.125,
62,-0.185,0.11,
63,-0.195,0.12,
64,-0.205,0.125,
65,-0.185,0.145,
66,-0.175,0.15,
67,-0.18,0.14,
68,-0.19,0.135,
69,-0.22,0.135,
70,-0.2,0.14,
71,-0.18,0.155,
72,-0.185,0.17,
73,-0.18,0.15,
74,-0.195,0.15,
75,-0.22,0.155,
76,-0.2,0.16,
77,-0.175,0.175,
78,-0.175,0.175,
79,-0.185,0.17,
80,-0.2,0.15,
81,-0.215,0.15,
82,-0.225,0.17,
83,-0.21,0.185,
84,-0.195,0.19,
85,-0.2,0.17,
86,-0.215,0.16,
87,-0.235,0.16,
88,-0.235,0.17,
89,-0.22,0.175,
90,-0.225,0.18,
91,-0.215,0.165,
92,-0.23,0.16,
93,-0.24,0.145,
94,-0.245,0.155,
95,-0.23,0.165,
96,-0.21,0.165,
97,-0.215,0.15,
98,-0.22,0.145,
99,-0.235,0.13,
100,-0.22,0.145,
101,-0.205,0.165,
102,-0.215,0.15,+
103,-0.205,0.145,
104,-0.205,0.15,
105,-0.215,0.155,
106,-0.25,0.165,
107,-0.215,0.175,
108,-0.2,0.185,
109,-0.215,0.165,
110,-0.22,0.16,
111,-0.24,0.16,
112,-0.23,0.175,
113,-0.215,0.18,
114,-0.2,0.185,
115,-0.2,0.185,
116,-0.215,0.16,
117,-0.21,0.16,
118,-0.215,0.175,
119,-0.2,0.185,
120,-0.19,0.19,
121,-0.19,0.17,
122,-0.2,0.15,
123,-0.195,0.165,
124,-0.205,0.17,
125,-0.215,0.18,
126,-0.19,0.18,
127,-0.195,0.18,
128,-0.225,0.155,
129,-0.22,0.16,
130,-0.235,0.17,
131,-0.23,0.18,
132,-0.195,0.19,
133,-0.21,0.165,
134,-0.22,0.135,
135,-0.225,0.145,
136,-0.22,0.145,
137,-0.195,0.155,
138,-0.175,0.155,
139,-0.175,0.155,
140,-0.19,0.14,
141,-0.2,0.14,
142,-0.21,0.145,
143,-0.195,0.135,
144,-0.185,0.145,
145,-0.165,0.135,
146,-0.18,0.125,
147,-0.195,0.115,
148,-0.195,0.135,
149,-0.185,0.145,
150,-0.17,0.155,
151,-0.185,0.16,
152,-0.195,0.145,
153,-0.2,0.145,
154,-0.2,0.16,
155,-0.18,0.165,
156,-0.15,0.16,
157,-0.175,0.16,
158,-0.17,0.15,
159,-0.19,0.135,
160,-0.195,0.15,
161,-0.165,0.155,
162,-0.145,0.17,
163,-0.145,0.14,
164,-0.165,0.135,
165,-0.17,0.14,
166,-0.16,0.16,
167,-0.15,0.17,
168,-0.15,0.17,
169,-0.145,0.155,
170,-0.155,0.13,
171,-0.17,0.135,
172,-0.16,0.125,
173,-0.165,0.145,
174,-0.14,0.15,
175,-0.15,0.125,
176,-0.165,0.105,
177,-0.205,0.1,
178,-0.195,0.105,
179,-0.19,0.125,
180,-0.155,0.11,
181,-0.165,0.095,
182,-0.175,0.09,
183,-0.165,0.08,
184,-0.155,0.105,
185,-0.145,0.105,
186,-0.13,0.1,
187,-0.125,0.075,
188,-0.115,0.045,
189,-0.105,0.05,
190,-0.085,0.06,
191,-0.03,0.08,
192,0.045,0.075,
193,0.17,0.065,
194,0.455,0.065,
195,0.905,0.065,
196,1.415,0.07,
197,1.65,0.065,
198,1.52,0.02,
199,1.225,-0.08,
200,1.03,-0.25,
201,0.94,-0.525,
202,0.86,-0.86,
203,0.795,-1.075,
204,0.7,-1.075,
205,0.59,-0.955,/
206,0.45,-0.86,
207,0.35,-0.835,
208,0.25,-0.8,
209,0.145,-0.765,
210,0.035,-0.75,
211,-0.07,-0.755,
212,-0.205,-0.765,
213,-0.33,-0.76,
214,-0.465,-0.755,
215,-0.595,-0.765,
216,-0.75,-0.775,
217,-0.91,-0.79,
218,-1.05,-0.805,
219,-1.185,-0.805,
220,-1.275,-0.805,
221,-1.35,-0.81,
222,-1.42,-0.82,
223,-1.485,-0.835,
224,-1.55,-0.855,
225,-1.6,-0.865,
226,-1.605,-0.89,
227,-1.59,-0.89,
228,-1.55,-0.91,
229,-1.51,-0.94,
230,-1.465,-0.985,
231,-1.42,-1.025,
232,-1.325,-1.06,
233,-1.205,-1.085,
234,-1.07,-1.095,
235,-0.97,-1.11,
236,-0.865,-1.11,
237,-0.78,-1.08,
238,-0.675,-1.035,
239,-0.62,-0.955,
240,-0.575,-0.91,
241,-0.535,-0.885,
242,-0.475,-0.87,
243,-0.385,-0.825,
244,-0.29,-0.77,
245,-0.19,-0.69,
246,-0.1,-0.6,
247,-0.035,-0.52,
248,-0.005,-0.43,
249,0.015,-0.32,
250,0.035,-0.19,
251,0.06,-0.09,
252,0.085,0.005,
253,0.105,0.05,
254,0.09,0.08,
255,0.09,0.105,
256,0.095,0.12,
257,0.12,0.15,
258,0.14,0.18,
259,0.13,0.17,
260,0.1,0.175,
261,0.095,0.18,
262,0.105,0.195,
263,0.115,0.215,
264,0.155,0.23,
265,0.145,0.22,
266,0.14,0.205,
267,0.13,0.225,
268,0.125,0.22,
269,0.15,0.255,
270,0.18,0.265,
271,0.175,0.26,
272,0.18,0.235,
273,0.185,0.235,
274,0.195,0.25,
275,0.225,0.245,
276,0.25,0.27,
277,0.285,0.255,
278,0.27,0.245,
279,0.285,0.245,
280,0.3,0.255,
281,0.33,0.28,
282,0.355,0.285,
283,0.365,0.285,
284,0.355,0.285,
285,0.36,0.305,
286,0.38,0.33,
287,0.395,0.345,
288,0.425,0.36,
289,0.435,0.345,
290,0.435,0.355,
291,0.435,0.365,
292,0.445,0.385,
293,0.47,0.4,
294,0.5,0.41,
295,0.515,0.39,
296,0.515,0.385,
297,0.53,0.395,
298,0.525,0.425,
299,0.555,0.45,
300,0.58,0.45,
301,0.61,0.45,
302,0.595,0.44,
303,0.62,0.45,
304,0.63,0.465,
305,0.65,0.48,
306,0.67,0.5,
307,0.67,0.49,
308,0.665,0.485,
309,0.65,0.495,
310,0.645,0.525,
311,0.66,0.535,
312,0.65,0.55,
313,0.665,0.55,
314,0.655,0.545,
315,0.65,0.54,
316,0.65,0.56,
317,0.66,0.58,
318,0.67,0.595,
319,0.67,0.575,
320,0.65,0.565,
321,0.63,0.555,
322,0.6,0.58,
323,0.61,0.57,
324,0.605,0.57,
325,0.59,0.555,
326,0.555,0.54,
327,0.52,0.54,
328,0.505,0.545,
329,0.49,0.575,
330,0.475,0.555,
331,0.45,0.555,
332,0.405,0.525,
333,0.37,0.515,
334,0.34,0.515,
335,0.32,0.52,
336,0.305,0.5,
337,0.3,0.48,
338,0.265,0.46,
339,0.235,0.445,
340,0.205,0.44,
341,0.21,0.445,
342,0.19,0.43,
343,0.18,0.395,
344,0.15,0.365,
345,0.12,0.35,
346,0.1,0.34,
347,0.09,0.34,
348,0.09,0.32,
349,0.07,0.31,
350,0.05,0.27,
351,0.04,0.255,
352,0.03,0.245,
353,0.035,0.265,
354,0.03,0.255,
355,0.015,0.235,
356,-0.005,0.215,
357,-0.015,0.2,
358,-0.03,0.215,
359,-0.025,0.23,
360,-0.015,0.22,
361,-0.02,0.215,
362,-0.03,0.2,
363,-0.04,0.185,
364,-0.05,0.19,
365,-0.05,0.19,
366,-0.03,0.19,
367,-0.035,0.18,
368,-0.045,0.17,
369,-0.065,0.165,
370,-0.065,0.165,
371,-0.05,0.16,
372,-0.04,0.16,
373,-0.015,0.14,
374,-0.015,0.11,
375,-0.025,0.12,
376,-0.035,0.125,
377,-0.015,0.16,
378,-0.01,0.155,
379,-0.015,0.135,
380,-0.025,0.12,
381,-0.05,0.12,
382,-0.05,0.135,
383,-0.05,0.16,
384,-0.035,0.165,
385,-0.04,0.15,
386,-0.065,0.14,
387,-0.065,0.14,
388,-0.07,0.16,
389,-0.06,0.17,
390,-0.05,0.17,
391,-0.065,0.17,
392,-0.08,0.16,
393,-0.095,0.155,
394,-0.105,0.16,
395,-0.095,0.17,
396,-0.075,0.17,
397,-0.1,0.155,
398,-0.1,0.14,
399,-0.12,0.145,
400,-0.12,0.155,
401,-0.11,0.175,
402,-0.115,0.175,
403,-0.11,0.16,
404,-0.12,0.155,
405,-0.15,0.14,
406,-0.135,0.16,
407,-0.13,0.175,
408,-0.14,0.18,
409,-0.145,0.175,
410,-0.15,0.165,
411,-0.175,0.155,
412,-0.185,0.17,
413,-0.18,0.17,
414,-0.17,0.17,
415,-0.18,0.155,
416,-0.185,0.145,
417,-0.2,0.135,
418,-0.19,0.15,
419,-0.155,0.15,
420,-0.145,0.16,
421,-0.145,0.145,
422,-0.155,0.12,
423,-0.175,0.115,
424,-0.16,0.12,
425,-0.145,0.125,
426,-0.14,0.12,
427,-0.15,0.115,
428,-0.155,0.085,
429,-0.17,0.08,
430,-0.16,0.1,
431,-0.15,0.105,
432,-0.15,0.1,
433,-0.16,0.105,
434,-0.15,0.09,
435,-0.17,0.095,
436,-0.17,0.11,
437,-0.16,0.115,
438,-0.15,0.125,
439,-0.16,0.11,
440,-0.15,0.105,
441,-0.175,0.1,
442,-0.17,0.105,
443,-0.18,0.125,
444,-0.16,0.13,
445,-0.165,0.115,
446,-0.18,0.1,
447,-0.19,0.1,
448,-0.185,0.1,
449,-0.18,0.115,
450,-0.17,0.115,
451,-0.18,0.095,
452,-0.205,0.105,
453,-0.215,0.1,
454,-0.2,0.11,
455,-0.185,0.115,
456,-0.175,0.115,
457,-0.17,0.11,
458,-0.19,0.105,
459,-0.195,0.1,
460,-0.2,0.12,
461,-0.215,0.13,
462,-0.2,0.125,
463,-0.21,0.125,
464,-0.205,0.11,
465,-0.215,0.105,
466,-0.22,0.115,
467,-0.2,0.11,
468,-0.19,0.12,
469,-0.195,0.115,
470,-0.215,0.09,
471,-0.2,0.085,
472,-0.215,0.09,
473,-0.175,0.095,
474,-0.16,0.085,
475,-0.16,0.08,
476,-0.15,0.055,
477,-0.155,0.065,
478,-0.16,0.07,
479,-0.13,0.085,
480,-0.115,0.075,
481,-0.12,0.065,
482,-0.115,0.035,
483,-0.115,0.04,
484,-0.08,0.055,
485,-0.04,0.06,
486,0.01,0.065,
487,0.1,0.05,
488,0.275,0.04,
489,0.625,0.045,
490,1.125,0.05,
491,1.53,0.05,
492,1.6,0.015,
493,1.365,-0.065,
494,1.085,-0.195,
495,0.955,-0.43,
496,0.885,-0.755,
497,0.82,-1.07,
498,0.735,-1.265,
499,0.645,-1.25,
500,0.555,-1.145,/
501,0.445,-1.04,
502,0.35,-0.97,
503,0.25,-0.93,
504,0.165,-0.9,
505,0.06,-0.885,
506,-0.075,-0.875,
507,-0.19,-0.865,
508,-0.32,-0.85,
509,-0.43,-0.835,
510,-0.535,-0.845,
511,-0.665,-0.855,
512,-0.825,-0.875,
513,-0.975,-0.895,
514,-1.125,-0.885,
515,-1.245,-0.88,
516,-1.34,-0.875,
517,-1.43,-0.89,
518,-1.515,-0.895,
519,-1.6,-0.89,
520,-1.665,-0.9,
521,-1.71,-0.895,
522,-1.74,-0.895,
523,-1.79,-0.91,
524,-1.81,-0.93,
525,-1.83,-0.945,
526,-1.835,-0.94,
527,-1.775,-0.935,
528,-1.725,-0.955,
529,-1.69,-0.995,
530,-1.645,-1.025,
531,-1.58,-1.045,
532,-1.47,-1.04,
533,-1.35,-1.055,
534,-1.195,-1.07,
535,-1.07,-1.09,
536,-0.95,-1.075,
537,-0.88,-1.04,
538,-0.825,-0.98,
539,-0.775,-0.92,
540,-0.72,-0.88,
541,-0.665,-0.85,
542,-0.615,-0.81,
543,-0.565,-0.77,
544,-0.5,-0.705,
545,-0.43,-0.65,
546,-0.365,-0.58,
547,-0.31,-0.55,
548,-0.265,-0.495,
549,-0.225,-0.435,
550,-0.175,-0.36,
551,-0.1,-0.28,
552,-0.025,-0.215,
553,0.02,-0.17,
554,0.05,-0.13,
555,0.065,-0.055,
556,0.095,0.0,
557,0.12,0.05,
558,0.17,0.08,
559,0.17,0.115,
560,0.165,0.125,
561,0.185,0.135,
562,0.19,0.155,
563,0.205,0.18,
564,0.23,0.205,
565,0.235,0.2,
566,0.23,0.19,
567,0.23,0.2,
568,0.235,0.22,
569,0.255,0.235,
570,0.285,0.245,
571,0.29,0.24,
572,0.28,0.23,
573,0.275,0.235,
574,0.26,0.24,
575,0.305,0.245,
576,0.32,0.245,
577,0.32,0.235,
578,0.315,0.22,
579,0.315,0.22,
580,0.345,0.24,
581,0.365,0.255,
582,0.385,0.25,
583,0.4,0.245,
584,0.405,0.245,
585,0.41,0.235,
586,0.44,0.25,
587,0.46,0.26,
588,0.5,0.255,
589,0.5,0.26,
590,0.505,0.235,
591,0.505,0.26,
592,0.535,0.28,
593,0.57,0.305,
594,0.6,0.33,
595,0.615,0.33,
596,0.625,0.33,
597,0.635,0.33,
598,0.65,0.355,
599,0.68,0.375,
600,0.705,0.38,
601,0.725,0.395,
602,0.74,0.39,
603,0.755,0.4,
604,0.775,0.42,
605,0.8,0.43,
606,0.845,0.435,
607,0.85,0.435,
608,0.86,0.445,
609,0.88,0.455,
610,0.905,0.455,
611,0.925,0.485,
612,0.945,0.48,
613,0.955,0.465,
614,0.975,0.475,
615,0.98,0.48,
616,1.005,0.505,
617,1.025,0.535,
618,1.055,0.535,
619,1.045,0.54,
620,1.03,0.54,
621,1.025,0.555,
622,1.045,0.57,
623,1.06,0.585,
624,1.06,0.58,
625,1.05,0.585,
626,1.055,0.58,
627,1.02,0.59,
628,1.005,0.6,
629,0.99,0.61,
630,0.975,0.615,
631,0.94,0.6,
632,0.905,0.575,
633,0.885,0.57,
634,0.85,0.585,
635,0.825,0.595,
636,0.815,0.585,
637,0.765,0.565,
638,0.725,0.54,
639,0.68,0.52,
640,0.65,0.51,
641,0.62,0.53,
642,0.61,0.52,
643,0.56,0.495,
644,0.495,0.47,
645,0.445,0.455,
646,0.4,0.455,
647,0.38,0.455,
648,0.355,0.445,
649,0.3,0.415,
650,0.265,0.395,
651,0.215,0.38,
652,0.18,0.37,
653,0.175,0.37,
654,0.16,0.36,
655,0.125,0.32,
656,0.08,0.295,
657,0.055,0.28,
658,0.05,0.295,
659,0.035,0.295,
660,0.025,0.275,
661,0.01,0.255,
662,-0.02,0.24,
663,-0.045,0.225,
664,-0.045,0.24,
665,-0.06,0.24,
666,-0.055,0.225,
667,-0.065,0.225,
668,-0.095,0.195,
669,-0.105,0.195,
670,-0.11,0.19,
671,-0.105,0.185,
672,-0.095,0.205,
673,-0.1,0.19,
674,-0.115,0.175,
675,-0.155,0.165,
676,-0.16,0.17,
677,-0.145,0.19,
678,-0.13,0.185,
679,-0.145,0.165,
680,-0.15,0.155,
681,-0.15,0.15,
682,-0.155,0.145,
683,-0.13,0.155,
684,-0.13,0.145,
685,-0.13,0.115,
686,-0.15,0.1,
687,-0.15,0.105,
688,-0.14,0.105,
689,-0.12,0.12,
690,-0.1,0.115,
691,-0.1,0.1,
692,-0.115,0.09,
693,-0.135,0.09,
694,-0.13,0.1,
695,-0.135,0.115,
696,-0.12,0.125,
697,-0.13,0.105,
698,-0.14,0.105,
699,-0.145,0.09,
700,-0.165,0.1,
701,-0.17,0.12,
702,-0.145,0.115,
703,-0.145,0.105,
704,-0.165,0.09,
705,-0.18,0.1,
706,-0.185,0.105,
707,-0.19,0.135,
708,-0.175,0.12,
709,-0.2,0.1,
710,-0.205,0.11,
711,-0.22,0.11,
712,-0.21,0.13,
713,-0.205,0.14,
714,-0.205,0.12,
715,-0.215,0.12,
716,-0.225,0.115,
717,-0.23,0.11,
718,-0.235,0.12,
719,-0.235,0.13,
720,-0.22,0.145,
721,-0.245,0.135,
722,-0.255,0.12,
723,-0.275,0.11,
724,-0.275,0.13,
725,-0.29,0.155,
726,-0.28,0.155,
727,-0.29,0.14,
728,-0.295,0.135,
729,-0.315,0.135,
730,-0.275,0.15,
731,-0.265,0.155,
732,-0.245,0.155,
733,-0.235,0.145,
734,-0.255,0.135,
735,-0.26,0.125,
736,-0.24,0.115,
737,-0.24,0.13,
738,-0.22,0.11,
739,-0.23,0.09,
740,-0.25,0.09,
741,-0.24,0.09,
742,-0.24,0.095,
743,-0.21,0.105,
744,-0.2,0.11,
745,-0.205,0.105,
746,-0.225,0.085,
747,-0.235,0.085,
748,-0.215,0.09,
749,-0.215,0.115,
750,-0.195,0.1,
751,-0.205,0.09,
752,-0.215,0.07,
753,-0.235,0.085,
754,-0.255,0.095,
755,-0.23,0.085,
756,-0.215,0.095,
757,-0.22,0.1,
758,-0.225,0.07,
759,-0.245,0.08,
760,-0.255,0.09,
761,-0.245,0.085,
762,-0.245,0.095,
763,-0.245,0.075,
764,-0.265,0.055,
765,-0.27,0.065,
766,-0.265,0.085,
767,-0.265,0.09,
768,-0.24,0.09,
769,-0.25,0.085,
770,-0.245,0.075,
771,-0.27,0.065,
772,-0.27,0.095,
773,-0.265,0.1,
774,-0.255,0.1,
775,-0.275,0.1,
776,-0.285,0.08,
777,-0.3,0.085,
778,-0.305,0.09,
779,-0.305,0.105,
780,-0.29,0.105,
781,-0.29,0.1,
782,-0.3,0.09,
783,-0.285,0.09,
784,-0.245,0.085,
785,-0.235,0.09,
786,-0.21,0.105,
787,-0.2,0.095,
788,-0.195,0.075,
789,-0.205,0.055,
790,-0.195,0.04,
791,-0.185,0.055,
792,-0.165,0.04,
793,-0.155,0.025,
794,-0.16,0.015,
795,-0.15,0.01,
796,-0.125,0.02,
797,-0.095,0.03,
798,-0.04,0.03,
799,0.025,0.01,
800,0.17,-0.01,
801,0.46,-0.01,
802,0.89,-0.01,
803,1.315,-0.02,
804,1.47,-0.05,
805,1.32,-0.135,
806,1.095,-0.25,
807,0.93,-0.445,
808,0.865,-0.725,
809,0.8,-1.025,
810,0.74,-1.22,
811,0.635,-1.21,
812,0.535,-1.095,/
813,0.435,-1.01,
814,0.35,-0.945,
815,0.25,-0.91,
816,0.16,-0.88,
817,0.04,-0.87,
818,-0.07,-0.865,
819,-0.2,-0.845,
820,-0.31,-0.84,
821,-0.44,-0.82,
822,-0.565,-0.825,
823,-0.7,-0.845,
824,-0.855,-0.86,
825,-1.02,-0.885,
826,-1.16,-0.865,
827,-1.3,-0.855,
828,-1.4,-0.87,
829,-1.5,-0.87,
830,-1.595,-0.875,
831,-1.695,-0.875,
832,-1.755,-0.885,
833,-1.8,-0.885,
834,-1.83,-0.89,
835,-1.865,-0.89,
836,-1.905,-0.925,
837,-1.93,-0.935,
838,-1.915,-0.935,
839,-1.865,-0.935,
840,-1.8,-0.96,
841,-1.765,-0.99,
842,-1.73,-1.05,
843,-1.68,-1.06,
844,-1.58,-1.09,
845,-1.465,-1.075,
846,-1.335,-1.075,
847,-1.235,-1.085,
848,-1.105,-1.09,
849,-1.01,-1.05,
850,-0.93,-1.0,
851,-0.875,-0.96,
852,-0.83,-0.9,
853,-0.775,-0.875,
854,-0.725,-0.855,
855,-0.68,-0.805,
856,-0.605,-0.75,
857,-0.52,-0.68,
858,-0.435,-0.635,
859,-0.37,-0.575,
860,-0.315,-0.525,
861,-0.275,-0.475,
862,-0.21,-0.39,
863,-0.15,-0.32,
864,-0.085,-0.27,
865,-0.05,-0.21,
866,-0.02,-0.17,
867,-0.005,-0.125,
868,0.015,-0.07,
869,0.04,-0.015,
870,0.055,0.015,
871,0.07,0.025,
872,0.075,0.045,
873,0.075,0.065,
874,0.085,0.1,
875,0.115,0.135,
876,0.125,0.15,
877,0.125,0.14,
878,0.13,0.145,
879,0.11,0.15,
880,0.11,0.175,
881,0.135,0.205,
882,0.14,0.215,
883,0.155,0.205,
884,0.16,0.195,
885,0.16,0.205,
886,0.18,0.215,
887,0.22,0.235,
888,0.235,0.235,
889,0.255,0.235,
890,0.255,0.235,
891,0.265,0.24,
892,0.285,0.25,
893,0.315,0.26,
894,0.345,0.26,
895,0.35,0.245,
896,0.365,0.235,
897,0.35,0.235,
898,0.35,0.25,
899,0.385,0.265,
900,0.42,0.27,
901,0.425,0.27,
902,0.43,0.26,
903,0.42,0.26,
904,0.44,0.28,
905,0.48,0.295,
906,0.5,0.3,
907,0.515,0.295,
908,0.515,0.295,
909,0.515,0.315,
910,0.53,0.32,
911,0.565,0.345,
912,0.6,0.345,
913,0.62,0.34,
914,0.635,0.335,
915,0.645,0.35,
916,0.655,0.37,
917,0.675,0.395,
918,0.71,0.395,
919,0.725,0.385,
920,0.715,0.39,
921,0.72,0.4,
922,0.745,0.425,
923,0.77,0.44,
924,0.8,0.445,
925,0.83,0.445,
926,0.84,0.44,
927,0.845,0.445,
928,0.87,0.47,
929,0.89,0.495,
930,0.915,0.515,
931,0.92,0.505,
932,0.895,0.505,
933,0.905,0.52,
934,0.905,0.53,
935,0.93,0.54,
936,0.935,0.56,
937,0.905,0.56,
938,0.9,0.545,
939,0.86,0.545,
940,0.855,0.56,
941,0.85,0.575,
942,0.845,0.575,
943,0.825,0.57,
944,0.8,0.56,
945,0.775,0.57,
946,0.77,0.575,
947,0.755,0.575,
948,0.75,0.575,
949,0.72,0.56,
950,0.655,0.545,
951,0.615,0.56,
952,0.565,0.54,
953,0.555,0.545,
954,0.53,0.525,
955,0.48,0.5,
956,0.43,0.475,
957,0.375,0.455,
958,0.345,0.45,
959,0.31,0.46,
960,0.26,0.435,
961,0.235,0.41,
962,0.185,0.365,
963,0.155,0.37,
964,0.135,0.36,
965,0.12,0.35,
966,0.115,0.335,
967,0.075,0.305,
968,0.045,0.27,
969,0.02,0.25,
970,0.005,0.25,
971,0.005,0.255,
972,0.0,0.25,
973,-0.025,0.235,
974,-0.05,0.205,
975,-0.09,0.2,
976,-0.085,0.2,
977,-0.09,0.2,
978,-0.085,0.195,
979,-0.095,0.175,
980,-0.11,0.15,
981,-0.13,0.15,
982,-0.13,0.15,
983,-0.13,0.17,
984,-0.115,0.165,
985,-0.115,0.15,
986,-0.125,0.125,
987,-0.145,0.12,
988,-0.16,0.14,
989,-0.13,0.155,
990,-0.125,0.145,
991,-0.145,0.12,
992,-0.165,0.105,
993,-0.175,0.11,
994,-0.18,0.105,
995,-0.165,0.115,
996,-0.145,0.11,
997,-0.16,0.1,
998,-0.2,0.095,
999,-0.195,0.105,
1000,-0.19,0.12,
1001,-0.18,0.125,
1002,-0.175,0.12,
1003,-0.18,0.105,
1004,-0.19,0.105,
1005,-0.165,0.13,
1006,-0.17,0.14,
1007,-0.16,0.13,
1008,-0.14,0.135,
1009,-0.16,0.11,
1010,-0.175,0.105,
1011,-0.175,0.12,
1012,-0.195,0.14,
1013,-0.16,0.135,
1014,-0.165,0.125,
1015,-0.18,0.125,
1016,-0.175,0.115,
1017,-0.175,0.13,
1018,-0.17,0.14,
1019,-0.17,0.145,
1020,-0.175,0.125,
1021,-0.185,0.12,
1022,-0.21,0.115,
1023,-0.205,0.125,
1024,-0.185,0.135,
1025,-0.18,0.135,
1026,-0.19,0.14,
1027,-0.215,0.125,
1028,-0.21,0.12,
1029,-0.22,0.135,
1030,-0.2,0.145,
1031,-0.2,0.14,
1032,-0.22,0.115,
1033,-0.225,0.115,
1034,-0.215,0.11,
1035,-0.245,0.125,
1036,-0.225,0.14,
1037,-0.21,0.135,
1038,-0.235,0.125,
1039,-0.24,0.12,
1040,-0.245,0.11,
1041,-0.245,0.105,
1042,-0.225,0.12,
1043,-0.23,0.115,
1044,-0.23,0.105,
1045,-0.255,0.085,
1046,-0.25,0.085,
1047,-0.25,0.105,
1048,-0.235,0.11,
1049,-0.255,0.1,
1050,-0.25,0.08,
1051,-0.285,0.06,
1052,-0.295,0.05,
1053,-0.315,0.055,
1054,-0.315,0.06,
1055,-0.29,0.07,
1056,-0.29,0.055,
1057,-0.31,0.06,
1058,-0.305,0.045,
1059,-0.285,0.07,
1060,-0.25,0.08,
1061,-0.245,0.08,
1062,-0.245,0.07,
1063,-0.26,0.055,
1064,-0.27,0.055,
1065,-0.265,0.055,
1066,-0.24,0.09,
1067,-0.22,0.08,
1068,-0.245,0.075,
1069,-0.255,0.07,
1070,-0.26,0.065,
1071,-0.25,0.09,
1072,-0.235,0.095,
1073,-0.23,0.105,
1074,-0.215,0.085,
1075,-0.235,0.085,
1076,-0.245,0.075,
1077,-0.23,0.09,
1078,-0.235,0.095,
1079,-0.225,0.11,
1080,-0.23,0.1,
1081,-0.245,0.085,
1082,-0.25,0.09,
1083,-0.245,0.095,
1084,-0.24,0.11,
1085,-0.22,0.11,
1086,-0.23,0.1,
1087,-0.245,0.095,
1088,-0.26,0.09,
1089,-0.255,0.105,
1090,-0.245,0.11,
1091,-0.235,0.11,
1092,-0.255,0.095,
1093,-0.255,0.075,
1094,-0.27,0.07,
1095,-0.27,0.07,
1096,-0.25,0.095,
1097,-0.235,0.08,
1098,-0.245,0.07,
1099,-0.26,0.05,
1100,-0.275,0.05,
1101,-0.27,0.035,
1102,-0.25,0.05,
1103,-0.235,0.04,
1104,-0.235,0.03,
1105,-0.235,0.01,
1106,-0.255,0.01,
1107,-0.26,0.02,
1108,-0.245,0.03,
1109,-0.23,0.025,
1110,-0.23,0.005,
1111,-0.235,-0.015,
1112,-0.23,-0.005,
1113,-0.2,0.005,
1114,-0.16,0.0,
1115,-0.12,0.005,
1116,-0.09,-0.025,
1117,-0.07,-0.03,
1118,-0.01,-0.045,
1119,0.15,-0.035,
1120,0.48,-0.01,
1121,0.955,-0.03,
1122,1.355,-0.07,
1123,1.47,-0.12,
1124,1.285,-0.18,
1125,1.065,-0.275,
1126,0.94,-0.445,
1127,0.88,-0.74,
1128,0.81,-1.055,
1129,0.745,-1.205,
1130,0.64,-1.185,
1131,0.565,-1.065,/
1132,0.5,-0.97,
1133,0.425,-0.94,
1134,0.335,-0.93,
1135,0.22,-0.915,
1136,0.11,-0.895,
1137,0.02,-0.845,
1138,-0.085,-0.82,
1139,-0.205,-0.83,
1140,-0.335,-0.82,
1141,-0.47,-0.84,
1142,-0.61,-0.84,
1143,-0.755,-0.84,
1144,-0.9,-0.825,
1145,-1.05,-0.835,
1146,-1.215,-0.86,
1147,-1.35,-0.865,
1148,-1.465,-0.875,
1149,-1.56,-0.855,
1150,-1.62,-0.875,
1151,-1.69,-0.875,
1152,-1.78,-0.91,
1153,-1.835,-0.955,
1154,-1.86,-0.96,
1155,-1.885,-0.97,
1156,-1.875,-0.955,
1157,-1.865,-0.96,
1158,-1.855,-0.985,
1159,-1.815,-1.05,
1160,-1.8,-1.08,
1161,-1.755,-1.105,
1162,-1.7,-1.1,
1163,-1.58,-1.11,
1164,-1.46,-1.14,
1165,-1.36,-1.145,
1166,-1.235,-1.125,
1167,-1.105,-1.09,
1168,-0.98,-1.045,
1169,-0.895,-1.0,
1170,-0.885,-0.99,
1171,-0.9,-0.99,
1172,-0.87,-0.97,
1173,-0.815,-0.92,
1174,-0.72,-0.86,
1175,-0.63,-0.815,
1176,-0.545,-0.785,
1177,-0.495,-0.725,
1178,-0.46,-0.675,
1179,-0.39,-0.62,
1180,-0.32,-0.54,
1181,-0.25,-0.475,
1182,-0.195,-0.42,
1183,-0.15,-0.38,
1184,-0.115,-0.32,
1185,-0.065,-0.235,
1186,-0.02,-0.175,
1187,0.025,-0.125,
1188,0.05,-0.09,
1189,0.05,-0.055,
1190,0.045,-0.01,
1191,0.07,0.04,
1192,0.1,0.075,
1193,0.12,0.095,
1194,0.125,0.115,
1195,0.135,0.125,
1196,0.13,0.13,
1197,0.14,0.145,
1198,0.155,0.165,
1199,0.175,0.175,
1200,0.175,0.17,
1201,0.17,0.175,
1202,0.17,0.19,
1203,0.18,0.195,
1204,0.2,0.22,
1205,0.215,0.22,
1206,0.22,0.21,
1207,0.215,0.215,
1208,0.2,0.2,
1209,0.215,0.225,
1210,0.245,0.24,
1211,0.255,0.245,
1212,0.255,0.225,
1213,0.275,0.22,
1214,0.275,0.23,
1215,0.285,0.265,
1216,0.305,0.28,
1217,0.335,0.28,
1218,0.345,0.28,
1219,0.35,0.28,
1220,0.36,0.29,
1221,0.38,0.285,
1222,0.41,0.315,
1223,0.44,0.32,
1224,0.45,0.31,
1225,0.455,0.315,
1226,0.475,0.335,
1227,0.505,0.355,
1228,0.54,0.365,
1229,0.57,0.38,
1230,0.565,0.38,
1231,0.575,0.355,
1232,0.59,0.375,
1233,0.61,0.395,
1234,0.655,0.405,
1235,0.675,0.415,
1236,0.7,0.425,
1237,0.7,0.41,
1238,0.705,0.42,
1239,0.715,0.45,
1240,0.76,0.47,
1241,0.785,0.475,
1242,0.81,0.48,
1243,0.805,0.475,
1244,0.81,0.48,
1245,0.815,0.5,
1246,0.845,0.52,
1247,0.885,0.515,
1248,0.885,0.515,
1249,0.89,0.51,
1250,0.9,0.52,
1251,0.89,0.53,
1252,0.91,0.55,
1253,0.92,0.55,
1254,0.915,0.545,
1255,0.905,0.55,
1256,0.89,0.55,
1257,0.885,0.575,
1258,0.885,0.595,
1259,0.88,0.605,
1260,0.865,0.6,
1261,0.835,0.595,
1262,0.815,0.595,
1263,0.81,0.605,
1264,0.79,0.61,
1265,0.775,0.615,
1266,0.74,0.595,
1267,0.68,0.58,
1268,0.65,0.57,
1269,0.62,0.59,
1270,0.6,0.605,
1271,0.575,0.59,
1272,0.515,0.565,
1273,0.475,0.535,
1274,0.43,0.51,
1275,0.395,0.505,
1276,0.38,0.505,
1277,0.34,0.485,
1278,0.3,0.455,
1279,0.265,0.43,
1280,0.22,0.41,
1281,0.195,0.41,
1282,0.17,0.41,
1283,0.165,0.385,
1284,0.135,0.36,
1285,0.08,0.33,
1286,0.035,0.305,
1287,0.015,0.3,
1288,0.015,0.3,
1289,0.02,0.28,
1290,-0.01,0.26,
1291,-0.02,0.225,
1292,-0.04,0.215,
1293,-0.04,0.215,
1294,-0.05,0.215,
1295,-0.05,0.195,
1296,-0.08,0.175,
1297,-0.1,0.155,
1298,-0.12,0.16,
1299,-0.12,0.16,
1300,-0.105,0.175,
1301,-0.105,0.165,
1302,-0.125,0.14,
1303,-0.15,0.14,
1304,-0.15,0.135,
1305,-0.14,0.145,
1306,-0.125,0.155,
1307,-0.105,0.15,
1308,-0.11,0.135,
1309,-0.13,0.11,
1310,-0.14,0.12,
1311,-0.15,0.13,
1312,-0.16,0.155,
1313,-0.14,0.155,
1314,-0.135,0.125,
1315,-0.145,0.13,
1316,-0.15,0.13,
1317,-0.14,0.13,
1318,-0.135,0.16,
1319,-0.11,0.155,
1320,-0.105,0.145,
1321,-0.135,0.13,
1322,-0.14,0.135,
1323,-0.14,0.14,
1324,-0.13,0.16,
1325,-0.1,0.15,
1326,-0.11,0.135,
1327,-0.13,0.13,
1328,-0.14,0.135,
1329,-0.145,0.15,
1330,-0.13,0.165,
1331,-0.12,0.165,
1332,-0.135,0.14,
1333,-0.15,0.135,
1334,-0.165,0.13,
1335,-0.16,0.15,
1336,-0.16,0.16,
1337,-0.14,0.155,
1338,-0.155,0.14,
1339,-0.15,0.12,
1340,-0.175,0.12,
1341,-0.16,0.115,
1342,-0.155,0.145,
1343,-0.145,0.14,
1344,-0.17,0.13,
1345,-0.17,0.12,
1346,-0.17,0.11,
1347,-0.18,0.12,
1348,-0.17,0.13,
1349,-0.145,0.12,
1350,-0.165,0.105,
1351,-0.17,0.095,
1352,-0.195,0.095,
1353,-0.2,0.095,
1354,-0.2,0.11,
1355,-0.195,0.115,
1356,-0.205,0.095,
1357,-0.235,0.085,
1358,-0.25,0.09,
1359,-0.24,0.095,
1360,-0.22,0.11,
1361,-0.205,0.105,
1362,-0.2,0.105,
1363,-0.21,0.08,
1364,-0.23,0.075,
1365,-0.205,0.09,
1366,-0.18,0.105,
1367,-0.155,0.09,
1368,-0.17,0.09,
1369,-0.185,0.075,
1370,-0.2,0.09,
1371,-0.21,0.105,
1372,-0.205,0.11,
1373,-0.2,0.125,
1374,-0.19,0.125,
1375,-0.195,0.105,
1376,-0.205,0.1,
1377,-0.2,0.11,
1378,-0.18,0.12,
1379,-0.17,0.11,
1380,-0.16,0.1,
1381,-0.175,0.075,
1382,-0.185,0.07,
1383,-0.185,0.085,
1384,-0.185,0.09,
1385,-0.165,0.08,
1386,-0.185,0.065,
1387,-0.205,0.05,
1388,-0.215,0.045,
1389,-0.205,0.055,
1390,-0.185,0.065,
1391,-0.18,0.08,
1392,-0.17,0.065,
1393,-0.2,0.06,
1394,-0.215,0.075,
1395,-0.21,0.075,
1396,-0.205,0.1,
1397,-0.19,0.105,
1398,-0.2,0.095,
1399,-0.215,0.07,
1400,-0.215,0.065,
1401,-0.22,0.08,
1402,-0.22,0.08,
1403,-0.215,0.07,
1404,-0.225,0.055,
1405,-0.235,0.03,
1406,-0.24,0.03,
1407,-0.24,0.045,
1408,-0.225,0.06,
1409,-0.205,0.045,
1410,-0.195,0.045,
1411,-0.215,0.015,
1412,-0.21,0.015,
1413,-0.205,0.025,
1414,-0.185,0.045,
1415,-0.175,0.035,
1416,-0.175,0.01,
1417,-0.175,0.005,
1418,-0.17,0.005,
1419,-0.17,-0.005,
1420,-0.145,0.02,
1421,-0.125,0.02,
1422,-0.1,0.0,
1423,-0.105,-0.01,
1424,-0.08,-0.015,
1425,-0.035,-0.015,
1426,0.05,-0.01,
1427,0.22,-0.015,
1428,0.555,-0.03,
1429,0.985,-0.05,
1430,1.34,-0.065,
1431,1.415,-0.095,
1432,1.26,-0.16,
1433,1.05,-0.26,
1434,0.915,-0.455,
1435,0.83,-0.75,
1436,0.755,-1.025,
1437,0.69,-1.13,
1438,0.6,-1.08,
1439,0.535,-0.975,/
1440,0.44,-0.92,
1441,0.315,-0.905,
1442,0.195,-0.895,
1443,0.08,-0.865,
1444,-0.02,-0.84,
1445,-0.15,-0.835,
1446,-0.295,-0.85,
1447,-0.47,-0.86,
1448,-0.61,-0.865,
1449,-0.755,-0.87,
1450,-0.905,-0.865,
1451,-1.065,-0.88,
1452,-1.19,-0.895,
1453,-1.33,-0.905,
1454,-1.44,-0.915,
1455,-1.52,-0.9,
1456,-1.575,-0.88,
1457,-1.64,-0.885,
1458,-1.7,-0.9,
1459,-1.75,-0.93,
1460,-1.785,-0.92,
1461,-1.76,-0.905,
1462,-1.7,-0.89,
1463,-1.64,-0.895,
1464,-1.58,-0.915,
1465,-1.515,-0.94,
1466,-1.445,-0.945,
1467,-1.37,-0.95,
1468,-1.285,-0.955,
1469,-1.21,-0.96,
1470,-1.155,-0.98,
1471,-1.05,-1.0,
1472,-0.97,-0.975,
1473,-0.855,-0.935,
1474,-0.735,-0.89,
1475,-0.615,-0.865,
1476,-0.515,-0.85,
1477,-0.44,-0.835,
1478,-0.36,-0.8,
1479,-0.25,-0.755,
1480,-0.14,-0.68,
1481,-0.065,-0.63,
1482,-0.045,-0.545,
1483,-0.025,-0.47,
1484,-0.025,-0.375,
1485,-0.005,-0.28,
1486,0.01,-0.185,
1487,0.035,-0.14,
1488,0.035,-0.09,
1489,0.025,-0.09,
1490,0.02,-0.065,
1491,0.025,-0.03,
1492,0.035,-0.005,
1493,0.04,0.005,
1494,0.035,0.02,
1495,0.045,0.025,
1496,0.025,0.04,
1497,0.03,0.07,
1498,0.04,0.085,
1499,0.06,0.095,
1500,0.06,0.085,
1501,0.045,0.09,
1502,0.035,0.1,
1503,0.065,0.125,
1504,0.075,0.14,
1505,0.095,0.155,
1506,0.105,0.15,
1507,0.085,0.165,
1508,0.095,0.17,
1509,0.1,0.175,
1510,0.125,0.195,
1511,0.13,0.2,
1512,0.15,0.19,
1513,0.14,0.195,
1514,0.14,0.21,
1515,0.13,0.215,
1516,0.16,0.23,
1517,0.175,0.225,
1518,0.175,0.205,
1519,0.185,0.19,
1520,0.18,0.205,
1521,0.195,0.22,
1522,0.205,0.225,
1523,0.23,0.215,
1524,0.23,0.2,
1525,0.21,0.2,
1526,0.21,0.21,
1527,0.24,0.22,
1528,0.26,0.24,
1529,0.29,0.24,
1530,0.275,0.235,
1531,0.3,0.22,
1532,0.295,0.225,
1533,0.32,0.25,
1534,0.345,0.25,
1535,0.38,0.255,
1536,0.39,0.255,
1537,0.37,0.25,
1538,0.385,0.27,
1539,0.41,0.28,
1540,0.43,0.3,
1541,0.475,0.3,
1542,0.485,0.29,
1543,0.5,0.285,
1544,0.495,0.27,
1545,0.5,0.295,
1546,0.525,0.32,
1547,0.535,0.32,
1548,0.55,0.335,
1549,0.545,0.325,
1550,0.535,0.345,
1551,0.56,0.355,
1552,0.59,0.38,
1553,0.6,0.395,
1554,0.59,0.4,
1555,0.585,0.4,
1556,0.575,0.41,
1557,0.57,0.435,
1558,0.57,0.45,
1559,0.585,0.445,
1560,0.56,0.44,
1561,0.52,0.43,
1562,0.5,0.43,
1563,0.485,0.44,
1564,0.465,0.45,
1565,0.455,0.445,
1566,0.43,0.45,
1567,0.395,0.425,
1568,0.35,0.425,
1569,0.33,0.425,
1570,0.31,0.43,
1571,0.3,0.415,
1572,0.26,0.4,
1573,0.21,0.375,
1574,0.175,0.37,
1575,0.15,0.365,
1576,0.115,0.37,
1577,0.115,0.355,
1578,0.09,0.335,
1579,0.05,0.315,
1580,0.015,0.29,
1581,0.0,0.295,
1582,-0.005,0.28,
1583,-0.005,0.28,
1584,-0.015,0.26,
1585,-0.04,0.245,
1586,-0.075,0.23,
1587,-0.075,0.23,
1588,-0.09,0.22,
1589,-0.1,0.205,
1590,-0.125,0.19,
1591,-0.145,0.165,
1592,-0.17,0.155,
1593,-0.165,0.17,
1594,-0.155,0.17,
1595,-0.145,0.16,
1596,-0.145,0.16,
1597,-0.16,0.15,
1598,-0.18,0.175,
1599,-0.175,0.175,
1600,-0.175,0.2,
1601,-0.155,0.2,
1602,-0.175,0.18,
1603,-0.2,0.18,
1604,-0.195,0.18,
1605,-0.2,0.195,
1606,-0.17,0.205,
1607,-0.165,0.2,
1608,-0.18,0.19,
1609,-0.2,0.19,
1610,-0.22,0.185,
1611,-0.215,0.2,
1612,-0.21,0.205,
1613,-0.2,0.195,
1614,-0.195,0.18,
1615,-0.195,0.165,
1616,-0.21,0.145,
1617,-0.205,0.155,
1618,-0.195,0.155,
1619,-0.21,0.145,
1620,-0.205,0.14,
1621,-0.21,0.12,
1622,-0.215,0.115,
1623,-0.22,0.13,
1624,-0.205,0.13,
1625,-0.185,0.125,
1626,-0.185,0.11,
1627,-0.19,0.095,
1628,-0.195,0.105,
1629,-0.2,0.125,
1630,-0.19,0.135,
1631,-0.2,0.135,
1632,-0.215,0.14,
1633,-0.21,0.105,
1634,-0.23,0.11,
1635,-0.25,0.115,
1636,-0.235,0.12,
1637,-0.235,0.12,
1638,-0.23,0.115,
1639,-0.235,0.115,
1640,-0.255,0.115,
1641,-0.25,0.145,
1642,-0.23,0.15,
1643,-0.225,0.14,
1644,-0.23,0.14,
1645,-0.23,0.125,
1646,-0.245,0.14,
1647,-0.245,0.155,
1648,-0.25,0.165,
1649,-0.235,0.165,
1650,-0.235,0.15,
1651,-0.255,0.125,
1652,-0.26,0.135,
1653,-0.27,0.145,
1654,-0.255,0.16,
1655,-0.235,0.16,
1656,-0.255,0.155,
1657,-0.26,0.135,
1658,-0.27,0.145,
1659,-0.25,0.145,
1660,-0.235,0.15,
1661,-0.23,0.145,
1662,-0.245,0.13,
1663,-0.265,0.125,
1664,-0.29,0.115,
1665,-0.29,0.125,
1666,-0.265,0.135,
1667,-0.27,0.115,
1668,-0.27,0.105,
1669,-0.26,0.1,
1670,-0.26,0.09,
1671,-0.26,0.1,
1672,-0.25,0.11,
1673,-0.225,0.115,
1674,-0.245,0.105,
1675,-0.265,0.095,
1676,-0.285,0.08,
1677,-0.275,0.085,
1678,-0.27,0.09,
1679,-0.25,0.085,
1680,-0.275,0.08,
1681,-0.285,0.065,
1682,-0.295,0.075,
1683,-0.3,0.09,
1684,-0.28,0.1,
1685,-0.28,0.1,
1686,-0.285,0.09,
1687,-0.295,0.075,
1688,-0.3,0.09,
1689,-0.305,0.095,
1690,-0.305,0.1,
1691,-0.3,0.1,
1692,-0.305,0.095,
1693,-0.31,0.085,
1694,-0.32,0.075,
1695,-0.325,0.085,
1696,-0.31,0.105,
1697,-0.29,0.115,
1698,-0.3,0.1,
1699,-0.3,0.08,
1700,-0.29,0.095,
1701,-0.29,0.105,
1702,-0.285,0.125,
1703,-0.265,0.115,
1704,-0.28,0.11,
1705,-0.285,0.1,
1706,-0.29,0.09,
1707,-0.3,0.085,
1708,-0.295,0.11,
1709,-0.3,0.095,
1710,-0.31,0.1,
1711,-0.335,0.075,
1712,-0.33,0.08,
1713,-0.32,0.085,
1714,-0.305,0.115,
1715,-0.275,0.09,
1716,-0.27,0.075,
1717,-0.285,0.05,
1718,-0.28,0.05,
1719,-0.285,0.07,
1720,-0.285,0.05,
1721,-0.275,0.055,
1722,-0.26,0.03,
1723,-0.26,0.015,
1724,-0.245,0.005,
1725,-0.235,0.02,
1726,-0.21,0.025,
1727,-0.175,0.04,
1728,-0.125,0.025,
1729,-0.055,0.0,
1730,0.12,0.005,
1731,0.485,0.01,
1732,0.985,0.01,
1733,1.35,-0.025,
1734,1.375,-0.085,
1735,1.18,-0.175,
1736,0.955,-0.315,f
1737,0.835,-0.555,
1738,0.79,-0.885,
1739,0.74,-1.155,
1740,0.655,-1.235,
1741,0.545,-1.165,
1742,0.465,-1.04,
1743,0.39,-0.97,
1744,0.3,-0.93,
1745,0.24,-0.915,
1746,0.14,-0.895,
1747,0.04,-0.885,
1748,-0.07,-0.86,
1749,-0.18,-0.86,
1750,-0.28,-0.83,
1751,-0.36,-0.825,
1752,-0.47,-0.84,
1753,-0.615,-0.86,
1754,-0.73,-0.87,
1755,-0.83,-0.855,
1756,-0.89,-0.83,
1757,-0.88,-0.83,
1758,-0.84,-0.84,
1759,-0.8,-0.86,
1760,-0.775,-0.855,
1761,-0.76,-0.845,
1762,-0.765,-0.84,
1763,-0.775,-0.865,
1764,-0.78,-0.895,
1765,-0.775,-0.925,
1766,-0.74,-0.935,
1767,-0.715,-0.94,
1768,-0.685,-0.905,
1769,-0.69,-0.885,
1770,-0.74,-0.88,
1771,-0.765,-0.875,
1772,-0.735,-0.855,
1773,-0.635,-0.825,
1774,-0.51,-0.77,
1775,-0.4,-0.74,
1776,-0.33,-0.685,
1777,-0.295,-0.605,
1778,-0.295,-0.5,
1779,-0.27,-0.41,
1780,-0.25,-0.325,
1781,-0.22,-0.255,
1782,-0.22,-0.18,
1783,-0.235,-0.145,
1784,-0.24,-0.1,
1785,-0.25,-0.05,
1786,-0.245,-0.02,
1787,-0.23,-0.005,
1788,-0.23,-0.005,
1789,-0.24,-0.01,
1790,-0.26,0.0,
1791,-0.255,0.03,
1792,-0.235,0.055,
1793,-0.22,0.065,
1794,-0.225,0.06,
1795,-0.24,0.045,
1796,-0.26,0.045,
1797,-0.26,0.065,
1798,-0.26,0.095,
1799,-0.25,0.08,
1800,-0.27,0.095,
1801,-0.27,0.085,
1802,-0.28,0.08,
1803,-0.27,0.105,
1804,-0.26,0.125,
1805,-0.245,0.12,
1806,-0.255,0.125,
1807,-0.265,0.105,
1808,-0.285,0.115,
1809,-0.28,0.125,
1810,-0.285,0.14,
1811,-0.27,0.135,
1812,-0.27,0.135,
1813,-0.315,0.125,
1814,-0.325,0.15,
1815,-0.325,0.17,
1816,-0.295,0.18,
1817,-0.28,0.185,
1818,-0.285,0.165,
1819,-0.275,0.165,
1820,-0.27,0.16,
1821,-0.27,0.185,
1822,-0.27,0.2,
1823,-0.255,0.2,
1824,-0.255,0.19,
1825,-0.265,0.17,
1826,-0.275,0.185,
1827,-0.265,0.205,
1828,-0.24,0.225,
1829,-0.225,0.22,
1830,-0.235,0.215,
1831,-0.245,0.195,
1832,-0.245,0.2,
1833,-0.235,0.22,
1834,-0.225,0.225,
1835,-0.21,0.225,
1836,-0.21,0.23,
1837,-0.22,0.215,
1838,-0.225,0.215,
1839,-0.205,0.225,
1840,-0.18,0.245,
1841,-0.17,0.245,
1842,-0.18,0.245,
1843,-0.195,0.22,
1844,-0.22,0.225,
1845,-0.205,0.23,
1846,-0.205,0.225,
1847,-0.195,0.24,
1848,-0.205,0.235,
1849,-0.225,0.23,
1850,-0.245,0.24,
1851,-0.255,0.26,
1852,-0.265,0.275,
1853,-0.27,0.26,
1854,-0.285,0.25,
1855,-0.315,0.24,
1856,-0.32,0.255,
1857,-0.33,0.265,
1858,-0.34,0.28,
1859,-0.345,0.285,
1860,-0.355,0.285,
1861,-0.395,0.285,
1862,-0.42,0.28,
1863,-0.435,0.29,
1864,-0.44,0.31,
1865,-0.445,0.305,
1866,-0.455,0.305,
1867,-0.49,0.28,
1868,-0.48,0.27,
1869,-0.47,0.285,
1870,-0.47,0.275,
1871,-0.445,0.285,
1872,-0.445,0.27,
1873,-0.445,0.245,
1874,-0.445,0.25,
1875,-0.435,0.255,
1876,-0.41,0.27,
1877,-0.38,0.265,
1878,-0.39,0.25,
1879,-0.4,0.235,
1880,-0.405,0.22,
1881,-0.4,0.22,
1882,-0.38,0.23,
1883,-0.34,0.2,
1884,-0.35,0.185,
1885,-0.355,0.185,
1886,-0.36,0.21,
1887,-0.36,0.225,
1888,-0.37,0.235,
1889,-0.355,0.23,
1890,-0.37,0.21,
1891,-0.38,0.205,
1892,-0.39,0.205,
1893,-0.395,0.215,
1894,-0.38,0.225,
1895,-0.38,0.205,
1896,-0.395,0.16,
1897,-0.415,0.15,
1898,-0.425,0.155,
1899,-0.425,0.17,
1900,-0.43,0.155,
1901,-0.405,0.16,
1902,-0.415,0.15,
1903,-0.42,0.16,
1904,-0.435,0.16,
1905,-0.435,0.18,
1906,-0.405,0.18,
1907,-0.41,0.19,
1908,-0.435,0.165,
1909,-0.45,0.175,
1910,-0.465,0.17,
1911,-0.46,0.19,
1912,-0.45,0.195,
1913,-0.455,0.205,
1914,-0.45,0.185,
1915,-0.455,0.175,
1916,-0.46,0.185,
1917,-0.445,0.19,
1918,-0.42,0.195,
1919,-0.405,0.19,
1920,-0.39,0.2,
1921,-0.39,0.17,
1922,-0.39,0.18,
1923,-0.39,0.205,
1924,-0.375,0.21,
1925,-0.35,0.21,
1926,-0.36,0.19,
1927,-0.37,0.17,
1928,-0.37,0.175,
1929,-0.375,0.19,
1930,-0.355,0.21,
1931,-0.365,0.185,
1932,-0.365,0.17,
1933,-0.375,0.145,
1934,-0.38,0.155,
1935,-0.37,0.165,
1936,-0.36,0.175,
1937,-0.36,0.18,
1938,-0.39,0.165,
1939,-0.415,0.15,
1940,-0.405,0.165,
1941,-0.405,0.18,
1942,-0.38,0.195,
1943,-0.355,0.185,
1944,-0.36,0.17,
1945,-0.37,0.15,
1946,-0.38,0.16,
1947,-0.385,0.175,
1948,-0.385,0.2,
1949,-0.38,0.2,
1950,-0.395,0.18,
1951,-0.42,0.165,
1952,-0.44,0.185,
1953,-0.43,0.195,
1954,-0.42,0.205,
1955,-0.435,0.205,
1956,-0.43,0.19,
1957,-0.455,0.18,
1958,-0.475,0.18,
1959,-0.475,0.19,
1960,-0.45,0.195,
1961,-0.43,0.195,
1962,-0.43,0.195,
1963,-0.435,0.19,
1964,-0.455,0.185,
1965,-0.43,0.195,
1966,-0.42,0.22,
1967,-0.39,0.195,
1968,-0.38,0.2,
1969,-0.39,0.165,
1970,-0.4,0.16,
1971,-0.4,0.16,
1972,-0.395,0.165,
1973,-0.405,0.17,
1974,-0.41,0.17,
1975,-0.43,0.17,
1976,-0.435,0.17,
1977,-0.425,0.175,
1978,-0.39,0.195,
1979,-0.38,0.17,
1980,-0.395,0.16,
1981,-0.4,0.15,
1982,-0.42,0.165,
1983,-0.42,0.16,
1984,-0.405,0.175,
1985,-0.405,0.155,
1986,-0.43,0.14,
1987,-0.455,0.135,
1988,-0.445,0.14,
1989,-0.44,0.15,
1990,-0.41,0.18,
1991,-0.405,0.155,
1992,-0.395,0.155,
1993,-0.41,0.135,
1994,-0.425,0.14,
1995,-0.415,0.14,
1996,-0.415,0.18,
1997,-0.425,0.17,
1998,-0.425,0.15,
1999,-0.45,0.125,
2000,-0.475,0.145,
2001,-0.475,0.15,
2002,-0.455,0.175,
2003,-0.445,0.16,
2004,-0.445,0.14,
2005,-0.46,0.125,
2006,-0.455,0.115,
2007,-0.45,0.12,
2008,-0.44,0.13,
2009,-0.43,0.14,
2010,-0.43,0.145,
2011,-0.44,0.13,
2012,-0.455,0.125,
2013,-0.465,0.125,
2014,-0.43,0.145,
2015,-0.41,0.14,
2016,-0.4,0.13,
2017,-0.39,0.105,
2018,-0.37,0.11,
2019,-0.34,0.125,
2020,-0.285,0.14,
2021,-0.205,0.14,
2022,-0.06,0.135,
2023,0.25,0.12,
2024,0.745,0.125,
2025,1.19,0.125,
2026,1.305,0.11,
2027,1.1,0.035,
2028,0.835,-0.15,
2029,0.68,-0.41,
2030,0.585,-0.8,
2031,0.52,-1.155,
2032,0.415,-1.265,
2033,0.315,-1.13,
2034,0.225,-0.95,/
2035,0.12,-0.87,
2036,0.0,-0.845,
2037,-0.115,-0.805,
2038,-0.235,-0.765,
2039,-0.38,-0.755,
2040,-0.52,-0.765,
2041,-0.66,-0.76,
2042,-0.805,-0.76,
2043,-0.935,-0.76,
2044,-1.09,-0.75,
2045,-1.26,-0.755,
2046,-1.42,-0.77,
2047,-1.585,-0.79,
2048,-1.685,-0.79,
2049,-1.76,-0.765,
2050,-1.82,-0.76,
2051,-1.885,-0.78,
2052,-1.975,-0.805,
2053,-2.02,-0.845,
2054,-2.06,-0.855,
2055,-2.06,-0.84,
2056,-2.06,-0.825,
2057,-2.045,-0.84,
2058,-2.025,-0.885,
2059,-1.995,-0.915,
2060,-1.995,-0.96,
2061,-1.92,-0.985,
2062,-1.825,-0.995,
2063,-1.695,-1.01,
2064,-1.56,-1.035,
2065,-1.435,-1.025,
2066,-1.35,-1.01,
2067,-1.25,-0.95,
2068,-1.2,-0.91,
2069,-1.165,-0.86,
2070,-1.155,-0.84,
2071,-1.125,-0.82,
2072,-1.09,-0.77,
2073,-1.03,-0.71,
2074,-0.95,-0.64,
2075,-0.87,-0.585,
2076,-0.815,-0.52,
2077,-0.74,-0.475,
2078,-0.69,-0.41,
2079,-0.615,-0.34,
2080,-0.53,-0.25,
2081,-0.445,-0.185,
2082,-0.395,-0.115,
2083,-0.365,-0.08,
2084,-0.355,-0.005,
2085,-0.32,0.06,
2086,-0.29,0.13,
2087,-0.27,0.17,
2088,-0.26,0.175,
2089,-0.25,0.195,
2090,-0.24,0.24,
2091,-0.235,0.285,
2092,-0.22,0.32,
2093,-0.21,0.335,
2094,-0.205,0.35,
2095,-0.21,0.35,
2096,-0.185,0.36,
2097,-0.17,0.385,
2098,-0.145,0.405,
2099,-0.125,0.385,
2100,-0.09,0.395,
2101,-0.08,0.375,
2102,-0.065,0.39,
2103,-0.055,0.4,
2104,-0.035,0.43,
2105,-0.01,0.42,
2106,0.0,0.4,
2107,0.005,0.395,
2108,-0.005,0.41,
2109,0.015,0.425,
2110,0.03,0.43,
2111,0.045,0.43,
2112,0.06,0.425,
2113,0.065,0.425,
2114,0.08,0.425,
2115,0.085,0.445,
2116,0.085,0.465,
2117,0.1,0.475,
2118,0.11,0.465,
2119,0.11,0.45,
2120,0.105,0.455,
2121,0.135,0.465,
2122,0.165,0.495,
2123,0.2,0.505,
2124,0.235,0.49,
2125,0.26,0.49,
2126,0.265,0.505,
2127,0.295,0.515,
2128,0.33,0.54,
2129,0.355,0.545,
2130,0.355,0.54,
2131,0.36,0.54,
2132,0.38,0.545,
2133,0.4,0.57,
2134,0.425,0.585,
2135,0.43,0.6,
2136,0.46,0.595,
2137,0.47,0.59,
2138,0.495,0.605,
2139,0.525,0.635,
2140,0.555,0.66,
2141,0.6,0.645,
2142,0.61,0.645,
2143,0.62,0.645,
2144,0.65,0.675,
2145,0.67,0.71,
2146,0.71,0.725,
2147,0.725,0.735,
2148,0.72,0.735,
2149,0.71,0.715,
2150,0.69,0.735,
2151,0.7,0.735,
2152,0.7,0.75,
2153,0.72,0.73,
2154,0.695,0.72,
2155,0.68,0.705,
2156,0.65,0.705,
2157,0.64,0.73,
2158,0.62,0.74,
2159,0.595,0.75,
2160,0.545,0.715,
2161,0.49,0.685,
2162,0.435,0.685,
2163,0.405,0.685,
2164,0.39,0.69,
2165,0.365,0.68,
2166,0.32,0.635,
2167,0.265,0.62,
2168,0.2,0.605,
2169,0.15,0.595,
2170,0.12,0.595,
2171,0.09,0.57,
2172,0.055,0.54,
2173,0.0,0.505,
2174,-0.03,0.505,
2175,-0.075,0.505,
2176,-0.105,0.505,
2177,-0.145,0.465,
2178,-0.19,0.435,
2179,-0.225,0.395,
2180,-0.265,0.385,
2181,-0.265,0.385,
2182,-0.295,0.4,
2183,-0.3,0.385,
2184,-0.325,0.36,
2185,-0.325,0.345,
2186,-0.355,0.355,
2187,-0.355,0.34,
2188,-0.345,0.365,
2189,-0.33,0.345,
2190,-0.33,0.335,
2191,-0.33,0.31,
2192,-0.35,0.32,
2193,-0.355,0.32,
2194,-0.345,0.345,
2195,-0.35,0.33,
2196,-0.35,0.295,
2197,-0.345,0.28,
2198,-0.355,0.27,
2199,-0.38,0.28,
2200,-0.36,0.28,
2201,-0.345,0.295,
2202,-0.335,0.285,
2203,-0.345,0.265,
2204,-0.35,0.25,
2205,-0.36,0.265,
2206,-0.345,0.275,
2207,-0.335,0.265,
2208,-0.33,0.255,
2209,-0.345,0.235,
2210,-0.355,0.23,
2211,-0.36,0.24,
2212,-0.345,0.26,
2213,-0.34,0.25,
2214,-0.345,0.245,
2215,-0.35,0.24,
2216,-0.37,0.245,
2217,-0.375,0.26,
2218,-0.36,0.28,
2219,-0.355,0.265,
2220,-0.35,0.255,
2221,-0.36,0.255,
2222,-0.38,0.25,
2223,-0.385,0.265,
2224,-0.375,0.265,
2225,-0.38,0.255,
2226,-0.39,0.25,
2227,-0.4,0.235,
2228,-0.42,0.245,
2229,-0.43,0.25,
2230,-0.42,0.265,
2231,-0.42,0.255,
2232,-0.43,0.24,
2233,-0.45,0.25,
2234,-0.45,0.245,
2235,-0.44,0.265,
2236,-0.415,0.275,
2237,-0.375,0.28,
2238,-0.37,0.27,
2239,-0.365,0.265,
2240,-0.395,0.245,
2241,-0.41,0.26,
2242,-0.405,0.26,
2243,-0.41,0.235,
2244,-0.42,0.215,
2245,-0.435,0.2,
2246,-0.425,0.185,
2247,-0.4,0.195,
2248,-0.39,0.23,
2249,-0.37,0.215,
2250,-0.37,0.21,
2251,-0.39,0.215,
2252,-0.42,0.21,
2253,-0.435,0.21,
2254,-0.425,0.215,
2255,-0.415,0.195,
2256,-0.42,0.18,
2257,-0.43,0.16,
2258,-0.445,0.165,
2259,-0.425,0.18,
2260,-0.415,0.195,
2261,-0.405,0.19,
2262,-0.42,0.18,
2263,-0.415,0.165,
2264,-0.415,0.155,
2265,-0.425,0.18,
2266,-0.415,0.18,
2267,-0.395,0.19,
2268,-0.405,0.175,
2269,-0.425,0.16,
2270,-0.435,0.165,
2271,-0.445,0.19,
2272,-0.455,0.19,
2273,-0.45,0.195,
2274,-0.44,0.175,
2275,-0.445,0.18,
2276,-0.465,0.175,
2277,-0.46,0.195,
2278,-0.45,0.2,
2279,-0.425,0.205,
2280,-0.42,0.18,
2281,-0.43,0.165,
2282,-0.44,0.18,
2283,-0.425,0.19,
2284,-0.415,0.205,
2285,-0.395,0.21,
2286,-0.39,0.195,
2287,-0.4,0.185,
2288,-0.4,0.17,
2289,-0.415,0.165,
2290,-0.415,0.17,
2291,-0.395,0.155,
2292,-0.41,0.155,
2293,-0.405,0.13,
2294,-0.405,0.135,
2295,-0.395,0.145,
2296,-0.39,0.15,
2297,-0.375,0.135,
2298,-0.38,0.12,
2299,-0.405,0.1,
2300,-0.405,0.11,
2301,-0.39,0.12,
2302,-0.39,0.115,
2303,-0.38,0.105,
2304,-0.4,0.1,
2305,-0.385,0.095,
2306,-0.395,0.095,
2307,-0.37,0.105,
2308,-0.36,0.125,
2309,-0.335,0.115,
2310,-0.34,0.095,
2311,-0.315,0.075,
2312,-0.295,0.07,
2313,-0.2,0.075,
2314,-0.005,0.08,
2315,0.375,0.075,
2316,0.895,0.06,
2317,1.31,0.015,
2318,1.35,-0.05,
2319,1.1,-0.11,
2320,0.85,-0.305,
2321,0.72,-0.62,
2322,0.645,-1.025,
2323,0.55,-1.26,
2324,0.43,-1.22,
2325,0.31,-1.05,/
2326,0.2,-0.91,
2327,0.085,-0.885,
2328,-0.065,-0.875,
2329,-0.19,-0.85,
2330,-0.31,-0.82,
2331,-0.41,-0.78,
2332,-0.535,-0.765,
2333,-0.66,-0.775,
2334,-0.81,-0.795,
2335,-0.99,-0.82,
2336,-1.165,-0.85,
2337,-1.315,-0.845,
2338,-1.45,-0.845,
2339,-1.545,-0.85,
2340,-1.64,-0.875,
2341,-1.75,-0.89,
2342,-1.845,-0.925,
2343,-1.92,-0.91,
2344,-1.975,-0.91,
2345,-2.0,-0.935,
2346,-2.035,-0.95,
2347,-2.06,-0.98,
2348,-2.07,-0.98,
2349,-2.035,-0.995,
2350,-1.99,-1.0,
2351,-1.94,-1.03,
2352,-1.9,-1.07,
2353,-1.845,-1.115,
2354,-1.76,-1.135,
2355,-1.615,-1.13,
2356,-1.47,-1.11,
2357,-1.34,-1.105,
2358,-1.225,-1.09,
2359,-1.14,-1.065,
2360,-1.11,-1.015,
2361,-1.075,-0.965,
2362,-1.01,-0.915,
2363,-0.955,-0.9,
2364,-0.92,-0.86,
2365,-0.86,-0.825,
2366,-0.81,-0.775,
2367,-0.735,-0.695,
2368,-0.64,-0.64,
2369,-0.57,-0.58,
2370,-0.505,-0.515,
2371,-0.435,-0.455,
2372,-0.37,-0.395,
2373,-0.325,-0.305,
2374,-0.26,-0.235,
2375,-0.235,-0.175,
2376,-0.205,-0.12,
2377,-0.195,-0.07,
2378,-0.165,-0.02,
2379,-0.115,0.04,
2380,-0.09,0.09,
2381,-0.08,0.115,
2382,-0.08,0.13,
2383,-0.075,0.125,
2384,-0.06,0.13,
2385,-0.02,0.16,
2386,0.01,0.175,
2387,0.035,0.175,
2388,0.05,0.165,
2389,0.05,0.155,
2390,0.055,0.165,
2391,0.065,0.195,
2392,0.095,0.22,
2393,0.115,0.225,
2394,0.11,0.23,
2395,0.105,0.22,
2396,0.115,0.225,
2397,0.12,0.25,
2398,0.14,0.26,
2399,0.165,0.255,
2400,0.17,0.25,
2401,0.18,0.24,
2402,0.17,0.245,
2403,0.19,0.25,
2404,0.205,0.27,
2405,0.215,0.285,
2406,0.22,0.285,
2407,0.215,0.29,
2408,0.225,0.28,
2409,0.255,0.31,
2410,0.29,0.32,
2411,0.32,0.33,
2412,0.34,0.325,
2413,0.33,0.3,
2414,0.33,0.315,
2415,0.345,0.335,
2416,0.395,0.35,
2417,0.425,0.36,
2418,0.435,0.345,
2419,0.455,0.335,
2420,0.47,0.36,
2421,0.49,0.375,
2422,0.52,0.4,
2423,0.545,0.4,
2424,0.555,0.395,
2425,0.565,0.39,
2426,0.58,0.4,
2427,0.615,0.43,
2428,0.65,0.44,
2429,0.685,0.455,
2430,0.7,0.445,
2431,0.725,0.435,
2432,0.74,0.445,
2433,0.76,0.455,
2434,0.79,0.475,
2435,0.815,0.48,
2436,0.825,0.465,
2437,0.815,0.45,
2438,0.835,0.46,
2439,0.855,0.485,
2440,0.885,0.505,
2441,0.9,0.52,
2442,0.88,0.515,
2443,0.875,0.505,
2444,0.865,0.515,
2445,0.865,0.555,
2446,0.875,0.575,
2447,0.865,0.575,
2448,0.83,0.57,
2449,0.795,0.555,
2450,0.765,0.565,
2451,0.74,0.575,
2452,0.74,0.575,
2453,0.705,0.575,
2454,0.665,0.555,
2455,0.615,0.555,
2456,0.56,0.54,
2457,0.555,0.55,
2458,0.505,0.56,
2459,0.47,0.54,
2460,0.41,0.515,
2461,0.34,0.485,
2462,0.28,0.485,
2463,0.245,0.47,
2464,0.21,0.47,
2465,0.185,0.44,
2466,0.14,0.415,
2467,0.08,0.365,
2468,0.04,0.365,
2469,0.005,0.355,
2470,-0.025,0.37,
2471,-0.045,0.34,
2472,-0.07,0.32,
2473,-0.09,0.285,
2474,-0.13,0.28,
2475,-0.15,0.275,
2476,-0.17,0.27,
2477,-0.21,0.26,
2478,-0.22,0.235,
2479,-0.25,0.21,
2480,-0.28,0.205,
2481,-0.27,0.19,
2482,-0.26,0.205,
2483,-0.26,0.195,
2484,-0.255,0.175,
2485,-0.275,0.15,
2486,-0.295,0.125,
2487,-0.29,0.14,
2488,-0.29,0.125,
2489,-0.3,0.115,
2490,-0.295,0.11,
2491,-0.305,0.085,
2492,-0.305,0.08,
2493,-0.3,0.085,
2494,-0.3,0.105,
2495,-0.305,0.095,
2496,-0.3,0.095,
2497,-0.31,0.07,
2498,-0.31,0.06,
2499,-0.295,0.075,
2500,-0.28,0.09,
2501,-0.27,0.085,
2502,-0.275,0.075,
2503,-0.29,0.07,
2504,-0.32,0.09,
2505,-0.305,0.105,
2506,-0.3,0.11,
2507,-0.285,0.11,
2508,-0.3,0.1,
2509,-0.305,0.075,
2510,-0.31,0.085,
2511,-0.3,0.11,
2512,-0.28,0.13,
2513,-0.28,0.12,
2514,-0.275,0.115,
2515,-0.305,0.105,
2516,-0.315,0.095,
2517,-0.305,0.11,
2518,-0.295,0.11,
2519,-0.29,0.115,
2520,-0.32,0.11,
2521,-0.325,0.095,
2522,-0.34,0.09,
2523,-0.33,0.115,
2524,-0.31,0.12,
2525,-0.32,0.115,
2526,-0.32,0.115,
2527,-0.35,0.105,
2528,-0.34,0.11,
2529,-0.345,0.12,
2530,-0.33,0.13,
2531,-0.315,0.13,
2532,-0.335,0.11,
2533,-0.355,0.105,
2534,-0.37,0.095,
2535,-0.35,0.08,
2536,-0.355,0.09,
2537,-0.365,0.09,
2538,-0.38,0.065,
2539,-0.37,0.05,
2540,-0.38,0.07,
2541,-0.375,0.07,
2542,-0.355,0.095,
2543,-0.325,0.09,
2544,-0.345,0.085,
2545,-0.37,0.08,
2546,-0.385,0.06,
2547,-0.38,0.08,
2548,-0.365,0.085,
2549,-0.355,0.08,
2550,-0.36,0.06,
2551,-0.375,0.035,
2552,-0.375,0.04,
2553,-0.375,0.06,
2554,-0.355,0.075,
2555,-0.355,0.065,
2556,-0.345,0.065,
2557,-0.36,0.05,
2558,-0.375,0.055,
2559,-0.365,0.06,
2560,-0.36,0.06,
2561,-0.365,0.065,
2562,-0.385,0.055,
2563,-0.38,0.04,
2564,-0.39,0.055,
2565,-0.375,0.065,
2566,-0.37,0.085,
2567,-0.355,0.08,
2568,-0.365,0.06,
2569,-0.37,0.06,
2570,-0.385,0.06,
2571,-0.375,0.07,
2572,-0.375,0.07,
2573,-0.36,0.07,
2574,-0.37,0.065,
2575,-0.39,0.05,
2576,-0.4,0.045,
2577,-0.405,0.06,
2578,-0.395,0.065,
2579,-0.38,0.08,
2580,-0.4,0.075,
2581,-0.405,0.07,
2582,-0.395,0.065,
2583,-0.39,0.07,
2584,-0.385,0.08,
2585,-0.37,0.065,
2586,-0.37,0.05,
2587,-0.38,0.03,
2588,-0.38,0.015,
2589,-0.385,0.03,
2590,-0.365,0.03,
2591,-0.36,0.035,
2592,-0.365,0.02,
2593,-0.375,0.01,
2594,-0.36,0.02,
2595,-0.37,0.035,
2596,-0.35,0.045,
2597,-0.335,0.04,
2598,-0.34,0.03,
2599,-0.345,0.01,
2600,-0.355,0.0,
2601,-0.35,0.005,
2602,-0.34,0.025,
2603,-0.325,0.015,
2604,-0.325,0.0,
2605,-0.34,-0.01,
2606,-0.33,-0.005,
2607,-0.325,0.01,
2608,-0.315,0.015,
2609,-0.295,0.005,
2610,-0.305,-0.015,
2611,-0.305,-0.025,
2612,-0.305,-0.02,
2613,-0.28,-0.03,
2614,-0.255,-0.02,
2615,-0.18,-0.03,
2616,-0.095,-0.065,
2617,0.125,-0.06,
2618,0.53,-0.055,
2619,1.065,-0.05,
2620,1.445,-0.07,
2621,1.455,-0.13,
2622,1.21,-0.21,
2623,0.95,-0.35,
2624,0.82,-0.575,
2625,0.73,-0.885,
2626,0.655,-1.16,
2627,0.545,-1.295,
2628,0.425,-1.225,
2629,0.305,-1.1,/
2630,0.185,-1.01,
2631,0.08,-0.965,
2632,-0.04,-0.935,
2633,-0.165,-0.915,
2634,-0.305,-0.9,
2635,-0.445,-0.895,
2636,-0.575,-0.885,
2637,-0.715,-0.89,
2638,-0.83,-0.89,
2639,-0.97,-0.905,
2640,-1.12,-0.945,
2641,-1.265,-0.965,
2642,-1.41,-0.975,
2643,-1.51,-0.96,
2644,-1.585,-0.945,
2645,-1.645,-0.965,
2646,-1.73,-0.98,
2647,-1.83,-1.0,
2648,-1.895,-1.015,
2649,-1.945,-1.01,
2650,-1.97,-0.995,
2651,-1.985,-1.03,
2652,-2.01,-1.05,
2653,-2.03,-1.065,
2654,-2.04,-1.065,
2655,-2.005,-1.07,
2656,-1.945,-1.095,
2657,-1.89,-1.125,
2658,-1.86,-1.155,
2659,-1.79,-1.2,
2660,-1.7,-1.21,
2661,-1.58,-1.2,
2662,-1.43,-1.175,
2663,-1.27,-1.165,
2664,-1.15,-1.155,
2665,-1.08,-1.13,
2666,-1.045,-1.08,
2667,-1.025,-1.035,
2668,-0.985,-1.0,
2669,-0.95,-0.975,
2670,-0.9,-0.95,
2671,-0.845,-0.91,
2672,-0.785,-0.86,
2673,-0.71,-0.785,
2674,-0.635,-0.71,
2675,-0.555,-0.67,
2676,-0.475,-0.61,
2677,-0.435,-0.545,
2678,-0.37,-0.46,
2679,-0.305,-0.37,
2680,-0.24,-0.28,
2681,-0.17,-0.2,
2682,-0.13,-0.155,
2683,-0.12,-0.105,
2684,-0.12,-0.045,
2685,-0.11,0.005,
2686,-0.07,0.045,
2687,-0.04,0.07,
2688,-0.015,0.075,
2689,-0.015,0.08,
2690,-0.01,0.09,
2691,0.015,0.115,
2692,0.015,0.14,
2693,0.045,0.12,
2694,0.035,0.115,
2695,0.025,0.1,
2696,0.035,0.115,
2697,0.04,0.125,
2698,0.06,0.135,
2699,0.075,0.135,
2700,0.085,0.135,
2701,0.095,0.14,
2702,0.115,0.135,
2703,0.135,0.165,
2704,0.165,0.19,
2705,0.195,0.19,
2706,0.19,0.185,
2707,0.18,0.175,
2708,0.175,0.18,
2709,0.19,0.205,
2710,0.225,0.24,
2711,0.25,0.245,
2712,0.255,0.245,
2713,0.255,0.24,
2714,0.255,0.255,
2715,0.27,0.265,
2716,0.3,0.29,
2717,0.33,0.31,
2718,0.335,0.3,
2719,0.355,0.295,
2720,0.36,0.315,
2721,0.39,0.335,
2722,0.43,0.35,
2723,0.46,0.35,
2724,0.48,0.345,
2725,0.475,0.33,
2726,0.495,0.355,
2727,0.525,0.37,
2728,0.56,0.395,
2729,0.58,0.4,
2730,0.625,0.39,
2731,0.64,0.39,
2732,0.67,0.395,
2733,0.71,0.425,
2734,0.74,0.45,
2735,0.765,0.45,
2736,0.785,0.45,
2737,0.795,0.45,
2738,0.8,0.465,
2739,0.83,0.5,
2740,0.865,0.505,
2741,0.86,0.515,
2742,0.89,0.515,
2743,0.875,0.515,
2744,0.87,0.515,
2745,0.865,0.54,
2746,0.87,0.565,
2747,0.875,0.56,
2748,0.88,0.55,
2749,0.85,0.545,
2750,0.825,0.55,
2751,0.825,0.56,
2752,0.82,0.55,
2753,0.795,0.535,
2754,0.765,0.5,
2755,0.715,0.49,
2756,0.67,0.48,
2757,0.63,0.475,
2758,0.595,0.465,
2759,0.54,0.455,
2760,0.48,0.42,
2761,0.415,0.41,
2762,0.36,0.405,
2763,0.32,0.41,
2764,0.285,0.41,
2765,0.25,0.395,
2766,0.19,0.36,
2767,0.145,0.335,
2768,0.085,0.32,
2769,0.065,0.315,
2770,0.025,0.315,
2771,-0.025,0.29,
2772,-0.045,0.27,
2773,-0.065,0.23,
2774,-0.105,0.22,
2775,-0.12,0.215,
2776,-0.125,0.225,
2777,-0.145,0.215,
2778,-0.155,0.195,
2779,-0.185,0.165,
2780,-0.195,0.16,
2781,-0.2,0.17,
2782,-0.205,0.17,
2783,-0.2,0.155,
2784,-0.225,0.145,
2785,-0.245,0.125,
2786,-0.24,0.13,
2787,-0.24,0.13,
2788,-0.225,0.155,
2789,-0.23,0.145,
2790,-0.23,0.135,
2791,-0.24,0.12,
2792,-0.255,0.115,
2793,-0.24,0.125,
2794,-0.225,0.13,
2795,-0.235,0.14,
2796,-0.245,0.12,
2797,-0.26,0.11,
2798,-0.265,0.12,
2799,-0.26,0.125,
2800,-0.27,0.14,
2801,-0.265,0.13,
2802,-0.285,0.12,
2803,-0.295,0.12,
2804,-0.315,0.12,
2805,-0.3,0.135,
2806,-0.295,0.145,
2807,-0.265,0.135,
2808,-0.28,0.13,
2809,-0.295,0.115,
2810,-0.28,0.1,
2811,-0.28,0.11,
2812,-0.27,0.105,
2813,-0.255,0.1,
2814,-0.27,0.08,
2815,-0.285,0.075,
2816,-0.275,0.085,
2817,-0.275,0.1,
2818,-0.265,0.115,
2819,-0.255,0.105,
2820,-0.265,0.09,
2821,-0.275,0.085,
2822,-0.275,0.075,
2823,-0.27,0.1,
2824,-0.27,0.11,
2825,-0.27,0.11,
2826,-0.275,0.1,
2827,-0.305,0.08,
2828,-0.32,0.08,
2829,-0.325,0.095,
2830,-0.295,0.115,
2831,-0.3,0.1,
2832,-0.31,0.07,
2833,-0.305,0.06,
2834,-0.31,0.055,
2835,-0.32,0.08,
2836,-0.305,0.1,
2837,-0.28,0.1,
2838,-0.305,0.085,
2839,-0.325,0.065,
2840,-0.325,0.065,
2841,-0.32,0.08,
2842,-0.3,0.085,
2843,-0.3,0.085,
2844,-0.315,0.07,
2845,-0.33,0.06,
2846,-0.34,0.07,
2847,-0.335,0.075,
2848,-0.335,0.1,
2849,-0.32,0.095,
2850,-0.325,0.07,
2851,-0.34,0.07,
2852,-0.36,0.075,
2853,-0.35,0.085,
2854,-0.335,0.095,
2855,-0.335,0.105,
2856,-0.345,0.095,
2857,-0.36,0.07,
2858,-0.38,0.085,
2859,-0.37,0.095,
2860,-0.355,0.105,
2861,-0.36,0.105,
2862,-0.36,0.095,
2863,-0.38,0.09,
2864,-0.365,0.105,
2865,-0.37,0.11,
2866,-0.33,0.125,
2867,-0.31,0.11,
2868,-0.31,0.09,
2869,-0.32,0.075,
2870,-0.315,0.065,
2871,-0.32,0.07,
2872,-0.31,0.075,
2873,-0.305,0.085,
2874,-0.32,0.075,
2875,-0.335,0.075,
2876,-0.33,0.085,
2877,-0.335,0.105,
2878,-0.305,0.135,
2879,-0.31,0.13,
2880,-0.31,0.14,
2881,-0.315,0.13,
2882,-0.305,0.125,
2883,-0.305,0.11,
2884,-0.29,0.11,
2885,-0.285,0.08,
2886,-0.28,0.09,
2887,-0.29,0.07,
2888,-0.315,0.05,
2889,-0.3,0.045,
2890,-0.295,0.025,
2891,-0.305,0.005,
2892,-0.305,0.0,
2893,-0.31,-0.025,
2894,-0.315,-0.015,
2895,-0.305,-0.015,
2896,-0.29,-0.005,
2897,-0.275,0.0,
2898,-0.29,-0.01,
2899,-0.325,-0.02,
2900,-0.315,-0.015,
2901,-0.305,-0.005,
2902,-0.275,0.02,
2903,-0.265,0.015,
2904,-0.28,0.005,
2905,-0.29,0.005,
2906,-0.295,-0.005,
2907,-0.265,0.005,
2908,-0.25,0.02,
2909,-0.24,0.01,
2910,-0.235,-0.005,
2911,-0.24,-0.015,
2912,-0.235,-0.015,
2913,-0.195,-0.015,
2914,-0.105,0.005,
2915,0.04,-0.01,
2916,0.33,-0.025,
2917,0.78,-0.055,
2918,1.23,-0.055,
2919,1.475,-0.08,
2920,1.405,-0.125,
2921,1.165,-0.23,
2922,0.965,-0.41,
2923,0.86,-0.695,
2924,0.805,-1.035,
2925,0.735,-1.265,
2926,0.67,-1.28,
2927,0.585,-1.145,/
2928,0.47,-1.065,
2929,0.36,-1.025,
2930,0.245,-0.99,
2931,0.135,-0.965,
2932,0.025,-0.935,
2933,-0.08,-0.925,
2934,-0.215,-0.935,
2935,-0.365,-0.93,
2936,-0.485,-0.915,
2937,-0.605,-0.915,
2938,-0.73,-0.91,
2939,-0.86,-0.93,
2940,-1.03,-0.955,
2941,-1.2,-0.965,
2942,-1.34,-0.965,
2943,-1.45,-0.955,
2944,-1.51,-0.94,
2945,-1.595,-0.95,
2946,-1.67,-0.97,
2947,-1.785,-0.99,
2948,-1.855,-0.99,
2949,-1.905,-0.99,
2950,-1.925,-0.98,
2951,-1.94,-0.99,
2952,-1.95,-1.035,
2953,-1.945,-1.04,
2954,-1.925,-1.045,
2955,-1.88,-1.055,
2956,-1.81,-1.065,
2957,-1.77,-1.08,
2958,-1.685,-1.105,
2959,-1.61,-1.125,
2960,-1.505,-1.135,
2961,-1.385,-1.12,
2962,-1.25,-1.1,
2963,-1.125,-1.065,
2964,-1.045,-1.035,
2965,-0.985,-1.025,
2966,-0.945,-0.99,
2967,-0.91,-0.95,
2968,-0.87,-0.905,
2969,-0.81,-0.86,
2970,-0.755,-0.83,
2971,-0.72,-0.8,
2972,-0.655,-0.735,
2973,-0.57,-0.66,
2974,-0.49,-0.585,
2975,-0.395,-0.54,
2976,-0.325,-0.465,
2977,-0.275,-0.4,
2978,-0.215,-0.355,
2979,-0.15,-0.275,
2980,-0.08,-0.2,
2981,-0.03,-0.15,
2982,0.0,-0.125,
2983,0.025,-0.1,
2984,0.05,-0.055,
2985,0.075,-0.005,
2986,0.1,0.035,
2987,0.13,0.045,
2988,0.145,0.07,
2989,0.135,0.08,
2990,0.15,0.105,
2991,0.15,0.125,
2992,0.165,0.135,
2993,0.165,0.155,
2994,0.165,0.16,
2995,0.15,0.155,
2996,0.155,0.17,
2997,0.17,0.185,
2998,0.195,0.22,
2999,0.22,0.205,
3000,0.215,0.22,
3001,0.195,0.205,
3002,0.205,0.215,
3003,0.225,0.24,
3004,0.24,0.265,
3005,0.27,0.265,
3006,0.27,0.26,
3007,0.255,0.255,
3008,0.275,0.27,
3009,0.285,0.285,
3010,0.305,0.295,
3011,0.325,0.305,
3012,0.34,0.29,
3013,0.325,0.295,
3014,0.345,0.295,
3015,0.36,0.305,
3016,0.385,0.32,
3017,0.395,0.31,
3018,0.415,0.315,
3019,0.405,0.31,
3020,0.42,0.325,
3021,0.445,0.35,
3022,0.455,0.36,
3023,0.48,0.36,
3024,0.49,0.345,
3025,0.49,0.335,
3026,0.505,0.345,
3027,0.54,0.37,
3028,0.56,0.38,
3029,0.595,0.385,
3030,0.59,0.375,
3031,0.6,0.355,
3032,0.62,0.38,
3033,0.64,0.4,
3034,0.68,0.405,
3035,0.7,0.41,
3036,0.73,0.385,
3037,0.75,0.4,
3038,0.76,0.41,
3039,0.79,0.425,
3040,0.82,0.445,
3041,0.845,0.45,
3042,0.865,0.455,
3043,0.89,0.46,
3044,0.9,0.49,
3045,0.92,0.505,
3046,0.935,0.545,
3047,0.95,0.545,
3048,0.94,0.535,
3049,0.92,0.555,
3050,0.925,0.565,
3051,0.905,0.585,
3052,0.92,0.605,
3053,0.905,0.595,
3054,0.88,0.6,
3055,0.85,0.595,
3056,0.805,0.605,
3057,0.795,0.62,
3058,0.77,0.61,
3059,0.76,0.61,
3060,0.71,0.595,
3061,0.675,0.59,
3062,0.625,0.58,
3063,0.595,0.58,
3064,0.57,0.59,
3065,0.515,0.55,
3066,0.46,0.54,
3067,0.41,0.515,
3068,0.35,0.505,
3069,0.315,0.49,
3070,0.29,0.485,
3071,0.25,0.46,
3072,0.2,0.44,
3073,0.145,0.4,
3074,0.105,0.385,
3075,0.07,0.365,
3076,0.04,0.36,
3077,0.025,0.325,
3078,-0.005,0.31,
3079,-0.055,0.28,
3080,-0.09,0.27,
3081,-0.115,0.265,
3082,-0.115,0.26,
3083,-0.11,0.24,
3084,-0.13,0.215,
3085,-0.18,0.195,
3086,-0.18,0.18,
3087,-0.185,0.19,
3088,-0.17,0.19,
3089,-0.18,0.165,
3090,-0.185,0.155,
3091,-0.21,0.13,
3092,-0.22,0.135,
3093,-0.21,0.155,
3094,-0.2,0.17,
3095,-0.195,0.17,
3096,-0.215,0.16,
3097,-0.23,0.155,
3098,-0.235,0.16,
3099,-0.23,0.185,
3100,-0.2,0.195,
3101,-0.195,0.19,
3102,-0.22,0.17,
3103,-0.235,0.14,
3104,-0.24,0.145,
3105,-0.23,0.175,
3106,-0.215,0.175,
3107,-0.21,0.17,
3108,-0.22,0.15,
3109,-0.22,0.155,
3110,-0.215,0.16,
3111,-0.215,0.16,
3112,-0.21,0.185,
3113,-0.195,0.165,
3114,-0.205,0.155,
3115,-0.215,0.15,
3116,-0.215,0.145,
3117,-0.205,0.155,
3118,-0.215,0.165,
3119,-0.2,0.155,
3120,-0.22,0.145,
3121,-0.22,0.145,
3122,-0.23,0.145,
3123,-0.215,0.15,
3124,-0.22,0.155,
3125,-0.215,0.145,
3126,-0.215,0.125,
3127,-0.23,0.11,
3128,-0.25,0.11,
3129,-0.255,0.12,
3130,-0.245,0.135,
3131,-0.23,0.125,
3132,-0.23,0.11,
3133,-0.255,0.1,
3134,-0.255,0.095,
3135,-0.255,0.09,
3136,-0.26,0.1,
3137,-0.275,0.1,
3138,-0.285,0.1,
3139,-0.28,0.08,
3140,-0.295,0.075,
3141,-0.3,0.085,
3142,-0.29,0.11,
3143,-0.3,0.1,
3144,-0.31,0.105,
3145,-0.325,0.095,
3146,-0.325,0.095,
3147,-0.315,0.115,
3148,-0.295,0.115,
3149,-0.27,0.115,
3150,-0.265,0.115,
3151,-0.27,0.1,
3152,-0.29,0.12,
3153,-0.27,0.13,
3154,-0.26,0.155,
3155,-0.265,0.125,
3156,-0.27,0.115,
3157,-0.29,0.105,
3158,-0.3,0.1,
3159,-0.29,0.12,
3160,-0.285,0.125,
3161,-0.28,0.12,
3162,-0.295,0.095,
3163,-0.31,0.095,
3164,-0.315,0.115,
3165,-0.29,0.115,
3166,-0.285,0.14,
3167,-0.27,0.13,
3168,-0.29,0.12,
3169,-0.325,0.11,
3170,-0.32,0.11,
3171,-0.305,0.105,
3172,-0.28,0.11,
3173,-0.28,0.105,
3174,-0.295,0.085,
3175,-0.3,0.065,
3176,-0.305,0.075,
3177,-0.32,0.085,
3178,-0.305,0.085,
3179,-0.285,0.08,
3180,-0.3,0.055,
3181,-0.305,0.065,
3182,-0.31,0.07,
3183,-0.34,0.055,
3184,-0.33,0.07,
3185,-0.32,0.06,
3186,-0.34,0.045,
3187,-0.355,0.035,
3188,-0.36,0.04,
3189,-0.355,0.065,
3190,-0.33,0.08,
3191,-0.335,0.075,
3192,-0.32,0.055,
3193,-0.335,0.05,
3194,-0.33,0.04,
3195,-0.315,0.045,
3196,-0.3,0.07,
3197,-0.28,0.065,
3198,-0.275,0.05,
3199,-0.29,0.035,
3200,-0.275,0.04,
3201,-0.265,0.055,
3202,-0.26,0.07,
3203,-0.24,0.065,
3204,-0.26,0.05,
3205,-0.28,0.045,
3206,-0.295,0.05,
3207,-0.275,0.055,
3208,-0.25,0.07,
3209,-0.245,0.06,
3210,-0.255,0.04,
3211,-0.275,0.025,
3212,-0.28,0.035,
3213,-0.255,0.04,
3214,-0.235,0.055,
3215,-0.22,0.04,
3216,-0.22,0.02,
3217,-0.235,0.005,
3218,-0.235,0.01,
3219,-0.2,0.005,
3220,-0.165,0.02,
3221,-0.135,0.005,
3222,-0.095,-0.015,
3223,0.0,-0.03,
3224,0.2,-0.025,
3225,0.605,-0.02,
3226,1.08,-0.04,
3227,1.44,-0.08,
3228,1.47,-0.15,
3229,1.255,-0.23,
3230,1.03,-0.355,
3231,0.895,-0.55,
3232,0.835,-0.835,
3233,0.805,-1.115,
3234,0.71,-1.245,
3235,0.605,-1.21,
3236,0.495,-1.1,/
3237,0.41,-1.025,
3238,0.31,-0.99,
3239,0.18,-0.975,
3240,0.03,-0.955,
3241,-0.105,-0.94,
3242,-0.25,-0.92,
3243,-0.355,-0.905,
3244,-0.475,-0.875,
3245,-0.605,-0.895,
3246,-0.77,-0.915,
3247,-0.91,-0.94,
3248,-1.055,-0.94,
3249,-1.175,-0.935,
3250,-1.295,-0.915,
3251,-1.38,-0.925,
3252,-1.485,-0.935,
3253,-1.585,-0.945,
3254,-1.685,-0.94,
3255,-1.77,-0.945,
3256,-1.84,-0.925,
3257,-1.885,-0.935,
3258,-1.925,-0.96,
3259,-1.955,-0.97,
3260,-1.975,-0.975,
3261,-1.96,-0.975,
3262,-1.93,-0.955,
3263,-1.875,-0.985,
3264,-1.865,-1.01,
3265,-1.845,-1.04,
3266,-1.8,-1.07,
3267,-1.715,-1.08,
3268,-1.59,-1.08,
3269,-1.455,-1.085,
3270,-1.33,-1.085,
3271,-1.2,-1.08,
3272,-1.1,-1.04,
3273,-1.01,-0.985,
3274,-0.95,-0.93,
3275,-0.935,-0.905,
3276,-0.915,-0.89,
3277,-0.885,-0.865,
3278,-0.83,-0.82,
3279,-0.76,-0.765,
3280,-0.685,-0.705,
3281,-0.6,-0.655,
3282,-0.545,-0.62,
3283,-0.48,-0.585,
3284,-0.42,-0.515,
3285,-0.325,-0.435,
3286,-0.24,-0.355,
3287,-0.17,-0.3,
3288,-0.125,-0.265,
3289,-0.1,-0.225,
3290,-0.075,-0.185,
3291,-0.04,-0.125,
3292,-0.005,-0.08,
3293,0.025,-0.05,
3294,0.05,-0.035,
3295,0.06,-0.005,
3296,0.055,0.02,
3297,0.09,0.045,
3298,0.105,0.075,
3299,0.125,0.095,
3300,0.13,0.085,
3301,0.145,0.11,
3302,0.14,0.135,
3303,0.16,0.14,
3304,0.185,0.165,
3305,0.2,0.175,
3306,0.195,0.17,
3307,0.195,0.175,
3308,0.2,0.185,
3309,0.22,0.205,
3310,0.255,0.23,
3311,0.265,0.245,
3312,0.26,0.24,
3313,0.26,0.245,
3314,0.26,0.26,
3315,0.29,0.295,
3316,0.335,0.32,
3317,0.355,0.33,
3318,0.345,0.34,
3319,0.33,0.315,
3320,0.325,0.31,
3321,0.345,0.29,
3322,0.38,0.27,
3323,0.395,0.23,
3324,0.415,0.23,
3325,0.39,0.215,
3326,0.405,0.24,
3327,0.435,0.275,
3328,0.45,0.295,
3329,0.485,0.295,
3330,0.5,0.29,
3331,0.49,0.285,
3332,0.505,0.295,
3333,0.515,0.315,
3334,0.55,0.33,
3335,0.585,0.325,
3336,0.595,0.315,
3337,0.59,0.315,
3338,0.605,0.32,
3339,0.645,0.33,
3340,0.675,0.35,
3341,0.71,0.355,
3342,0.725,0.33,
3343,0.74,0.325,
3344,0.74,0.325,
3345,0.77,0.335,
3346,0.815,0.355,
3347,0.835,0.345,
3348,0.86,0.345,
3349,0.88,0.34,
3350,0.885,0.34,
3351,0.92,0.355,
3352,0.955,0.38,
3353,0.96,0.39,
3354,0.95,0.395,
3355,0.94,0.395,
3356,0.945,0.415,
3357,0.955,0.44,
3358,0.985,0.47,
3359,0.985,0.47,
3360,0.97,0.47,
3361,0.975,0.46,
3362,0.96,0.5,
3363,0.965,0.495,
3364,0.95,0.53,
3365,0.955,0.52,
3366,0.925,0.515,
3367,0.875,0.525,
3368,0.845,0.535,
3369,0.82,0.56,
3370,0.805,0.57,
3371,0.79,0.555,
3372,0.74,0.525,
3373,0.695,0.525,
3374,0.645,0.525,
3375,0.59,0.525,
3376,0.555,0.515,
3377,0.52,0.495,
3378,0.475,0.48,
3379,0.41,0.445,
3380,0.355,0.43,
3381,0.325,0.42,
3382,0.31,0.415,
3383,0.275,0.39,
3384,0.24,0.36,
3385,0.185,0.33,
3386,0.14,0.315,
3387,0.11,0.305,
3388,0.09,0.3,
3389,0.06,0.27,
3390,0.03,0.245,
3391,-0.02,0.205,
3392,-0.045,0.21,
3393,-0.045,0.2,
3394,-0.065,0.195,
3395,-0.055,0.175,
3396,-0.065,0.14,
3397,-0.09,0.13,
3398,-0.115,0.105,
3399,-0.11,0.105,
3400,-0.105,0.1,
3401,-0.105,0.08,
3402,-0.125,0.06,
3403,-0.13,0.045,
3404,-0.145,0.035,
3405,-0.14,0.045,
3406,-0.135,0.065,
3407,-0.135,0.05,
3408,-0.14,0.055,
3409,-0.17,0.055,
3410,-0.165,0.06,
3411,-0.15,0.085,
3412,-0.135,0.09,
3413,-0.12,0.09,
3414,-0.125,0.07,
3415,-0.135,0.075,
3416,-0.15,0.085,
3417,-0.16,0.095,
3418,-0.16,0.11,
3419,-0.145,0.1,
3420,-0.155,0.1,
3421,-0.16,0.095,
3422,-0.14,0.1,
3423,-0.15,0.12,
3424,-0.135,0.13,
3425,-0.135,0.13,
3426,-0.145,0.125,
3427,-0.165,0.115,
3428,-0.17,0.11,
3429,-0.155,0.115,
3430,-0.155,0.14,
3431,-0.14,0.12,
3432,-0.16,0.11,
3433,-0.185,0.105,
3434,-0.195,0.095,
3435,-0.195,0.11,
3436,-0.18,0.105,
3437,-0.185,0.11,
3438,-0.19,0.105,
3439,-0.205,0.085,
3440,-0.21,0.085,
3441,-0.2,0.085,
3442,-0.19,0.105,
3443,-0.185,0.11,
3444,-0.195,0.09,
3445,-0.23,0.075,
3446,-0.225,0.06,
3447,-0.215,0.055,
3448,-0.22,0.055,
3449,-0.215,0.05,
3450,-0.22,0.035,
3451,-0.245,0.025,
3452,-0.245,0.02,
3453,-0.235,0.025,
3454,-0.23,0.03,
3455,-0.24,0.025,
3456,-0.26,0.025,
3457,-0.285,0.01,
3458,-0.285,0.025,
3459,-0.275,0.03,
3460,-0.25,0.045,
3461,-0.25,0.035,
3462,-0.25,0.02,
3463,-0.245,0.015,
3464,-0.245,0.005,
3465,-0.225,0.03,
3466,-0.225,0.05,
3467,-0.225,0.05,
3468,-0.22,0.045,
3469,-0.245,0.06,
3470,-0.24,0.05,
3471,-0.225,0.07,
3472,-0.225,0.08,
3473,-0.215,0.065,
3474,-0.24,0.055,
3475,-0.235,0.055,
3476,-0.25,0.055,
3477,-0.225,0.075,
3478,-0.205,0.08,
3479,-0.22,0.075,
3480,-0.21,0.07,
3481,-0.23,0.05,
3482,-0.245,0.065,
3483,-0.265,0.075,
3484,-0.22,0.065,
3485,-0.22,0.05,
3486,-0.225,0.045,
3487,-0.24,0.04,
3488,-0.235,0.05,
3489,-0.235,0.06,
3490,-0.215,0.06,
3491,-0.215,0.05,
3492,-0.225,0.035,
3493,-0.245,0.025,
3494,-0.245,0.02,
3495,-0.235,0.04,
3496,-0.22,0.035,
3497,-0.205,0.025,
3498,-0.225,0.015,
3499,-0.225,-0.005,
3500,-0.22,0.005,
3501,-0.225,0.005,
3502,-0.21,0.015,
3503,-0.2,0.005,
3504,-0.215,-0.015,
3505,-0.24,-0.02,
3506,-0.245,-0.02,
3507,-0.24,-0.015,
3508,-0.23,0.015,
3509,-0.22,-0.005,
3510,-0.24,-0.01,
3511,-0.255,-0.02,
3512,-0.27,0.0,
3513,-0.26,0.005,
3514,-0.235,0.02,
3515,-0.225,0.015,
3516,-0.225,0.005,
3517,-0.225,0.0,
3518,-0.22,0.0,
3519,-0.205,0.015,
3520,-0.185,0.035,
3521,-0.19,0.01,
3522,-0.18,0.015,
3523,-0.18,-0.005,
3524,-0.175,0.005,
3525,-0.175,0.015,
3526,-0.155,0.015,
3527,-0.13,0.015,
3528,-0.14,-0.005,
3529,-0.11,-0.01,
3530,-0.07,0.0,
3531,-0.005,-0.005,
3532,0.14,0.0,
3533,0.38,-0.015,
3534,0.795,-0.035,
3535,1.215,-0.055,
3536,1.475,-0.075,
3537,1.44,-0.11,
3538,1.245,-0.185,
3539,1.07,-0.34,
3540,0.955,-0.63,
3541,0.87,-0.97,
3542,0.8,-1.28,
3543,0.745,-1.385,
3544,0.665,-1.325,
3545,0.59,-1.18,/
3546,0.495,-1.105,
3547,0.36,-1.065,
3548,0.255,-1.035,
3549,0.135,-1.005,
3550,0.02,-0.975,
3551,-0.11,-0.965,
3552,-0.255,-0.985,
3553,-0.395,-0.995,
3554,-0.54,-0.97,
3555,-0.675,-0.975,
3556,-0.82,-0.97,
3557,-0.96,-0.995,
3558,-1.13,-1.005,
3559,-1.28,-1.02,
3560,-1.445,-1.015,
3561,-1.555,-1.0,
3562,-1.615,-0.995,
3563,-1.715,-1.015,
3564,-1.82,-1.03,
3565,-1.895,-1.065,
3566,-1.96,-1.045,
3567,-1.97,-1.035,
3568,-1.965,-1.035,
3569,-1.98,-1.02,
3570,-1.95,-1.035,
3571,-1.94,-1.05,
3572,-1.91,-1.055,
3573,-1.86,-1.06,
3574,-1.78,-1.065,
3575,-1.72,-1.09,
3576,-1.625,-1.115,
3577,-1.53,-1.15,
3578,-1.405,-1.155,
3579,-1.265,-1.135,
3580,-1.12,-1.105,
3581,-0.995,-1.075,
3582,-0.93,-1.05,
3583,-0.895,-1.005,
3584,-0.855,-0.975,
3585,-0.785,-0.92,
3586,-0.72,-0.885,
3587,-0.65,-0.845,
3588,-0.59,-0.81,
3589,-0.54,-0.775,
3590,-0.475,-0.71,
3591,-0.395,-0.635,
3592,-0.31,-0.565,
3593,-0.235,-0.515,
3594,-0.185,-0.48,
3595,-0.135,-0.43,
3596,-0.09,-0.365,
3597,-0.025,-0.275,
3598,0.035,-0.2,
3599,0.095,-0.145,
3600,0.115,-0.13,
3601,0.105,-0.09,
3602,0.125,-0.04,
3603,0.15,0.0,
3604,0.17,0.035,
3605,0.195,0.05,
3606,0.2,0.065,
3607,0.19,0.06,
3608,0.2,0.08,
3609,0.205,0.1,
3610,0.235,0.12,
3611,0.245,0.125,
3612,0.23,0.13,
3613,0.215,0.14,
3614,0.225,0.15,
3615,0.24,0.17,
3616,0.25,0.185,
3617,0.245,0.19,
3618,0.24,0.165,
3619,0.255,0.16,
3620,0.255,0.17,
3621,0.29,0.215,
3622,0.32,0.23,
3623,0.345,0.22,
3624,0.35,0.21,
3625,0.355,0.2,
3626,0.355,0.225,
3627,0.38,0.25,
3628,0.405,0.27,
3629,0.42,0.265,
3630,0.42,0.265,
3631,0.425,0.26,
3632,0.44,0.265,
3633,0.465,0.28,
3634,0.5,0.29,
3635,0.53,0.295,
3636,0.53,0.295,
3637,0.525,0.285,
3638,0.545,0.305,
3639,0.55,0.32,
3640,0.585,0.325,
3641,0.6,0.335,
3642,0.615,0.345,
3643,0.62,0.335,
3644,0.635,0.335,
3645,0.67,0.36,
3646,0.695,0.375,
3647,0.71,0.365,
3648,0.725,0.34,
3649,0.745,0.325,
3650,0.75,0.36,
3651,0.775,0.375,
3652,0.79,0.385,
3653,0.83,0.39,
3654,0.855,0.37,
3655,0.86,0.365,
3656,0.875,0.385,
3657,0.89,0.4,
3658,0.92,0.415,
3659,0.935,0.415,
3660,0.935,0.405,
3661,0.94,0.415,
3662,0.945,0.415,
3663,0.96,0.455,
3664,0.99,0.48,
3665,0.99,0.475,
3666,0.99,0.48,
3667,0.975,0.475,
3668,0.975,0.495,
3669,0.975,0.525,
3670,0.98,0.535,
3671,0.975,0.525,
3672,0.96,0.51,
3673,0.95,0.52,
3674,0.925,0.54,
3675,0.92,0.555,
3676,0.905,0.575,
3677,0.895,0.57,
3678,0.865,0.565,
3679,0.82,0.545,
3680,0.765,0.555,
3681,0.755,0.57,
3682,0.725,0.565,
3683,0.705,0.555,
3684,0.67,0.53,
3685,0.62,0.515,
3686,0.575,0.51,
3687,0.545,0.515,
3688,0.52,0.525,
3689,0.485,0.5,
3690,0.44,0.465,
3691,0.385,0.44,
3692,0.33,0.435,
3693,0.3,0.43,
3694,0.27,0.42,
3695,0.23,0.4,
3696,0.19,0.365,
3697,0.13,0.325,
3698,0.105,0.305,
3699,0.075,0.3,
3700,0.065,0.3,
3701,0.035,0.31,
3702,0.005,0.275,
3703,-0.005,0.26,
3704,-0.025,0.22,
3705,-0.045,0.2,
3706,-0.04,0.185,
3707,-0.05,0.16,
3708,-0.075,0.155,
3709,-0.08,0.115,
3710,-0.105,0.105,
3711,-0.11,0.105,
3712,-0.11,0.12,
3713,-0.115,0.115,
3714,-0.135,0.085,
3715,-0.16,0.07,
3716,-0.15,0.065,
3717,-0.15,0.075,
3718,-0.135,0.095,
3719,-0.12,0.09,
3720,-0.145,0.085,
3721,-0.155,0.07,
3722,-0.15,0.07,
3723,-0.135,0.08,
3724,-0.13,0.09,
3725,-0.12,0.085,
3726,-0.13,0.09,
3727,-0.145,0.09,
3728,-0.155,0.095,
3729,-0.135,0.115,
3730,-0.11,0.135,
3731,-0.105,0.115,
3732,-0.125,0.11,
3733,-0.13,0.095,
3734,-0.13,0.095,
3735,-0.13,0.12,
3736,-0.12,0.14,
3737,-0.125,0.13,
3738,-0.135,0.145,
3739,-0.14,0.14,
3740,-0.155,0.13,
3741,-0.125,0.15,
3742,-0.12,0.155,
3743,-0.125,0.155,
3744,-0.145,0.155,
3745,-0.165,0.135,
3746,-0.175,0.15,
3747,-0.16,0.155,
3748,-0.135,0.175,
3749,-0.15,0.18,
3750,-0.155,0.15,
3751,-0.18,0.13,
3752,-0.195,0.12,
3753,-0.195,0.11,
3754,-0.175,0.12,
3755,-0.17,0.105,
3756,-0.18,0.09,
3757,-0.2,0.075,
3758,-0.205,0.09,
3759,-0.21,0.085,
3760,-0.215,0.09,
3761,-0.225,0.08,
3762,-0.24,0.07,
3763,-0.26,0.055,
3764,-0.25,0.05,
3765,-0.25,0.055,
3766,-0.23,0.06,
3767,-0.23,0.05,
3768,-0.245,0.03,
3769,-0.26,0.025,
3770,-0.255,0.055,
3771,-0.25,0.075,
3772,-0.235,0.09,
3773,-0.23,0.09,
3774,-0.255,0.075,
3775,-0.265,0.06,
3776,-0.275,0.06,
3777,-0.29,0.085,
3778,-0.265,0.105,
3779,-0.255,0.095,
3780,-0.245,0.095,
3781,-0.25,0.095,
3782,-0.24,0.115,
3783,-0.245,0.15,
3784,-0.2,0.16,
3785,-0.185,0.145,
3786,-0.22,0.115,
3787,-0.215,0.08,
3788,-0.235,0.07,
3789,-0.22,0.07,
3790,-0.2,0.09,
3791,-0.19,0.085,
3792,-0.19,0.075,
3793,-0.195,0.06,
3794,-0.215,0.055,
3795,-0.205,0.075,
3796,-0.195,0.095,
3797,-0.2,0.09,
3798,-0.205,0.095,
3799,-0.21,0.095,
3800,-0.22,0.09,
3801,-0.2,0.09,
3802,-0.195,0.095,
3803,-0.185,0.105,
3804,-0.18,0.08,
3805,-0.19,0.075,
3806,-0.21,0.07,
3807,-0.205,0.08,
3808,-0.195,0.085,
3809,-0.185,0.05,
3810,-0.195,0.045,
3811,-0.23,0.035,
3812,-0.21,0.045,
3813,-0.21,0.045,
3814,-0.2,0.065,
3815,-0.21,0.05,
3816,-0.245,0.04,
3817,-0.26,0.03,
3818,-0.255,0.03,
3819,-0.235,0.045,
3820,-0.21,0.05,
3821,-0.22,0.035,
3822,-0.22,0.02,
3823,-0.23,0.01,
3824,-0.225,0.01,
3825,-0.215,0.005,
3826,-0.2,0.02,
3827,-0.205,0.005,
3828,-0.215,-0.015,
3829,-0.24,-0.015,
3830,-0.25,-0.01,
3831,-0.235,0.005,
3832,-0.22,0.01,
3833,-0.205,0.01,
3834,-0.22,0.005,
3835,-0.225,-0.01,
3836,-0.225,0.005,
3837,-0.19,0.025,
3838,-0.155,0.04,
3839,-0.14,0.035,
3840,-0.13,0.01,
3841,-0.145,0.0,
3842,-0.125,0.01,
3843,-0.075,0.02,
3844,0.02,0.03,
3845,0.185,0.03,
3846,0.49,0.01,
3847,0.91,-0.015,
3848,1.31,-0.02,
3849,1.455,-0.025,
3850,1.35,-0.075,
3851,1.145,-0.17,
3852,0.995,-0.395,
3853,0.905,-0.735,
3854,0.83,-1.09,
3855,0.745,-1.245,
3856,0.645,-1.13,
3857,0.54,-0.995,/
3858,0.425,-0.93,
3859,0.295,-0.915,
3860,0.2,-0.895,
3861,0.09,-0.86,
3862,-0.03,-0.85,
3863,-0.15,-0.83,
3864,-0.3,-0.835,
3865,-0.465,-0.855,
3866,-0.59,-0.86,
3867,-0.735,-0.875,
3868,-0.875,-0.875,
3869,-1.025,-0.89,
3870,-1.185,-0.91,
3871,-1.315,-0.925,
3872,-1.415,-0.935,
3873,-1.495,-0.92,
3874,-1.575,-0.93,
3875,-1.66,-0.95,
3876,-1.745,-0.965,
3877,-1.815,-0.985,
3878,-1.85,-0.995,
3879,-1.85,-0.98,
3880,-1.865,-0.98,
3881,-1.855,-1.0,
3882,-1.835,-1.03,
3883,-1.81,-1.06,
3884,-1.785,-1.06,
3885,-1.715,-1.08,
3886,-1.61,-1.075,
3887,-1.49,-1.095,
3888,-1.375,-1.125,
3889,-1.255,-1.12,
3890,-1.13,-1.1,
3891,-1.02,-1.06,
3892,-0.92,-1.02,
3893,-0.86,-0.985,
3894,-0.84,-0.955,
3895,-0.845,-0.93,
3896,-0.8,-0.88,
3897,-0.735,-0.815,
3898,-0.65,-0.75,
3899,-0.555,-0.71,
3900,-0.495,-0.675,
3901,-0.42,-0.615,
3902,-0.36,-0.56,
3903,-0.29,-0.48,
3904,-0.195,-0.4,
3905,-0.145,-0.345,
3906,-0.095,-0.29,
3907,-0.065,-0.235,
3908,-0.02,-0.17,
3909,0.015,-0.095,
3910,0.075,-0.04,
3911,0.1,0.005,
3912,0.105,0.03,
3913,0.1,0.055,
3914,0.1,0.09,
3915,0.125,0.115,
3916,0.175,0.145,
3917,0.19,0.155,
3918,0.19,0.15,
3919,0.175,0.145,
3920,0.175,0.155,
3921,0.185,0.17,
3922,0.2,0.18,
3923,0.205,0.18,
3924,0.205,0.165,
3925,0.195,0.165,
3926,0.205,0.18,
3927,0.22,0.195,
3928,0.27,0.215,
3929,0.265,0.19,
3930,0.27,0.195,
3931,0.27,0.19,
3932,0.28,0.205,
3933,0.29,0.22,
3934,0.315,0.245,
3935,0.33,0.255,
3936,0.335,0.265,
3937,0.335,0.265,
3938,0.34,0.275,
3939,0.36,0.285,
3940,0.39,0.275,
3941,0.42,0.26,
3942,0.425,0.27,
3943,0.435,0.28,
3944,0.45,0.3,
3945,0.48,0.32,
3946,0.49,0.335,
3947,0.515,0.345,
3948,0.515,0.33,
3949,0.505,0.325,
3950,0.535,0.36,
3951,0.57,0.375,
3952,0.605,0.395,
3953,0.625,0.395,
3954,0.635,0.405,
3955,0.635,0.41,
3956,0.645,0.425,
3957,0.675,0.45,
3958,0.715,0.475,
3959,0.74,0.47,
3960,0.75,0.45,
3961,0.745,0.455,
3962,0.77,0.475,
3963,0.805,0.49,
3964,0.835,0.52,
3965,0.855,0.51,
3966,0.855,0.505,
3967,0.865,0.49,
3968,0.875,0.51,
3969,0.86,0.525,
3970,0.89,0.545,
3971,0.895,0.545,
3972,0.895,0.545,
3973,0.88,0.535,
3974,0.88,0.555,
3975,0.9,0.575,
3976,0.905,0.59,
3977,0.915,0.585,
3978,0.89,0.57,
3979,0.865,0.575,
3980,0.85,0.57,
3981,0.84,0.59,
3982,0.85,0.6,
3983,0.825,0.6,
3984,0.785,0.57,
3985,0.75,0.56,
3986,0.715,0.57,
3987,0.695,0.565,
3988,0.675,0.57,
3989,0.64,0.565,
3990,0.595,0.555,
3991,0.56,0.525,
3992,0.525,0.51,
3993,0.49,0.515,
3994,0.475,0.525,
3995,0.435,0.49,
3996,0.405,0.46,
3997,0.35,0.435,
3998,0.295,0.425,
3999,0.27,0.415,
4000,0.24,0.415,
4001,0.225,0.385,
4002,0.18,0.355,
4003,0.125,0.32,
4004,0.1,0.32,
4005,0.095,0.325,
4006,0.08,0.31,
4007,0.07,0.295,
4008,0.03,0.255,
4009,0.02,0.235,
4010,0.0,0.23,
4011,0.005,0.23,
4012,0.0,0.235,
4013,0.0,0.225,
4014,-0.005,0.195,
4015,-0.04,0.175,
4016,-0.06,0.175,
4017,-0.065,0.17,
4018,-0.045,0.175,
4019,-0.045,0.17,
4020,-0.05,0.145,
4021,-0.06,0.13,
4022,-0.07,0.14,
4023,-0.065,0.14,
4024,-0.055,0.15,
4025,-0.04,0.145,
4026,-0.04,0.12,
4027,-0.055,0.11,
4028,-0.07,0.115,
4029,-0.05,0.125,
4030,-0.05,0.13,
4031,-0.055,0.12,
4032,-0.06,0.12,
4033,-0.085,0.11,
4034,-0.08,0.11,
4035,-0.065,0.125,
4036,-0.05,0.14,
4037,-0.04,0.13,
4038,-0.05,0.12,
4039,-0.06,0.12,
4040,-0.085,0.145,
4041,-0.075,0.155,
4042,-0.065,0.17,
4043,-0.05,0.15,
4044,-0.07,0.145,
4045,-0.065,0.14,
4046,-0.08,0.15,
4047,-0.06,0.17,
4048,-0.04,0.19,
4049,-0.04,0.175,
4050,-0.045,0.16,
4051,-0.06,0.15,
4052,-0.065,0.15,
4053,-0.055,0.165,
4054,-0.055,0.175,
4055,-0.05,0.17,
4056,-0.06,0.14,
4057,-0.075,0.13,
4058,-0.07,0.14,
4059,-0.07,0.155,
4060,-0.06,0.155,
4061,-0.07,0.14,
4062,-0.075,0.115,
4063,-0.08,0.105,
4064,-0.075,0.115,
4065,-0.07,0.115,
4066,-0.06,0.12,
4067,-0.07,0.105,
4068,-0.095,0.09,
4069,-0.12,0.075,
4070,-0.125,0.075,
4071,-0.115,0.09,
4072,-0.095,0.08,
4073,-0.095,0.075,
4074,-0.105,0.07,
4075,-0.125,0.055,
4076,-0.13,0.075,
4077,-0.135,0.08,
4078,-0.125,0.095,
4079,-0.125,0.095,
4080,-0.135,0.085,
4081,-0.15,0.075,
4082,-0.16,0.06,
4083,-0.15,0.075,
4084,-0.13,0.09,
4085,-0.125,0.08,
4086,-0.13,0.07,
4087,-0.14,0.06,
4088,-0.125,0.07,
4089,-0.12,0.09,
4090,-0.125,0.11,
4091,-0.125,0.105,
4092,-0.14,0.095,
4093,-0.135,0.085,
4094,-0.15,0.1,
4095,-0.14,0.12,
4096,-0.11,0.12,
4097,-0.13,0.115,
4098,-0.15,0.095,
4099,-0.155,0.08,
4100,-0.15,0.095,
4101,-0.145,0.11,
4102,-0.14,0.115,
4103,-0.125,0.12,
4104,-0.14,0.085,
4105,-0.16,0.08,
4106,-0.155,0.095,
4107,-0.15,0.1,
4108,-0.12,0.11,
4109,-0.125,0.095,
4110,-0.135,0.07,
4111,-0.15,0.06,
4112,-0.14,0.055,
4113,-0.145,0.07,
4114,-0.13,0.075,
4115,-0.115,0.065,
4116,-0.12,0.045,
4117,-0.14,0.025,
4118,-0.145,0.03,
4119,-0.14,0.04,
4120,-0.12,0.04,
4121,-0.13,0.035,
4122,-0.12,0.015,
4123,-0.135,0.0,
4124,-0.135,0.0,
4125,-0.13,0.015,
4126,-0.115,0.02,
4127,-0.125,0.015,
4128,-0.135,0.015,
4129,-0.155,0.005,
4130,-0.14,0.01,
4131,-0.125,0.03,
4132,-0.105,0.03,
4133,-0.105,0.01,
4134,-0.105,-0.005,
4135,-0.105,-0.01,
4136,-0.105,-0.01,
4137,-0.065,-0.005,
4138,-0.03,-0.005,
4139,-0.005,-0.02,
4140,0.025,-0.03,
4141,0.11,-0.03,
4142,0.285,-0.015,
4143,0.67,-0.01,
4144,1.13,-0.005,
4145,1.475,-0.04,
4146,1.505,-0.09,
4147,1.295,-0.175,
4148,1.08,-0.295,
4149,0.96,-0.535,
4150,0.925,-0.84,
4151,0.855,-1.14,
4152,0.765,-1.24,
4153,0.645,-1.145,
4154,0.55,-1.02,/
4155,0.45,-0.955,
4156,0.36,-0.925,
4157,0.245,-0.9,
4158,0.1,-0.89,
4159,-0.045,-0.89,
4160,-0.195,-0.875,
4161,-0.335,-0.86,
4162,-0.465,-0.85,
4163,-0.6,-0.88,
4164,-0.765,-0.91,
4165,-0.955,-0.935,
4166,-1.13,-0.93,
4167,-1.27,-0.92,
4168,-1.395,-0.91,
4169,-1.495,-0.95,
4170,-1.61,-0.97,
4171,-1.695,-1.005,
4172,-1.785,-1.0,
4173,-1.83,-0.985,
4174,-1.855,-0.975,
4175,-1.915,-0.99,
4176,-1.93,-1.015,
4177,-1.945,-1.02,
4178,-1.925,-1.035,
4179,-1.855,-1.01,
4180,-1.8,-1.025,
4181,-1.735,-1.04,
4182,-1.675,-1.08,
4183,-1.58,-1.09,
4184,-1.455,-1.1,
4185,-1.295,-1.105,
4186,-1.125,-1.09,
4187,-0.96,-1.085,
4188,-0.86,-1.055,
4189,-0.81,-1.025,
4190,-0.755,-0.98,
4191,-0.7,-0.935,
4192,-0.625,-0.895,
4193,-0.54,-0.87,
4194,-0.49,-0.84,
4195,-0.435,-0.795,
4196,-0.385,-0.725,
4197,-0.295,-0.665,
4198,-0.21,-0.58,
4199,-0.145,-0.53,
4200,-0.06,-0.47,
4201,-0.005,-0.395,
4202,0.05,-0.325,
4203,0.115,-0.27,
4204,0.19,-0.2,
4205,0.22,-0.145,
4206,0.225,-0.115,
4207,0.235,-0.065,
4208,0.245,-0.01,
4209,0.28,0.035,
4210,0.315,0.08,
4211,0.33,0.075,
4212,0.325,0.095,
4213,0.32,0.095,
4214,0.35,0.11,
4215,0.365,0.135,
4216,0.39,0.15,
4217,0.4,0.135,
4218,0.405,0.13,
4219,0.405,0.12,
4220,0.395,0.155,
4221,0.41,0.17,
4222,0.415,0.185,
4223,0.445,0.18,
4224,0.43,0.17,
4225,0.43,0.165,
4226,0.425,0.19,
4227,0.455,0.205,
4228,0.475,0.23,
4229,0.505,0.23,
4230,0.49,0.22,
4231,0.49,0.22,
4232,0.495,0.225,
4233,0.525,0.25,
4234,0.56,0.26,
4235,0.565,0.255,
4236,0.585,0.26,
4237,0.585,0.265,
4238,0.585,0.285,
4239,0.635,0.31,
4240,0.665,0.34,
4241,0.7,0.33,
4242,0.705,0.33,
4243,0.735,0.325,
4244,0.755,0.34,
4245,0.765,0.365,
4246,0.815,0.39,
4247,0.855,0.38,
4248,0.87,0.37,
4249,0.88,0.365,
4250,0.9,0.385,
4251,0.915,0.4,
4252,0.95,0.405,
4253,0.975,0.395,
4254,0.975,0.395,
4255,1.005,0.395,
4256,1.04,0.415,
4257,1.065,0.44,
4258,1.105,0.445,
4259,1.135,0.46,
4260,1.135,0.435,
4261,1.145,0.445,
4262,1.15,0.475,
4263,1.185,0.48,
4264,1.2,0.5,
4265,1.22,0.485,
4266,1.21,0.505,
4267,1.185,0.505,
4268,1.165,0.515,
4269,1.15,0.535,
4270,1.13,0.52,
4271,1.11,0.505,
4272,1.07,0.495,
4273,1.045,0.505,
4274,1.025,0.535,
4275,1.0,0.56,
4276,0.985,0.57,
4277,0.955,0.55,
4278,0.92,0.555,
4279,0.865,0.52,
4280,0.825,0.52,
4281,0.79,0.54,
4282,0.76,0.53,
4283,0.725,0.515,
4284,0.68,0.5,
4285,0.62,0.47,
4286,0.58,0.475,
4287,0.54,0.47,
4288,0.495,0.465,
4289,0.455,0.435,
4290,0.405,0.395,
4291,0.34,0.365,
4292,0.3,0.35,
4293,0.28,0.35,
4294,0.265,0.335,
4295,0.235,0.3,
4296,0.2,0.26,
4297,0.155,0.24,
4298,0.14,0.23,
4299,0.15,0.23,
4300,0.145,0.22,
4301,0.125,0.205,
4302,0.095,0.175,
4303,0.075,0.145,
4304,0.05,0.155,
4305,0.07,0.16,
4306,0.08,0.155,
4307,0.08,0.13,
4308,0.075,0.11,
4309,0.055,0.09,
4310,0.06,0.095,
4311,0.035,0.1,
4312,0.055,0.105,
4313,0.06,0.1,
4314,0.05,0.085,
4315,0.025,0.075,
4316,0.005,0.08,
4317,0.0,0.09,
4318,0.0,0.105,
4319,0.0,0.085,
4320,-0.005,0.08,
4321,-0.025,0.075,
4322,-0.03,0.095,
4323,-0.015,0.11,
4324,-0.015,0.125,
4325,-0.03,0.13,
4326,-0.04,0.11,
4327,-0.07,0.1,
4328,-0.07,0.12,
4329,-0.075,0.135,
4330,-0.045,0.16,
4331,-0.045,0.16,
4332,-0.045,0.16,
4333,-0.055,0.15,
4334,-0.045,0.155,
4335,-0.035,0.16,
4336,-0.025,0.155,
4337,-0.015,0.16,
4338,-0.03,0.12,
4339,-0.045,0.125,
4340,-0.05,0.12,
4341,-0.065,0.125,
4342,-0.06,0.135,
4343,-0.075,0.135,
4344,-0.09,0.105,
4345,-0.12,0.105,
4346,-0.105,0.115,
4347,-0.1,0.135,
4348,-0.09,0.125,
4349,-0.095,0.125,
4350,-0.125,0.105,
4351,-0.13,0.095,
4352,-0.125,0.095,
4353,-0.11,0.1,
4354,-0.105,0.105,
4355,-0.095,0.095,
4356,-0.115,0.075,
4357,-0.125,0.065,
4358,-0.15,0.085,
4359,-0.145,0.09,
4360,-0.135,0.1,
4361,-0.15,0.085,
4362,-0.135,0.075,
4363,-0.135,0.065,
4364,-0.135,0.085,
4365,-0.13,0.085,
4366,-0.125,0.11,
4367,-0.12,0.095,
4368,-0.13,0.095,
4369,-0.13,0.085,
4370,-0.13,0.095,
4371,-0.13,0.12,
4372,-0.115,0.125,
4373,-0.12,0.125,
4374,-0.15,0.11,
4375,-0.145,0.1,
4376,-0.15,0.115,
4377,-0.13,0.125,
4378,-0.13,0.135,
4379,-0.125,0.11,
4380,-0.135,0.095,
4381,-0.15,0.085,
4382,-0.13,0.1,
4383,-0.13,0.12,
4384,-0.105,0.135,
4385,-0.125,0.115,
4386,-0.135,0.09,
4387,-0.14,0.09,
4388,-0.16,0.085,
4389,-0.14,0.09,
4390,-0.13,0.1,
4391,-0.135,0.095,
4392,-0.13,0.075,
4393,-0.145,0.065,
4394,-0.145,0.075,
4395,-0.14,0.07,
4396,-0.13,0.08,
4397,-0.115,0.075,
4398,-0.135,0.07,
4399,-0.17,0.05,
4400,-0.165,0.055,
4401,-0.145,0.07,
4402,-0.13,0.085,
4403,-0.13,0.075,
4404,-0.135,0.055,
4405,-0.14,0.04,
4406,-0.14,0.045,
4407,-0.135,0.065,
4408,-0.12,0.075,
4409,-0.11,0.06,
4410,-0.1,0.055,
4411,-0.12,0.035,
4412,-0.11,0.045,
4413,-0.095,0.055,
4414,-0.08,0.075,
4415,-0.075,0.075,
4416,-0.1,0.06,
4417,-0.095,0.045,
4418,-0.095,0.05,
4419,-0.07,0.06,
4420,-0.05,0.07,
4421,-0.025,0.05,
4422,-0.01,0.025,
4423,0.02,0.005,
4424,0.15,0.02,
4425,0.42,0.015,
4426,0.865,0.02,
4427,1.29,-0.025,
4428,1.455,-0.07,
4429,1.295,-0.15,
4430,1.055,-0.3,
4431,0.91,-0.54,
4432,0.88,-0.855,
4433,0.825,-1.125,
4434,0.74,-1.185,
4435,0.61,-1.095,
4436,0.495,-1.0,/
4437,0.39,-0.93,
4438,0.28,-0.895,
4439,0.16,-0.89,
4440,0.015,-0.89,
4441,-0.135,-0.88,
4442,-0.295,-0.875,
4443,-0.47,-0.875,
4444,-0.625,-0.88,
4445,-0.82,-0.895,
4446,-1.005,-0.915,
4447,-1.2,-0.93,
4448,-1.345,-0.925,
4449,-1.455,-0.915,
4450,-1.535,-0.905,
4451,-1.635,-0.915,
4452,-1.74,-0.93,
4453,-1.845,-0.955,
4454,-1.915,-0.955,
4455,-1.96,-0.945,
4456,-1.975,-0.945,
4457,-1.98,-0.95,
4458,-1.995,-0.96,
4459,-2.01,-0.97,
4460,-1.97,-0.965,
4461,-1.915,-0.96,
4462,-1.84,-0.98,
4463,-1.76,-0.99,
4464,-1.665,-1.02,
4465,-1.555,-1.03,
4466,-1.445,-1.04,
4467,-1.27,-1.025,
4468,-1.095,-1.0,
4469,-0.95,-0.985,
4470,-0.875,-0.955,
4471,-0.82,-0.92,
4472,-0.765,-0.875,
4473,-0.69,-0.825,
4474,-0.6,-0.79,
4475,-0.53,-0.75,
4476,-0.46,-0.72,
4477,-0.42,-0.68,
4478,-0.35,-0.62,
4479,-0.285,-0.545,
4480,-0.21,-0.475,
4481,-0.14,-0.41,
4482,-0.065,-0.365,
4483,-0.03,-0.305,
4484,0.02,-0.245,
4485,0.065,-0.18,
4486,0.13,-0.115,
4487,0.16,-0.075,
4488,0.19,-0.045,
4489,0.2,-0.01,
4490,0.2,0.015,
4491,0.21,0.075,
4492,0.25,0.08,
4493,0.23,0.1,
4494,0.225,0.105,
4495,0.22,0.105,
4496,0.24,0.12,
4497,0.265,0.16,
4498,0.3,0.18,
4499,0.305,0.185,
4500,0.295,0.175,
4501,0.285,0.17,
4502,0.28,0.19,
4503,0.32,0.21,
4504,0.335,0.23,
4505,0.35,0.22,
4506,0.355,0.235,
4507,0.355,0.235,
4508,0.355,0.25,
4509,0.375,0.275,
4510,0.4,0.29,
4511,0.415,0.29,
4512,0.42,0.28,
4513,0.405,0.28,
4514,0.425,0.285,
4515,0.46,0.3,
4516,0.475,0.33,
4517,0.5,0.31,
4518,0.495,0.305,
4519,0.515,0.31,
4520,0.505,0.33,
4521,0.53,0.34,
4522,0.56,0.345,
4523,0.575,0.32,
4524,0.59,0.325,
4525,0.595,0.33,
4526,0.61,0.34,
4527,0.645,0.345,
4528,0.685,0.35,
4529,0.725,0.34,
4530,0.725,0.34,
4531,0.74,0.335,
4532,0.78,0.35,
4533,0.8,0.365,
4534,0.84,0.385,
4535,0.875,0.39,
4536,0.88,0.38,
4537,0.895,0.38,
4538,0.915,0.4,
4539,0.945,0.43,
4540,0.97,0.445,
4541,0.985,0.46,
4542,0.97,0.47,
4543,0.97,0.475,
4544,0.98,0.505,
4545,1.0,0.52,
4546,1.035,0.53,
4547,1.04,0.535,
4548,1.03,0.535,
4549,1.025,0.54,
4550,1.025,0.56,
4551,1.03,0.6,
4552,1.025,0.62,
4553,1.02,0.61,
4554,0.98,0.6,
4555,0.955,0.605,
4556,0.925,0.61,
4557,0.91,0.64,
4558,0.91,0.65,
4559,0.87,0.625,
4560,0.825,0.6,
4561,0.75,0.6,
4562,0.72,0.585,
4563,0.68,0.59,
4564,0.64,0.585,
4565,0.595,0.56,
4566,0.53,0.53,
4567,0.46,0.505,
4568,0.44,0.49,
4569,0.405,0.485,
4570,0.375,0.475,
4571,0.335,0.435,
4572,0.285,0.39,
4573,0.225,0.355,
4574,0.2,0.34,
4575,0.17,0.335,
4576,0.155,0.33,
4577,0.135,0.3,
4578,0.09,0.265,
4579,0.055,0.245,
4580,0.035,0.235,
4581,0.025,0.235,
4582,0.03,0.23,
4583,0.005,0.2,
4584,-0.01,0.165,
4585,-0.035,0.15,
4586,-0.055,0.165,
4587,-0.06,0.16,
4588,-0.04,0.175,
4589,-0.055,0.17,
4590,-0.075,0.135,
4591,-0.09,0.115,
4592,-0.1,0.125,
4593,-0.085,0.13,
4594,-0.07,0.135,
4595,-0.065,0.14,
4596,-0.08,0.125,
4597,-0.08,0.125,
4598,-0.08,0.15,
4599,-0.065,0.16,
4600,-0.065,0.165,
4601,-0.075,0.165,
4602,-0.085,0.155,
4603,-0.1,0.14,
4604,-0.105,0.155,
4605,-0.095,0.16,
4606,-0.085,0.17,
4607,-0.085,0.16,
4608,-0.11,0.145,
4609,-0.115,0.155,
4610,-0.115,0.155,
4611,-0.1,0.17,
4612,-0.08,0.175,
4613,-0.09,0.165,
4614,-0.11,0.145,
4615,-0.11,0.14,
4616,-0.125,0.15,
4617,-0.12,0.15,
4618,-0.11,0.16,
4619,-0.095,0.15,
4620,-0.115,0.125,
4621,-0.125,0.115,
4622,-0.135,0.115,
4623,-0.14,0.12,
4624,-0.12,0.13,
4625,-0.125,0.105,
4626,-0.135,0.095,
4627,-0.16,0.09,
4628,-0.15,0.085,
4629,-0.14,0.095,
4630,-0.125,0.095,
4631,-0.15,0.09,
4632,-0.145,0.085,
4633,-0.16,0.09,
4634,-0.165,0.09,
4635,-0.165,0.085,
4636,-0.15,0.105,
4637,-0.155,0.105,
4638,-0.175,0.085,
4639,-0.205,0.08,
4640,-0.195,0.1,
4641,-0.185,0.105,
4642,-0.17,0.115,
4643,-0.155,0.12,
4644,-0.19,0.1,
4645,-0.205,0.08,
4646,-0.21,0.115,
4647,-0.205,0.125,
4648,-0.195,0.14,
4649,-0.18,0.13,
4650,-0.195,0.105,
4651,-0.215,0.115,
4652,-0.21,0.115,
4653,-0.2,0.12,
4654,-0.195,0.12,
4655,-0.19,0.115,
4656,-0.185,0.12,
4657,-0.21,0.105,
4658,-0.21,0.11,
4659,-0.175,0.125,
4660,-0.175,0.125,
4661,-0.165,0.115,
4662,-0.18,0.09,
4663,-0.2,0.09,
4664,-0.21,0.08,
4665,-0.2,0.095,
4666,-0.2,0.105,
4667,-0.19,0.095,
4668,-0.195,0.08,
4669,-0.225,0.07,
4670,-0.22,0.07,
4671,-0.195,0.07,
4672,-0.185,0.085,
4673,-0.195,0.075,
4674,-0.2,0.06,
4675,-0.205,0.06,
4676,-0.21,0.065,
4677,-0.195,0.075,
4678,-0.19,0.08,
4679,-0.2,0.065,
4680,-0.21,0.05,
4681,-0.235,0.04,
4682,-0.25,0.055,
4683,-0.22,0.075,
4684,-0.205,0.075,
4685,-0.21,0.065,
4686,-0.21,0.06,
4687,-0.215,0.06,
4688,-0.21,0.065,
4689,-0.19,0.085,
4690,-0.18,0.08,
4691,-0.185,0.07,
4692,-0.175,0.06,
4693,-0.19,0.05,
4694,-0.19,0.065,
4695,-0.19,0.085,
4696,-0.17,0.095,
4697,-0.195,0.09,
4698,-0.2,0.085,
4699,-0.205,0.075,
4700,-0.2,0.085,
4701,-0.19,0.09,
4702,-0.155,0.095,
4703,-0.14,0.085,
4704,-0.135,0.075,
4705,-0.13,0.075,
4706,-0.1,0.06,
4707,-0.045,0.08,
4708,0.045,0.07,
4709,0.23,0.06,
4710,0.58,0.045,
4711,1.02,0.025,
4712,1.31,0.02,
4713,1.3,-0.025,
4714,1.095,-0.085,
4715,0.91,-0.23,
4716,0.795,-0.465,
4717,0.725,-0.78,
4718,0.68,-1.055,
4719,0.59,-1.18,
4720,0.52,-1.135,
4721,0.43,-1.025,/
4722,0.3,-0.945,
4723,0.185,-0.92,
4724,0.055,-0.89,
4725,-0.04,-0.865,
4726,-0.15,-0.84,
4727,-0.27,-0.84,
4728,-0.435,-0.845,
4729,-0.575,-0.86,
4730,-0.725,-0.865,
4731,-0.88,-0.87,
4732,-1.045,-0.87,
4733,-1.22,-0.905,
4734,-1.385,-0.915,
4735,-1.515,-0.935,
4736,-1.62,-0.91,
4737,-1.69,-0.915,
4738,-1.745,-0.925,
4739,-1.82,-0.94,
4740,-1.885,-0.965,
4741,-1.935,-0.975,
4742,-1.955,-0.985,
4743,-1.97,-0.98,
4744,-1.95,-0.96,
4745,-1.95,-0.98,
4746,-1.9,-1.025,
4747,-1.87,-1.04,
4748,-1.835,-1.08,
4749,-1.75,-1.105,
4750,-1.635,-1.12,
4751,-1.515,-1.135,
4752,-1.365,-1.175,
4753,-1.235,-1.175,
4754,-1.095,-1.15,
4755,-0.98,-1.11,
4756,-0.9,-1.055,
4757,-0.875,-1.03,
4758,-0.865,-0.99,
4759,-0.835,-0.985,
4760,-0.78,-0.94,
4761,-0.71,-0.865,
4762,-0.645,-0.815,
4763,-0.57,-0.77,
4764,-0.515,-0.715,
4765,-0.465,-0.66,
4766,-0.405,-0.595,
4767,-0.31,-0.525,
4768,-0.225,-0.445,
4769,-0.175,-0.385,
4770,-0.12,-0.32,
4771,-0.085,-0.275,
4772,-0.05,-0.21,
4773,-0.015,-0.135,
4774,0.02,-0.095,
4775,0.045,-0.035,
4776,0.055,-0.005,
4777,0.05,0.035,
4778,0.06,0.075,
4779,0.105,0.12,
4780,0.12,0.15,
4781,0.125,0.145,
4782,0.135,0.155,
4783,0.125,0.155,
4784,0.135,0.185,
4785,0.135,0.205,
4786,0.17,0.22,
4787,0.17,0.22,
4788,0.165,0.205,
4789,0.155,0.225,
4790,0.155,0.235,
4791,0.165,0.255,
4792,0.185,0.27,
4793,0.19,0.28,
4794,0.19,0.275,
4795,0.195,0.285,
4796,0.23,0.3,
4797,0.245,0.325,
4798,0.285,0.335,
4799,0.3,0.335,
4800,0.29,0.335,
4801,0.295,0.335,
4802,0.29,0.355,
4803,0.33,0.375,
4804,0.35,0.405,
4805,0.36,0.405,
4806,0.355,0.395,
4807,0.355,0.4,
4808,0.355,0.42,
4809,0.38,0.44,
4810,0.42,0.45,
4811,0.43,0.465,
4812,0.41,0.455,
4813,0.425,0.445,
4814,0.44,0.465,
4815,0.465,0.47,
4816,0.485,0.49,
4817,0.495,0.49,
4818,0.505,0.465,
4819,0.505,0.47,
4820,0.53,0.485,
4821,0.56,0.505,
4822,0.59,0.52,
4823,0.61,0.52,
4824,0.62,0.51,
4825,0.61,0.52,
4826,0.615,0.53,
4827,0.645,0.555,
4828,0.685,0.575,
4829,0.695,0.57,
4830,0.715,0.575,
4831,0.715,0.58,
4832,0.725,0.595,
4833,0.76,0.63,
4834,0.78,0.64,
4835,0.79,0.64,
4836,0.785,0.63,
4837,0.775,0.635,
4838,0.78,0.635,
4839,0.81,0.645,
4840,0.815,0.65,
4841,0.81,0.65,
4842,0.8,0.655,
4843,0.805,0.65,
4844,0.805,0.67,
4845,0.825,0.685,
4846,0.84,0.695,
4847,0.83,0.685,
4848,0.785,0.67,
4849,0.765,0.655,
4850,0.75,0.65,
4851,0.73,0.66,
4852,0.725,0.665,
4853,0.69,0.655,
4854,0.655,0.63,
4855,0.605,0.62,
4856,0.57,0.635,
4857,0.56,0.64,
4858,0.535,0.635,
4859,0.49,0.625,
4860,0.44,0.605,
4861,0.4,0.6,
4862,0.355,0.595,
4863,0.32,0.585,
4864,0.305,0.57,
4865,0.265,0.54,
4866,0.215,0.525,
4867,0.18,0.485,
4868,0.135,0.485,
4869,0.11,0.465,
4870,0.085,0.45,
4871,0.07,0.43,
4872,0.03,0.395,
4873,0.0,0.37,
4874,-0.03,0.37,
4875,-0.03,0.355,
4876,-0.045,0.34,
4877,-0.065,0.335,
4878,-0.08,0.315,
4879,-0.115,0.29,
4880,-0.12,0.29,
4881,-0.145,0.3,
4882,-0.155,0.295,
4883,-0.165,0.29,
4884,-0.155,0.275,
4885,-0.17,0.26,
4886,-0.17,0.24,
4887,-0.15,0.255,
4888,-0.125,0.265,
4889,-0.12,0.26,
4890,-0.12,0.25,
4891,-0.15,0.23,
4892,-0.15,0.23,
4893,-0.135,0.24,
4894,-0.11,0.245,
4895,-0.085,0.23,
4896,-0.085,0.23,
4897,-0.09,0.225,
4898,-0.1,0.23,
4899,-0.095,0.23,
4900,-0.075,0.235,
4901,-0.08,0.215,
4902,-0.105,0.19,
4903,-0.13,0.195,
4904,-0.145,0.19,
4905,-0.145,0.19,
4906,-0.125,0.2,
4907,-0.125,0.195,
4908,-0.135,0.185,
4909,-0.16,0.19,
4910,-0.155,0.195,
4911,-0.14,0.205,
4912,-0.14,0.205,
4913,-0.15,0.195,
4914,-0.18,0.195,
4915,-0.215,0.185,
4916,-0.205,0.2,
4917,-0.185,0.2,
4918,-0.18,0.225,
4919,-0.185,0.21,
4920,-0.2,0.19,
4921,-0.215,0.19,
4922,-0.235,0.2,
4923,-0.235,0.215,
4924,-0.225,0.23,
4925,-0.225,0.22,
4926,-0.245,0.2,
4927,-0.245,0.2,
4928,-0.245,0.215,
4929,-0.24,0.22,
4930,-0.225,0.235,
4931,-0.23,0.23,
4932,-0.235,0.21,
4933,-0.25,0.205,
4934,-0.25,0.215,
4935,-0.25,0.22,
4936,-0.25,0.23,
4937,-0.23,0.22,
4938,-0.25,0.22,
4939,-0.25,0.2,
4940,-0.265,0.22,
4941,-0.235,0.23,
4942,-0.23,0.24,
4943,-0.245,0.24,
4944,-0.245,0.23,
4945,-0.265,0.22,
4946,-0.25,0.225,
4947,-0.235,0.23,
4948,-0.215,0.23,
4949,-0.22,0.205,
4950,-0.225,0.2,
4951,-0.23,0.22,
4952,-0.225,0.215,
4953,-0.205,0.21,
4954,-0.195,0.205,
4955,-0.205,0.185,
4956,-0.24,0.16,
4957,-0.255,0.145,
4958,-0.26,0.135,
4959,-0.255,0.155,
4960,-0.23,0.17,
4961,-0.235,0.15,
4962,-0.25,0.14,
4963,-0.26,0.135,
4964,-0.27,0.15,
4965,-0.255,0.16,
4966,-0.25,0.165,
4967,-0.26,0.155,
4968,-0.27,0.145,
4969,-0.28,0.14,
4970,-0.28,0.17,
4971,-0.265,0.175,
4972,-0.26,0.185,
4973,-0.255,0.165,
4974,-0.265,0.15,
4975,-0.265,0.16,
4976,-0.27,0.165,
4977,-0.25,0.18,
4978,-0.24,0.18,
4979,-0.245,0.18,
4980,-0.245,0.155,
4981,-0.265,0.145,
4982,-0.285,0.15,
4983,-0.265,0.165,
4984,-0.245,0.18,
4985,-0.225,0.175,
4986,-0.235,0.16,
4987,-0.245,0.145,
4988,-0.245,0.155,
4989,-0.245,0.17,
4990,-0.22,0.17,
4991,-0.22,0.16,
4992,-0.22,0.15,
4993,-0.235,0.13,
4994,-0.25,0.13,
4995,-0.215,0.14,
4996,-0.22,0.13,
4997,-0.195,0.13,
4998,-0.205,0.11,
4999,-0.22,0.1,
5000,-0.21,0.09,
5001,-0.205,0.105,
5002,-0.185,0.115,
5003,-0.17,0.105,
5004,-0.185,0.08,
5005,-0.205,0.06,
5006,-0.19,0.08,
5007,-0.18,0.085,
5008,-0.14,0.09,
5009,-0.135,0.08,
5010,-0.085,0.05,
5011,-0.005,0.04,
5012,0.21,0.035,
5013,0.61,0.05,
5014,1.04,0.035,
5015,1.285,-0.005,
5016,1.215,-0.08,
5017,1.0,-0.195,
5018,0.825,-0.365,
5019,0.755,-0.625,
5020,0.72,-0.92,
5021,0.67,-1.065,
5022,0.555,-1.03,
5023,0.455,-0.935,/
5024,0.355,-0.845,
5025,0.23,-0.81,
5026,0.12,-0.785,
5027,0.01,-0.77,
5028,-0.12,-0.76,
5029,-0.255,-0.765,
5030,-0.395,-0.75,
5031,-0.525,-0.73,
5032,-0.67,-0.74,
5033,-0.815,-0.745,
5034,-0.99,-0.775,
5035,-1.15,-0.795,
5036,-1.29,-0.8,
5037,-1.405,-0.785,
5038,-1.51,-0.795,
5039,-1.615,-0.8,
5040,-1.71,-0.81,
5041,-1.775,-0.835,
5042,-1.855,-0.83,
5043,-1.9,-0.84,
5044,-1.91,-0.83,
5045,-1.94,-0.855,
5046,-1.965,-0.865,
5047,-1.945,-0.895,
5048,-1.92,-0.925,
5049,-1.89,-0.92,
5050,-1.815,-0.94,
5051,-1.74,-0.98,
5052,-1.67,-1.015,
5053,-1.585,-1.035,
5054,-1.45,-1.04,
5055,-1.305,-1.04,
5056,-1.17,-1.035,
5057,-1.05,-1.035,
5058,-0.975,-1.01,
5059,-0.94,-0.985,
5060,-0.89,-0.925,
5061,-0.85,-0.905,
5062,-0.8,-0.86,
5063,-0.74,-0.825,
5064,-0.705,-0.81,
5065,-0.66,-0.755,
5066,-0.59,-0.69,
5067,-0.515,-0.61,
5068,-0.445,-0.545,
5069,-0.37,-0.485,
5070,-0.33,-0.435,
5071,-0.265,-0.385,
5072,-0.205,-0.305,
5073,-0.135,-0.225,
5074,-0.075,-0.17,
5075,0.005,-0.1,
5076,0.02,-0.055,
5077,0.04,-0.01,
5078,0.07,0.06,
5079,0.11,0.115,
5080,0.145,0.165,
5081,0.155,0.185,
5082,0.155,0.2,
5083,0.14,0.23,
5084,0.15,0.25,
5085,0.18,0.28,
5086,0.2,0.315,
5087,0.21,0.3,
5088,0.21,0.31,
5089,0.21,0.32,
5090,0.21,0.34,
5091,0.22,0.37,
5092,0.245,0.37,
5093,0.245,0.355,
5094,0.24,0.35,
5095,0.245,0.35,
5096,0.225,0.365,
5097,0.24,0.38,
5098,0.27,0.39,
5099,0.28,0.38,
5100,0.29,0.365,
5101,0.285,0.36,
5102,0.3,0.375,
5103,0.325,0.385,
5104,0.35,0.4,
5105,0.355,0.39,
5106,0.355,0.375,
5107,0.365,0.375,
5108,0.37,0.39,
5109,0.4,0.405,
5110,0.43,0.4,
5111,0.435,0.405,
5112,0.45,0.395,
5113,0.445,0.395,
5114,0.465,0.395,
5115,0.5,0.405,
5116,0.54,0.42,
5117,0.555,0.42,
5118,0.55,0.415,
5119,0.56,0.42,
5120,0.58,0.43,
5121,0.6,0.45,
5122,0.64,0.46,
5123,0.65,0.465,
5124,0.665,0.465,
5125,0.66,0.47,
5126,0.67,0.49,
5127,0.7,0.52,
5128,0.76,0.54,
5129,0.785,0.53,
5130,0.785,0.535,
5131,0.8,0.545,
5132,0.815,0.57,
5133,0.84,0.61,
5134,0.885,0.65,
5135,0.9,0.645,
5136,0.885,0.65,
5137,0.885,0.64,
5138,0.895,0.66,
5139,0.92,0.68,
5140,0.955,0.69,
5141,0.955,0.7,
5142,0.955,0.685,
5143,0.935,0.7,
5144,0.935,0.73,
5145,0.935,0.735,
5146,0.925,0.735,
5147,0.935,0.73,
5148,0.915,0.73,
5149,0.895,0.72,
5150,0.875,0.74,
5151,0.865,0.75,
5152,0.865,0.755,
5153,0.84,0.735,
5154,0.795,0.725,
5155,0.755,0.71,
5156,0.735,0.72,
5157,0.725,0.72,
5158,0.7,0.72,
5159,0.655,0.685,
5160,0.605,0.665,
5161,0.555,0.64,
5162,0.51,0.63,
5163,0.475,0.63,
5164,0.45,0.615,
5165,0.39,0.585,
5166,0.36,0.55,
5167,0.315,0.53,
5168,0.275,0.52,
5169,0.245,0.495,
5170,0.225,0.495,
5171,0.2,0.465,
5172,0.16,0.43,
5173,0.125,0.4,
5174,0.09,0.395,
5175,0.08,0.4,
5176,0.065,0.395,
5177,0.04,0.38,
5178,0.015,0.345,
5179,-0.02,0.34,
5180,-0.035,0.325,
5181,-0.03,0.34,
5182,-0.035,0.335,
5183,-0.05,0.32,
5184,-0.07,0.305,
5185,-0.085,0.29,
5186,-0.1,0.305,
5187,-0.085,0.315,
5188,-0.09,0.325,
5189,-0.09,0.3,
5190,-0.11,0.29,
5191,-0.12,0.28,
5192,-0.12,0.305,
5193,-0.095,0.315,
5194,-0.085,0.315,
5195,-0.085,0.315,
5196,-0.105,0.305,
5197,-0.12,0.29,
5198,-0.115,0.3,
5199,-0.115,0.305,
5200,-0.09,0.325,
5201,-0.11,0.305,
5202,-0.12,0.29,
5203,-0.135,0.28,
5204,-0.115,0.3,
5205,-0.115,0.31,
5206,-0.1,0.315,
5207,-0.095,0.305,
5208,-0.095,0.27,
5209,-0.115,0.29,
5210,-0.135,0.28,
5211,-0.12,0.3,
5212,-0.105,0.29,
5213,-0.1,0.28,
5214,-0.115,0.275,
5215,-0.13,0.255,
5216,-0.135,0.275,
5217,-0.145,0.265,
5218,-0.13,0.27,
5219,-0.13,0.27,
5220,-0.145,0.25,
5221,-0.16,0.25,
5222,-0.155,0.265,
5223,-0.155,0.265,
5224,-0.13,0.265,
5225,-0.14,0.26,
5226,-0.155,0.24,
5227,-0.175,0.23,
5228,-0.17,0.24,
5229,-0.16,0.25,
5230,-0.155,0.25,
5231,-0.18,0.24,
5232,-0.195,0.255,
5233,-0.23,0.245,
5234,-0.235,0.235,
5235,-0.23,0.26,
5236,-0.2,0.26,
5237,-0.2,0.25,
5238,-0.215,0.25,
5239,-0.215,0.25,
5240,-0.205,0.255,
5241,-0.205,0.28,
5242,-0.185,0.275,
5243,-0.18,0.275,
5244,-0.2,0.26,
5245,-0.21,0.265,
5246,-0.205,0.285,
5247,-0.185,0.3,
5248,-0.185,0.31,
5249,-0.19,0.315,
5250,-0.215,0.3,
5251,-0.23,0.295,
5252,-0.225,0.29,
5253,-0.21,0.3,
5254,-0.18,0.3,
5255,-0.185,0.295,
5256,-0.185,0.265,
5257,-0.195,0.265,
5258,-0.195,0.265,
5259,-0.185,0.285,
5260,-0.17,0.28,
5261,-0.16,0.28,
5262,-0.19,0.255,
5263,-0.205,0.245,
5264,-0.21,0.26,
5265,-0.2,0.26,
5266,-0.19,0.265,
5267,-0.18,0.255,
5268,-0.185,0.235,
5269,-0.195,0.225,
5270,-0.215,0.23,
5271,-0.205,0.255,
5272,-0.185,0.24,
5273,-0.185,0.225,
5274,-0.21,0.21,
5275,-0.215,0.2,
5276,-0.21,0.205,
5277,-0.195,0.215,
5278,-0.18,0.21,
5279,-0.185,0.21,
5280,-0.205,0.18,
5281,-0.215,0.17,
5282,-0.225,0.185,
5283,-0.21,0.195,
5284,-0.23,0.19,
5285,-0.23,0.19,
5286,-0.23,0.175,
5287,-0.255,0.185,
5288,-0.25,0.19,
5289,-0.24,0.195,
5290,-0.22,0.19,
5291,-0.225,0.195,
5292,-0.235,0.195,
5293,-0.245,0.17,
5294,-0.235,0.195,
5295,-0.215,0.215,
5296,-0.19,0.22,
5297,-0.175,0.225,
5298,-0.195,0.21,
5299,-0.21,0.195,
5300,-0.19,0.22,
5301,-0.19,0.235,
5302,-0.175,0.24,
5303,-0.17,0.23,
5304,-0.18,0.225,
5305,-0.19,0.21,
5306,-0.195,0.22,
5307,-0.18,0.225,
5308,-0.145,0.24,
5309,-0.165,0.22,
5310,-0.165,0.21,
5311,-0.175,0.215,
5312,-0.155,0.215,
5313,-0.145,0.215,
5314,-0.125,0.215,
5315,-0.125,0.215,
5316,-0.14,0.2,
5317,-0.14,0.185,
5318,-0.135,0.195,
5319,-0.105,0.205,
5320,-0.105,0.2,
5321,-0.085,0.175,
5322,-0.065,0.165,
5323,-0.055,0.15,
5324,0.03,0.15,
5325,0.225,0.15,
5326,0.575,0.14,
5327,1.0,0.125,
5328,1.29,0.085,
5329,1.315,0.06,
5330,1.145,0.01,
5331,0.97,-0.06,
5332,0.88,-0.21,
5333,0.81,-0.465,
5334,0.76,-0.755,
5335,0.66,-0.94,
5336,0.57,-0.92,
5337,0.485,-0.835,
5338,0.4,-0.775,/
5339,0.33,-0.75,
5340,0.225,-0.74,
5341,0.105,-0.74,
5342,0.0,-0.71,
5343,-0.09,-0.68,
5344,-0.18,-0.68,
5345,-0.3,-0.68,
5346,-0.44,-0.69,
5347,-0.59,-0.695,
5348,-0.74,-0.685,
5349,-0.9,-0.675,
5350,-1.04,-0.675,
5351,-1.195,-0.685,
5352,-1.345,-0.72,
5353,-1.49,-0.74,
5354,-1.57,-0.74,
5355,-1.645,-0.72,
5356,-1.69,-0.73,
5357,-1.775,-0.73,
5358,-1.835,-0.74,
5359,-1.885,-0.755,
5360,-1.925,-0.755,
5361,-1.91,-0.73,
5362,-1.9,-0.74,
5363,-1.89,-0.725,
5364,-1.88,-0.75,
5365,-1.85,-0.765,
5366,-1.82,-0.79,
5367,-1.765,-0.795,
5368,-1.685,-0.815,
5369,-1.585,-0.85,
5370,-1.495,-0.86,
5371,-1.41,-0.885,
5372,-1.28,-0.875,
5373,-1.145,-0.85,
5374,-1.01,-0.83,
5375,-0.91,-0.805,
5376,-0.85,-0.79,
5377,-0.815,-0.775,
5378,-0.775,-0.74,
5379,-0.72,-0.695,
5380,-0.65,-0.65,
5381,-0.59,-0.63,
5382,-0.545,-0.605,
5383,-0.49,-0.55,
5384,-0.425,-0.49,
5385,-0.345,-0.415,
5386,-0.275,-0.355,
5387,-0.205,-0.305,
5388,-0.16,-0.265,
5389,-0.12,-0.195,
5390,-0.065,-0.135,
5391,0.0,-0.07,
5392,0.03,-0.005,
5393,0.055,0.035,
5394,0.06,0.07,
5395,0.07,0.1,
5396,0.095,0.155,
5397,0.14,0.185,
5398,0.175,0.215,
5399,0.18,0.235,
5400,0.18,0.23,
5401,0.19,0.245,
5402,0.19,0.26,
5403,0.21,0.29,
5404,0.22,0.32,
5405,0.21,0.315,
5406,0.23,0.325,
5407,0.215,0.335,
5408,0.215,0.35,
5409,0.255,0.39,
5410,0.285,0.4,
5411,0.28,0.385,
5412,0.295,0.395,
5413,0.3,0.39,
5414,0.29,0.395,
5415,0.32,0.435,
5416,0.345,0.44,
5417,0.34,0.43,
5418,0.34,0.425,
5419,0.34,0.425,
5420,0.345,0.44,
5421,0.365,0.455,
5422,0.405,0.455,
5423,0.405,0.445,
5424,0.41,0.44,
5425,0.4,0.445,
5426,0.42,0.465,
5427,0.43,0.47,
5428,0.465,0.48,
5429,0.47,0.465,
5430,0.465,0.445,
5431,0.47,0.45,
5432,0.475,0.47,
5433,0.485,0.475,
5434,0.52,0.485,
5435,0.545,0.47,
5436,0.535,0.475,
5437,0.535,0.455,
5438,0.555,0.475,
5439,0.595,0.505,
5440,0.63,0.5,
5441,0.64,0.49,
5442,0.64,0.49,
5443,0.635,0.475,
5444,0.65,0.5,
5445,0.67,0.515,
5446,0.72,0.54,
5447,0.735,0.545,
5448,0.755,0.545,
5449,0.76,0.56,
5450,0.775,0.58,
5451,0.8,0.6,
5452,0.825,0.61,
5453,0.86,0.605,
5454,0.845,0.61,
5455,0.865,0.615,
5456,0.88,0.62,
5457,0.905,0.66,
5458,0.935,0.67,
5459,0.945,0.69,
5460,0.93,0.685,
5461,0.935,0.69,
5462,0.93,0.705,
5463,0.955,0.715,
5464,0.975,0.735,
5465,0.965,0.74,
5466,0.935,0.725,
5467,0.93,0.72,
5468,0.895,0.735,
5469,0.905,0.75,
5470,0.905,0.745,
5471,0.89,0.745,
5472,0.86,0.735,
5473,0.835,0.73,
5474,0.815,0.74,
5475,0.785,0.745,
5476,0.79,0.76,
5477,0.74,0.74,
5478,0.705,0.72,
5479,0.68,0.715,
5480,0.645,0.72,
5481,0.61,0.72,
5482,0.59,0.725,
5483,0.565,0.68,
5484,0.51,0.655,
5485,0.465,0.645,
5486,0.44,0.64,
5487,0.415,0.63,
5488,0.395,0.62,
5489,0.35,0.6,
5490,0.3,0.56,
5491,0.26,0.545,
5492,0.23,0.555,
5493,0.215,0.545,
5494,0.205,0.535,
5495,0.17,0.505,
5496,0.15,0.485,
5497,0.115,0.46,
5498,0.105,0.44,
5499,0.085,0.435,
5500,0.08,0.44,
5501,0.06,0.43,
5502,0.04,0.395,
5503,0.01,0.39,
5504,0.0,0.37,
5505,0.005,0.375,
5506,-0.005,0.375,
5507,-0.015,0.37,
5508,-0.03,0.345,
5509,-0.045,0.335,
5510,-0.06,0.345,
5511,-0.04,0.325,
5512,-0.03,0.35,
5513,-0.04,0.325,
5514,-0.045,0.315,
5515,-0.055,0.31,
5516,-0.07,0.33,
5517,-0.07,0.345,
5518,-0.05,0.35,
5519,-0.045,0.345,
5520,-0.07,0.335,
5521,-0.065,0.335,
5522,-0.07,0.345,
5523,-0.055,0.365,
5524,-0.045,0.355,
5525,-0.055,0.35,
5526,-0.075,0.34,
5527,-0.075,0.325,
5528,-0.075,0.335,
5529,-0.06,0.345,
5530,-0.06,0.34,
5531,-0.06,0.34,
5532,-0.07,0.33,
5533,-0.07,0.33,
5534,-0.07,0.325,
5535,-0.055,0.335,
5536,-0.05,0.335,
5537,-0.055,0.335,
5538,-0.075,0.31,
5539,-0.08,0.31,
5540,-0.095,0.315,
5541,-0.07,0.325,
5542,-0.065,0.315,
5543,-0.08,0.305,
5544,-0.09,0.29,
5545,-0.115,0.275,
5546,-0.125,0.285,
5547,-0.13,0.305,
5548,-0.09,0.29,
5549,-0.105,0.29,
5550,-0.11,0.28,
5551,-0.12,0.28,
5552,-0.11,0.28,
5553,-0.1,0.3,
5554,-0.085,0.3,
5555,-0.085,0.285,
5556,-0.1,0.265,
5557,-0.12,0.27,
5558,-0.125,0.28,
5559,-0.12,0.295,
5560,-0.115,0.305,
5561,-0.125,0.295,
5562,-0.135,0.285,
5563,-0.16,0.28,
5564,-0.16,0.295,
5565,-0.15,0.32,
5566,-0.15,0.32,
5567,-0.155,0.305,
5568,-0.155,0.3,
5569,-0.17,0.3,
5570,-0.155,0.295,
5571,-0.14,0.305,
5572,-0.135,0.315,
5573,-0.15,0.29,
5574,-0.165,0.28,
5575,-0.18,0.28,
5576,-0.17,0.295,
5577,-0.155,0.3,
5578,-0.135,0.3,
5579,-0.14,0.28,
5580,-0.15,0.28,
5581,-0.16,0.28,
5582,-0.17,0.295,
5583,-0.155,0.31,
5584,-0.145,0.315,
5585,-0.16,0.315,
5586,-0.155,0.285,
5587,-0.16,0.285,
5588,-0.16,0.295,
5589,-0.16,0.295,
5590,-0.155,0.3,
5591,-0.145,0.3,
5592,-0.165,0.275,
5593,-0.175,0.28,
5594,-0.185,0.28,
5595,-0.165,0.295,
5596,-0.14,0.295,
5597,-0.155,0.29,
5598,-0.165,0.265,
5599,-0.17,0.26,
5600,-0.175,0.26,
5601,-0.155,0.27,
5602,-0.155,0.28,
5603,-0.145,0.26,
5604,-0.15,0.245,
5605,-0.175,0.24,
5606,-0.155,0.25,
5607,-0.14,0.26,
5608,-0.13,0.265,
5609,-0.125,0.26,
5610,-0.135,0.245,
5611,-0.15,0.24,
5612,-0.155,0.245,
5613,-0.145,0.255,
5614,-0.14,0.265,
5615,-0.15,0.255,
5616,-0.165,0.25,
5617,-0.175,0.255,
5618,-0.19,0.265,
5619,-0.17,0.275,
5620,-0.17,0.29,
5621,-0.16,0.27,
5622,-0.165,0.265,
5623,-0.175,0.26,
5624,-0.175,0.275,
5625,-0.165,0.295,
5626,-0.135,0.3,
5627,-0.125,0.29,
5628,-0.15,0.275,
5629,-0.155,0.27,
5630,-0.155,0.285,
5631,-0.145,0.285,
5632,-0.13,0.3,
5633,-0.135,0.285,
5634,-0.14,0.265,
5635,-0.155,0.275,
5636,-0.15,0.28,
5637,-0.135,0.29,
5638,-0.135,0.3,
5639,-0.12,0.285,
5640,-0.125,0.26,
5641,-0.155,0.255,
5642,-0.145,0.255,
5643,-0.13,0.27,
5644,-0.13,0.265,
5645,-0.11,0.25,
5646,-0.12,0.235,
5647,-0.12,0.24,
5648,-0.09,0.225,
5649,-0.06,0.24,
5650,-0.035,0.24,
5651,0.025,0.22,
5652,0.105,0.2,
5653,0.315,0.195,
5654,0.685,0.195,
5655,1.125,0.185,
5656,1.415,0.17,
5657,1.385,0.105,
5658,1.19,0.025,
5659,0.99,-0.11,
5660,0.895,-0.34,
5661,0.85,-0.64,
5662,0.815,-0.95,
5663,0.74,-1.115,
5664,0.645,-1.09,
5665,0.56,-0.98,/
5666,0.465,-0.875,
5667,0.39,-0.815,
5668,0.315,-0.765,
5669,0.195,-0.755,
5670,0.08,-0.73,
5671,-0.04,-0.72,
5672,-0.15,-0.695,
5673,-0.255,-0.67,
5674,-0.365,-0.665,
5675,-0.515,-0.68,
5676,-0.685,-0.69,
5677,-0.845,-0.71,
5678,-0.995,-0.7,
5679,-1.13,-0.7,
5680,-1.245,-0.7,
5681,-1.365,-0.695,
5682,-1.48,-0.715,
5683,-1.575,-0.71,
5684,-1.66,-0.705,
5685,-1.715,-0.7,
5686,-1.76,-0.705,
5687,-1.795,-0.715,
5688,-1.835,-0.725,
5689,-1.83,-0.735,
5690,-1.825,-0.74,
5691,-1.77,-0.75,
5692,-1.72,-0.78,
5693,-1.69,-0.81,
5694,-1.645,-0.845,
5695,-1.585,-0.89,
5696,-1.48,-0.91,
5697,-1.34,-0.92,
5698,-1.195,-0.93,
5699,-1.06,-0.94,
5700,-0.945,-0.945,
5701,-0.855,-0.905,
5702,-0.795,-0.88,
5703,-0.775,-0.825,
5704,-0.75,-0.8,
5705,-0.715,-0.775,
5706,-0.685,-0.75,
5707,-0.63,-0.715,
5708,-0.555,-0.65,
5709,-0.475,-0.59,
5710,-0.395,-0.535,
5711,-0.335,-0.475,
5712,-0.275,-0.425,
5713,-0.225,-0.38,
5714,-0.175,-0.295,
5715,-0.1,-0.23,
5716,-0.03,-0.155,
5717,0.01,-0.1,
5718,0.035,-0.065,
5719,0.04,0.0,
5720,0.065,0.07,
5721,0.1,0.13,
5722,0.135,0.18,
5723,0.145,0.21,
5724,0.155,0.24,
5725,0.16,0.26,
5726,0.165,0.305,
5727,0.2,0.335,
5728,0.23,0.36,
5729,0.235,0.365,
5730,0.215,0.37,
5731,0.215,0.375,
5732,0.225,0.405,
5733,0.245,0.435,
5734,0.26,0.45,
5735,0.25,0.465,
5736,0.245,0.465,
5737,0.255,0.465,
5738,0.26,0.48,
5739,0.29,0.495,
5740,0.325,0.51,
5741,0.315,0.505,
5742,0.305,0.495,
5743,0.33,0.505,
5744,0.32,0.51,
5745,0.35,0.54,
5746,0.37,0.535,
5747,0.375,0.53,
5748,0.375,0.53,
5749,0.375,0.53,
5750,0.4,0.54,
5751,0.415,0.555,
5752,0.44,0.555,
5753,0.46,0.54,
5754,0.455,0.525,
5755,0.455,0.53,
5756,0.455,0.55,
5757,0.505,0.56,
5758,0.52,0.575,
5759,0.52,0.56,
5760,0.535,0.54,
5761,0.545,0.555,
5762,0.555,0.565,
5763,0.59,0.575,
5764,0.625,0.59,
5765,0.645,0.585,
5766,0.645,0.59,
5767,0.65,0.58,
5768,0.67,0.605,
5769,0.7,0.62,
5770,0.73,0.62,
5771,0.74,0.625,
5772,0.755,0.62,
5773,0.765,0.635,
5774,0.78,0.655,
5775,0.815,0.67,
5776,0.83,0.68,
5777,0.85,0.685,
5778,0.84,0.675,
5779,0.845,0.695,
5780,0.855,0.71,
5781,0.87,0.735,
5782,0.9,0.755,
5783,0.9,0.76,
5784,0.905,0.765,
5785,0.89,0.775,
5786,0.89,0.8,
5787,0.91,0.82,
5788,0.91,0.84,
5789,0.9,0.84,
5790,0.885,0.835,
5791,0.855,0.83,
5792,0.835,0.855,
5793,0.845,0.865,
5794,0.845,0.875,
5795,0.815,0.875,
5796,0.765,0.86,
5797,0.73,0.855,
5798,0.705,0.865,
5799,0.705,0.87,
5800,0.695,0.86,
5801,0.655,0.845,
5802,0.605,0.82,
5803,0.575,0.805,
5804,0.525,0.805,
5805,0.505,0.8,
5806,0.475,0.775,
5807,0.425,0.75,
5808,0.385,0.725,
5809,0.345,0.69,
5810,0.315,0.67,
5811,0.3,0.65,
5812,0.28,0.63,
5813,0.25,0.61,
5814,0.205,0.58,
5815,0.18,0.535,
5816,0.135,0.535,
5817,0.135,0.525,
5818,0.11,0.5,
5819,0.08,0.48,
5820,0.045,0.45,
5821,0.025,0.44,
5822,0.02,0.415,
5823,0.02,0.425,
5824,0.035,0.415,
5825,0.02,0.39,
5826,0.015,0.355,
5827,-0.01,0.36,
5828,-0.015,0.355,
5829,-0.02,0.365,
5830,-0.03,0.35,
5831,-0.025,0.345,
5832,-0.035,0.34,
5833,-0.045,0.325,
5834,-0.055,0.34,
5835,-0.05,0.35,
5836,-0.035,0.355,
5837,-0.03,0.35,
5838,-0.05,0.345,
5839,-0.07,0.335,
5840,-0.075,0.345,
5841,-0.075,0.355,
5842,-0.045,0.36,
5843,-0.055,0.36,
5844,-0.065,0.34,
5845,-0.07,0.34,
5846,-0.085,0.36,
5847,-0.08,0.365,
5848,-0.06,0.385,
5849,-0.05,0.36,
5850,-0.065,0.36,
5851,-0.07,0.355,
5852,-0.07,0.365,
5853,-0.05,0.38,
5854,-0.06,0.38,
5855,-0.055,0.38,
5856,-0.075,0.365,
5857,-0.085,0.36,
5858,-0.085,0.375,
5859,-0.08,0.385,
5860,-0.09,0.39,
5861,-0.105,0.375,
5862,-0.125,0.365,
5863,-0.135,0.35,
5864,-0.12,0.36,
5865,-0.115,0.37,
5866,-0.095,0.375,
5867,-0.08,0.36,
5868,-0.1,0.34,
5869,-0.095,0.35,
5870,-0.095,0.355,
5871,-0.065,0.365,
5872,-0.05,0.365,
5873,-0.05,0.345,
5874,-0.065,0.325,
5875,-0.09,0.305,
5876,-0.105,0.305,
5877,-0.1,0.305,
5878,-0.12,0.31,
5879,-0.125,0.26,
5880,-0.13,0.265,
5881,-0.145,0.27,
5882,-0.14,0.295,
5883,-0.145,0.31,
5884,-0.13,0.32,
5885,-0.135,0.305,
5886,-0.15,0.29,
5887,-0.15,0.285,
5888,-0.16,0.29,
5889,-0.145,0.31,
5890,-0.12,0.305,
5891,-0.115,0.3,
5892,-0.15,0.29,
5893,-0.135,0.29,
5894,-0.155,0.295,
5895,-0.135,0.305,
5896,-0.13,0.295,
5897,-0.13,0.29,
5898,-0.14,0.29,
5899,-0.155,0.285,
5900,-0.16,0.3,
5901,-0.15,0.325,
5902,-0.15,0.315,
5903,-0.15,0.315,
5904,-0.17,0.29,
5905,-0.18,0.295,
5906,-0.19,0.3,
5907,-0.165,0.32,
5908,-0.165,0.315,
5909,-0.16,0.31,
5910,-0.17,0.3,
5911,-0.18,0.29,
5912,-0.18,0.31,
5913,-0.16,0.315,
5914,-0.14,0.325,
5915,-0.145,0.315,
5916,-0.15,0.28,
5917,-0.155,0.29,
5918,-0.17,0.295,
5919,-0.16,0.31,
5920,-0.13,0.32,
5921,-0.155,0.305,
5922,-0.155,0.29,
5923,-0.14,0.285,
5924,-0.155,0.29,
5925,-0.125,0.3,
5926,-0.085,0.31,
5927,-0.08,0.305,
5928,-0.1,0.28,
5929,-0.13,0.26,
5930,-0.155,0.27,
5931,-0.155,0.275,
5932,-0.155,0.275,
5933,-0.145,0.255,
5934,-0.145,0.24,
5935,-0.15,0.24,
5936,-0.15,0.255,
5937,-0.14,0.265,
5938,-0.115,0.26,
5939,-0.13,0.26,
5940,-0.145,0.245,
5941,-0.15,0.235,
5942,-0.16,0.25,
5943,-0.135,0.26,
5944,-0.12,0.26,
5945,-0.13,0.255,
5946,-0.13,0.245,
5947,-0.145,0.23,
5948,-0.125,0.245,
5949,-0.115,0.25,
5950,-0.095,0.235,
5951,-0.095,0.22,
5952,-0.1,0.22,
5953,-0.085,0.205,
5954,-0.035,0.21,
5955,0.06,0.235,
5956,0.265,0.225,
5957,0.575,0.205,
5958,0.98,0.195,
5959,1.28,0.18,
5960,1.34,0.155,
5961,1.19,0.125,
5962,1.005,0.05,
5963,0.88,-0.11,
5964,0.8,-0.37,
5965,0.73,-0.705,
5966,0.655,-0.925,
5967,0.575,-0.94,
5968,0.49,-0.82,
5969,0.395,-0.73,/
5970,0.265,-0.715,
5971,0.135,-0.7,
5972,0.025,-0.665,
5973,-0.085,-0.63,
5974,-0.195,-0.63,
5975,-0.335,-0.64,
5976,-0.495,-0.66,
5977,-0.655,-0.67,
5978,-0.8,-0.655,
5979,-0.95,-0.66,
5980,-1.09,-0.655,
5981,-1.245,-0.685,
5982,-1.37,-0.68,
5983,-1.49,-0.685,
5984,-1.595,-0.68,
5985,-1.64,-0.67,
5986,-1.7,-0.68,
5987,-1.775,-0.7,
5988,-1.84,-0.72,
5989,-1.885,-0.735,
5990,-1.915,-0.725,
5991,-1.905,-0.715,
5992,-1.875,-0.715,
5993,-1.845,-0.735,
5994,-1.82,-0.76,
5995,-1.77,-0.8,
5996,-1.71,-0.805,
5997,-1.625,-0.815,
5998,-1.505,-0.845,
5999,-1.38,-0.865,
6000,-1.245,-0.895,
6001,-1.13,-0.88,
6002,-0.995,-0.855,
6003,-0.885,-0.815,
6004,-0.81,-0.78,
6005,-0.785,-0.74,
6006,-0.745,-0.73,
6007,-0.705,-0.695,
6008,-0.635,-0.645,
6009,-0.57,-0.595,
6010,-0.49,-0.55,
6011,-0.42,-0.51,
6012,-0.385,-0.46,
6013,-0.315,-0.395,
6014,-0.25,-0.34,
6015,-0.19,-0.24,
6016,-0.095,-0.19,
6017,-0.03,-0.135,
6018,0.0,-0.095,
6019,0.035,-0.035,
6020,0.08,0.035,
6021,0.12,0.1,
6022,0.145,0.15,
6023,0.16,0.185,
6024,0.15,0.21,
6025,0.155,0.24,
6026,0.185,0.27,
6027,0.21,0.31,
6028,0.225,0.33,
6029,0.225,0.32,
6030,0.22,0.315,
6031,0.215,0.325,
6032,0.2,0.345,
6033,0.23,0.37,
6034,0.24,0.365,
6035,0.245,0.37,
6036,0.23,0.35,
6037,0.235,0.365,
6038,0.245,0.39,
6039,0.28,0.4,
6040,0.33,0.405,
6041,0.325,0.41,
6042,0.325,0.395,
6043,0.325,0.415,
6044,0.33,0.43,
6045,0.365,0.46,
6046,0.375,0.46,
6047,0.395,0.465,
6048,0.405,0.455,
6049,0.41,0.455,
6050,0.415,0.475,
6051,0.445,0.49,
6052,0.475,0.495,
6053,0.475,0.5,
6054,0.48,0.485,
6055,0.485,0.505,
6056,0.505,0.505,
6057,0.53,0.535,
6058,0.57,0.535,
6059,0.565,0.54,
6060,0.57,0.53,
6061,0.58,0.53,
6062,0.595,0.55,
6063,0.635,0.565,
6064,0.67,0.56,
6065,0.685,0.565,
6066,0.7,0.565,
6067,0.695,0.57,
6068,0.715,0.585,
6069,0.74,0.6,
6070,0.785,0.605,
6071,0.795,0.605,
6072,0.82,0.59,
6073,0.825,0.605,
6074,0.84,0.62,
6075,0.87,0.645,
6076,0.895,0.66,
6077,0.895,0.655,
6078,0.915,0.66,
6079,0.905,0.65,
6080,0.925,0.655,
6081,0.935,0.665,
6082,0.945,0.68,
6083,0.955,0.67,
6084,0.94,0.665,
6085,0.935,0.67,
6086,0.94,0.685,
6087,0.94,0.705,
6088,0.97,0.71,
6089,0.965,0.71,
6090,0.95,0.7,
6091,0.93,0.705,
6092,0.91,0.73,
6093,0.91,0.745,
6094,0.905,0.745,
6095,0.89,0.73,
6096,0.865,0.725,
6097,0.82,0.725,
6098,0.78,0.735,
6099,0.775,0.74,
6100,0.745,0.73,
6101,0.705,0.71,
6102,0.655,0.7,
6103,0.595,0.68,
6104,0.56,0.67,
6105,0.53,0.665,
6106,0.495,0.655,
6107,0.455,0.61,
6108,0.41,0.605,
6109,0.355,0.585,
6110,0.315,0.57,
6111,0.295,0.57,
6112,0.275,0.545,
6113,0.23,0.53,
6114,0.175,0.49,
6115,0.14,0.47,
6116,0.12,0.48,
6117,0.105,0.45,
6118,0.085,0.43,
6119,0.06,0.425,
6120,0.025,0.39,
6121,0.0,0.375,
6122,-0.025,0.375,
6123,-0.025,0.37,
6124,-0.02,0.345,
6125,-0.045,0.335,
6126,-0.065,0.315,
6127,-0.1,0.31,
6128,-0.095,0.31,
6129,-0.085,0.315,
6130,-0.075,0.3,
6131,-0.085,0.29,
6132,-0.1,0.28,
6133,-0.12,0.255,
6134,-0.14,0.255,
6135,-0.12,0.275,
6136,-0.115,0.26,
6137,-0.13,0.26,
6138,-0.135,0.245,
6139,-0.16,0.255,
6140,-0.14,0.265,
6141,-0.125,0.265,
6142,-0.13,0.265,
6143,-0.125,0.26,
6144,-0.13,0.255,
6145,-0.145,0.245,
6146,-0.145,0.26,
6147,-0.125,0.295,
6148,-0.12,0.29,
6149,-0.12,0.285,
6150,-0.12,0.28,
6151,-0.135,0.275,
6152,-0.14,0.265,
6153,-0.13,0.295,
6154,-0.12,0.3,
6155,-0.14,0.295,
6156,-0.16,0.28,
6157,-0.16,0.285,
6158,-0.155,0.295,
6159,-0.145,0.3,
6160,-0.14,0.31,
6161,-0.15,0.3,
6162,-0.16,0.285,
6163,-0.19,0.28,
6164,-0.2,0.29,
6165,-0.18,0.3,
6166,-0.19,0.295,
6167,-0.185,0.295,
6168,-0.185,0.27,
6169,-0.22,0.26,
6170,-0.215,0.27,
6171,-0.205,0.28,
6172,-0.19,0.275,
6173,-0.195,0.265,
6174,-0.215,0.25,
6175,-0.235,0.235,
6176,-0.25,0.26,
6177,-0.235,0.26,
6178,-0.235,0.25,
6179,-0.225,0.235,
6180,-0.23,0.225,
6181,-0.23,0.215,
6182,-0.24,0.24,
6183,-0.25,0.255,
6184,-0.25,0.265,
6185,-0.245,0.27,
6186,-0.25,0.26,
6187,-0.26,0.25,
6188,-0.265,0.26,
6189,-0.255,0.25,
6190,-0.245,0.26,
6191,-0.24,0.255,
6192,-0.23,0.255,
6193,-0.24,0.245,
6194,-0.225,0.255,
6195,-0.23,0.235,
6196,-0.2,0.265,
6197,-0.225,0.27,
6198,-0.225,0.265,
6199,-0.225,0.245,
6200,-0.22,0.22,
6201,-0.21,0.21,
6202,-0.205,0.185,
6203,-0.205,0.185,
6204,-0.21,0.17,
6205,-0.22,0.18,
6206,-0.21,0.205,
6207,-0.21,0.24,
6208,-0.2,0.245,
6209,-0.2,0.22,
6210,-0.22,0.205,
6211,-0.23,0.21,
6212,-0.225,0.215,
6213,-0.225,0.24,
6214,-0.23,0.25,
6215,-0.22,0.23,
6216,-0.23,0.2,
6217,-0.26,0.18,
6218,-0.265,0.175,
6219,-0.26,0.175,
6220,-0.245,0.185,
6221,-0.25,0.175,
6222,-0.27,0.17,
6223,-0.285,0.185,
6224,-0.265,0.185,
6225,-0.26,0.185,
6226,-0.265,0.17,
6227,-0.26,0.15,
6228,-0.3,0.12,
6229,-0.3,0.125,
6230,-0.285,0.135,
6231,-0.275,0.15,
6232,-0.25,0.135,
6233,-0.28,0.13,
6234,-0.305,0.11,
6235,-0.315,0.115,
6236,-0.295,0.125,
6237,-0.275,0.13,
6238,-0.255,0.115,
6239,-0.25,0.105,
6240,-0.27,0.1,
6241,-0.26,0.105,
6242,-0.24,0.11,
6243,-0.23,0.12,
6244,-0.2,0.115,
6245,-0.2,0.105,
6246,-0.175,0.08,
6247,-0.155,0.085,
6248,-0.09,0.09,
6249,0.015,0.095,
6250,0.235,0.09,
6251,0.615,0.075,
6252,1.065,0.05,
6253,1.305,0.015,
6254,1.225,-0.035,
6255,1.0,-0.12,
6256,0.845,-0.285,
6257,0.755,-0.59,
6258,0.705,-0.91,
6259,0.615,-1.095,
6260,0.52,-1.03,
6261,0.44,-0.895,/
6262,0.335,-0.8,
6263,0.23,-0.775,
6264,0.095,-0.765,
6265,-0.02,-0.755,
6266,-0.15,-0.715,
6267,-0.27,-0.705,
6268,-0.405,-0.71,
6269,-0.55,-0.725,
6270,-0.725,-0.75,
6271,-0.9,-0.76,
6272,-1.075,-0.745,
6273,-1.215,-0.755,
6274,-1.365,-0.77,
6275,-1.485,-0.79,
6276,-1.605,-0.81,
6277,-1.725,-0.805,
6278,-1.81,-0.8,
6279,-1.87,-0.795,
6280,-1.95,-0.81,
6281,-1.995,-0.825,
6282,-2.05,-0.855,
6283,-2.09,-0.87,
6284,-2.08,-0.865,
6285,-2.035,-0.85,
6286,-1.975,-0.875,
6287,-1.94,-0.89,
6288,-1.89,-0.935,
6289,-1.83,-0.96,
6290,-1.705,-0.96,
6291,-1.56,-0.95,
6292,-1.405,-0.955,
6293,-1.275,-0.94,
6294,-1.145,-0.94,
6295,-1.055,-0.91,
6296,-1.01,-0.87,
6297,-0.94,-0.805,
6298,-0.88,-0.785,
6299,-0.835,-0.76,
6300,-0.77,-0.715,
6301,-0.725,-0.66,
6302,-0.65,-0.585,
6303,-0.575,-0.52,
6304,-0.5,-0.46,
6305,-0.42,-0.405,
6306,-0.365,-0.35,
6307,-0.32,-0.28,
6308,-0.275,-0.2,
6309,-0.195,-0.135,
6310,-0.155,-0.065,
6311,-0.125,-0.01,
6312,-0.115,0.03,
6313,-0.105,0.095,
6314,-0.08,0.14,
6315,-0.04,0.19,
6316,-0.015,0.2,
6317,0.01,0.21,
6318,0.02,0.225,
6319,0.005,0.24,
6320,0.005,0.275,
6321,0.02,0.305,
6322,0.04,0.29,
6323,0.045,0.295,
6324,0.015,0.275,
6325,0.0,0.3,
6326,0.005,0.315,
6327,0.01,0.335,
6328,0.035,0.335,
6329,0.03,0.32,
6330,0.035,0.31,
6331,0.015,0.325,
6332,0.025,0.335,
6333,0.07,0.345,
6334,0.1,0.36,
6335,0.105,0.355,
6336,0.085,0.355,
6337,0.07,0.35,
6338,0.095,0.36,
6339,0.115,0.38,
6340,0.155,0.405,
6341,0.17,0.405,
6342,0.185,0.43,
6343,0.19,0.425,
6344,0.21,0.455,
6345,0.235,0.465,
6346,0.255,0.45,
6347,0.255,0.465,
6348,0.265,0.455,
6349,0.255,0.47,
6350,0.285,0.485,
6351,0.305,0.5,
6352,0.345,0.515,
6353,0.365,0.51,
6354,0.365,0.52,
6355,0.37,0.535,
6356,0.395,0.555,
6357,0.425,0.565,
6358,0.465,0.55,
6359,0.49,0.55,
6360,0.51,0.55,
6361,0.52,0.555,
6362,0.535,0.565,
6363,0.56,0.585,
6364,0.59,0.585,
6365,0.62,0.585,
6366,0.605,0.59,
6367,0.59,0.6,
6368,0.6,0.62,
6369,0.63,0.645,
6370,0.66,0.665,
6371,0.67,0.66,
6372,0.67,0.64,
6373,0.65,0.645,
6374,0.655,0.665,
6375,0.655,0.69,
6376,0.655,0.705,
6377,0.635,0.71,
6378,0.61,0.7,
6379,0.59,0.71,
6380,0.565,0.725,
6381,0.55,0.725,
6382,0.54,0.735,
6383,0.5,0.72,
6384,0.455,0.705,
6385,0.42,0.705,
6386,0.405,0.725,
6387,0.38,0.74,
6388,0.38,0.72,
6389,0.33,0.7,
6390,0.26,0.665,
6391,0.185,0.65,
6392,0.14,0.65,
6393,0.11,0.66,
6394,0.055,0.64,
6395,0.005,0.615,
6396,-0.05,0.57,
6397,-0.08,0.56,
6398,-0.11,0.55,
6399,-0.155,0.525,
6400,-0.15,0.515,
6401,-0.195,0.5,
6402,-0.23,0.475,
6403,-0.28,0.48,
6404,-0.295,0.475,
6405,-0.305,0.46,
6406,-0.315,0.455,
6407,-0.355,0.41,
6408,-0.385,0.37,
6409,-0.435,0.365,
6410,-0.46,0.35,
6411,-0.455,0.37,
6412,-0.45,0.37,
6413,-0.445,0.355,
6414,-0.46,0.335,
6415,-0.495,0.325,
6416,-0.525,0.32,
6417,-0.51,0.315,
6418,-0.5,0.305,
6419,-0.505,0.3,
6420,-0.525,0.29,
6421,-0.535,0.31,
6422,-0.535,0.31,
6423,-0.53,0.325,
6424,-0.535,0.34,
6425,-0.545,0.325,
6426,-0.56,0.315,
6427,-0.575,0.3,
6428,-0.575,0.285,
6429,-0.56,0.305,
6430,-0.555,0.32,
6431,-0.585,0.325,
6432,-0.6,0.325,
6433,-0.61,0.32,
6434,-0.61,0.34,
6435,-0.6,0.345,
6436,-0.585,0.34,
6437,-0.585,0.315,
6438,-0.595,0.3,
6439,-0.615,0.305,
6440,-0.6,0.33,
6441,-0.58,0.34,
6442,-0.55,0.34,
6443,-0.545,0.36,
6444,-0.57,0.38,
6445,-0.59,0.37,
6446,-0.58,0.375,
6447,-0.585,0.36,
6448,-0.57,0.325,
6449,-0.575,0.315,
6450,-0.585,0.315,
6451,-0.595,0.33,
6452,-0.605,0.36,
6453,-0.595,0.365,
6454,-0.57,0.355,
6455,-0.58,0.32,
6456,-0.59,0.29,
6457,-0.62,0.285,
6458,-0.635,0.305,
6459,-0.625,0.33,
6460,-0.595,0.335,
6461,-0.58,0.31,
6462,-0.61,0.28,
6463,-0.645,0.275,
6464,-0.65,0.28,
6465,-0.62,0.285,
6466,-0.62,0.285,
6467,-0.625,0.27,
6468,-0.615,0.26,
6469,-0.64,0.27,
6470,-0.63,0.29,
6471,-0.63,0.315,
6472,-0.615,0.305,
6473,-0.625,0.29,
6474,-0.615,0.27,
6475,-0.63,0.27,
6476,-0.655,0.28,
6477,-0.7,0.285,
6478,-0.69,0.28,
6479,-0.695,0.27,
6480,-0.675,0.27,
6481,-0.66,0.265,
6482,-0.645,0.28,
6483,-0.64,0.295,
6484,-0.63,0.305,
6485,-0.635,0.29,
6486,-0.615,0.285,
6487,-0.615,0.285,
6488,-0.61,0.29,
6489,-0.6,0.305,
6490,-0.575,0.28,
6491,-0.58,0.275,
6492,-0.605,0.265,
6493,-0.595,0.265,
6494,-0.59,0.285,
6495,-0.59,0.29,
6496,-0.585,0.28,
6497,-0.585,0.265,
6498,-0.59,0.255,
6499,-0.59,0.265,
6500,-0.585,0.265,
6501,-0.575,0.28,
6502,-0.56,0.285,
6503,-0.56,0.275,
6504,-0.575,0.265,
6505,-0.585,0.26,
6506,-0.57,0.275,
6507,-0.57,0.28,
6508,-0.57,0.26,
6509,-0.565,0.255,
6510,-0.6,0.235,
6511,-0.615,0.23,
6512,-0.595,0.24,
6513,-0.58,0.24,
6514,-0.55,0.23,
6515,-0.55,0.21,
6516,-0.575,0.205,
6517,-0.595,0.195,
6518,-0.58,0.195,
6519,-0.565,0.21,
6520,-0.545,0.2,
6521,-0.55,0.2,
6522,-0.575,0.185,
6523,-0.58,0.195,
6524,-0.57,0.205,
6525,-0.57,0.225,
6526,-0.58,0.215,
6527,-0.575,0.205,
6528,-0.585,0.2,
6529,-0.59,0.195,
6530,-0.585,0.19,
6531,-0.575,0.21,
6532,-0.555,0.225,
6533,-0.52,0.215,
6534,-0.505,0.2,
6535,-0.49,0.195,
6536,-0.435,0.205,
6537,-0.365,0.22,
6538,-0.225,0.215,
6539,0.07,0.205,
6540,0.52,0.19,
6541,0.995,0.19,
6542,1.23,0.18,
6543,1.135,0.135,
6544,0.89,0.045,
6545,0.685,-0.115,
6546,0.585,-0.4,
6547,0.51,-0.765,
6548,0.44,-1.07,
6549,0.34,-1.125,
6550,0.25,-0.99,/
6551,0.145,-0.845,
6552,0.02,-0.785,
6553,-0.12,-0.77,
6554,-0.25,-0.73,
6555,-0.375,-0.695,
6556,-0.5,-0.705,
6557,-0.62,-0.725,
6558,-0.765,-0.735,
6559,-0.925,-0.745,
6560,-1.1,-0.74,
6561,-1.255,-0.735,
6562,-1.39,-0.76,
6563,-1.54,-0.785,
6564,-1.68,-0.805,
6565,-1.8,-0.81,
6566,-1.89,-0.805,
6567,-1.97,-0.8,
6568,-2.03,-0.815,
6569,-2.105,-0.825,
6570,-2.15,-0.845,
6571,-2.195,-0.855,
6572,-2.195,-0.845,
6573,-2.205,-0.84,
6574,-2.155,-0.855,
6575,-2.145,-0.875,
6576,-2.12,-0.925,
6577,-2.105,-0.945,
6578,-2.04,-0.965,
6579,-1.935,-0.985,
6580,-1.785,-1.01,
6581,-1.65,-1.015,
6582,-1.52,-1.03,
6583,-1.4,-1.005,
6584,-1.295,-0.955,
6585,-1.185,-0.905,
6586,-1.155,-0.85,
6587,-1.135,-0.815,
6588,-1.105,-0.805,
6589,-1.075,-0.755,
6590,-1.025,-0.7,
6591,-0.94,-0.63,
6592,-0.89,-0.58,
6593,-0.815,-0.525,
6594,-0.765,-0.475,
6595,-0.69,-0.41,
6596,-0.625,-0.33,
6597,-0.545,-0.245,
6598,-0.465,-0.17,
6599,-0.41,-0.115,
6600,-0.375,-0.065,
6601,-0.335,0.0,
6602,-0.31,0.065,
6603,-0.255,0.125,
6604,-0.24,0.155,
6605,-0.23,0.205,
6606,-0.22,0.215,
6607,-0.215,0.23,
6608,-0.195,0.27,
6609,-0.19,0.31,
6610,-0.17,0.305,
6611,-0.16,0.3,
6612,-0.175,0.29,
6613,-0.165,0.29,
6614,-0.15,0.3,
6615,-0.13,0.33,
6616,-0.095,0.315,
6617,-0.11,0.3,
6618,-0.12,0.295,
6619,-0.15,0.3,
6620,-0.145,0.295,
6621,-0.11,0.29,
6622,-0.075,0.29,
6623,-0.055,0.29,
6624,-0.045,0.29,
6625,-0.04,0.305,
6626,-0.04,0.315,
6627,-0.03,0.335,
6628,-0.01,0.345,
6629,-0.005,0.34,
6630,-0.01,0.33,
6631,-0.005,0.325,
6632,0.02,0.35,
6633,0.045,0.375,
6634,0.08,0.39,
6635,0.12,0.385,
6636,0.13,0.38,
6637,0.155,0.39,
6638,0.18,0.42,
6639,0.205,0.43,
6640,0.24,0.445,
6641,0.25,0.45,
6642,0.245,0.45,
6643,0.25,0.47,
6644,0.285,0.495,
6645,0.31,0.495,
6646,0.34,0.495,
6647,0.375,0.48,
6648,0.385,0.485,
6649,0.395,0.495,
6650,0.415,0.53,
6651,0.45,0.54,
6652,0.475,0.555,
6653,0.49,0.555,
6654,0.505,0.545,
6655,0.515,0.555,
6656,0.545,0.57,
6657,0.575,0.585,
6658,0.595,0.595,
6659,0.605,0.59,
6660,0.61,0.58,
6661,0.61,0.59,
6662,0.615,0.605,
6663,0.64,0.61,
6664,0.665,0.62,
6665,0.65,0.64,
6666,0.615,0.635,
6667,0.61,0.63,
6668,0.6,0.645,
6669,0.62,0.66,
6670,0.63,0.65,
6671,0.605,0.645,
6672,0.6,0.63,
6673,0.565,0.62,
6674,0.555,0.63,
6675,0.545,0.635,
6676,0.52,0.635,
6677,0.485,0.625,
6678,0.415,0.62,
6679,0.38,0.61,
6680,0.335,0.61,
6681,0.305,0.625,
6682,0.295,0.6,
6683,0.255,0.57,
6684,0.205,0.54,
6685,0.165,0.535,
6686,0.13,0.525,
6687,0.085,0.505,
6688,0.08,0.495,
6689,0.04,0.47,
6690,0.005,0.425,
6691,-0.035,0.41,
6692,-0.05,0.4,
6693,-0.075,0.405,
6694,-0.105,0.38,
6695,-0.14,0.34,
6696,-0.19,0.32,
6697,-0.2,0.315,
6698,-0.21,0.31,
6699,-0.205,0.315,
6700,-0.22,0.295,
6701,-0.24,0.27,
6702,-0.265,0.26,
6703,-0.305,0.255,
6704,-0.31,0.24,
6705,-0.31,0.245,
6706,-0.31,0.245,
6707,-0.305,0.225,
6708,-0.31,0.205,
6709,-0.325,0.2,
6710,-0.325,0.19,
6711,-0.31,0.205,
6712,-0.3,0.2,
6713,-0.305,0.18,
6714,-0.32,0.16,
6715,-0.335,0.14,
6716,-0.32,0.145,
6717,-0.305,0.15,
6718,-0.305,0.15,
6719,-0.32,0.13,
6720,-0.32,0.12,
6721,-0.33,0.135,
6722,-0.32,0.13,
6723,-0.305,0.145,
6724,-0.285,0.14,
6725,-0.3,0.125,
6726,-0.315,0.12,
6727,-0.335,0.115,
6728,-0.33,0.12,
6729,-0.32,0.135,
6730,-0.305,0.15,
6731,-0.315,0.125,
6732,-0.34,0.115,
6733,-0.35,0.13,
6734,-0.35,0.145,
6735,-0.345,0.16,
6736,-0.325,0.16,
6737,-0.315,0.14,
6738,-0.335,0.14,
6739,-0.335,0.15,
6740,-0.33,0.16,
6741,-0.325,0.16,
6742,-0.305,0.165,
6743,-0.325,0.16,
6744,-0.33,0.15,
6745,-0.345,0.155,
6746,-0.34,0.175,
6747,-0.325,0.175,
6748,-0.32,0.175,
6749,-0.32,0.16,
6750,-0.335,0.15,
6751,-0.355,0.17,
6752,-0.34,0.17,
6753,-0.34,0.19,
6754,-0.33,0.195,
6755,-0.345,0.175,
6756,-0.335,0.165,
6757,-0.35,0.155,
6758,-0.355,0.17,
6759,-0.34,0.17,
6760,-0.315,0.16,
6761,-0.325,0.135,
6762,-0.325,0.13,
6763,-0.345,0.145,
6764,-0.335,0.155,
6765,-0.325,0.165,
6766,-0.33,0.15,
6767,-0.32,0.155,
6768,-0.34,0.13,
6769,-0.35,0.135,
6770,-0.345,0.135,
6771,-0.345,0.14,
6772,-0.335,0.145,
6773,-0.34,0.12,
6774,-0.355,0.085,
6775,-0.355,0.065,
6776,-0.36,0.055,
6777,-0.34,0.07,
6778,-0.335,0.06,
6779,-0.345,0.06,
6780,-0.355,0.045,
6781,-0.365,0.045,
6782,-0.37,0.05,
6783,-0.355,0.06,
6784,-0.34,0.06,
6785,-0.345,0.03,
6786,-0.37,0.01,
6787,-0.385,0.015,
6788,-0.38,0.035,
6789,-0.385,0.05,
6790,-0.375,0.055,
6791,-0.38,0.04,
6792,-0.4,0.03,
6793,-0.405,0.03,
6794,-0.39,0.05,
6795,-0.375,0.055,
6796,-0.355,0.05,
6797,-0.365,0.05,
6798,-0.36,0.05,
6799,-0.345,0.045,
6800,-0.34,0.075,
6801,-0.33,0.08,
6802,-0.31,0.08,
6803,-0.33,0.06,
6804,-0.33,0.075,
6805,-0.34,0.075,
6806,-0.325,0.095,
6807,-0.315,0.115,
6808,-0.305,0.115,
6809,-0.305,0.075,
6810,-0.31,0.07,
6811,-0.315,0.08,
6812,-0.295,0.085,
6813,-0.285,0.1,
6814,-0.28,0.095,
6815,-0.29,0.08,
