,MLII,V1,symbol
0,-0.69,-0.38,+
1,-0.69,-0.38,
2,-0.69,-0.38,
3,-0.69,-0.38,
4,-0.69,-0.38,
5,-0.69,-0.38,
6,-0.69,-0.38,
7,-0.67,-0.38,
8,-0.635,-0.38,
9,-0.6,-0.385,
10,-0.535,-0.385,
11,-0.42,-0.35,
12,-0.24,-0.32,
13,0.02,-0.28,
14,0.375,-0.23,
15,0.77,-0.22,
16,1.13,-0.24,
17,1.375,-0.33,
18,1.435,-0.475,
19,1.225,-0.645,
20,0.72,-0.865,
21,0.08,-1.04,
22,-0.56,-1.16,
23,-1.2,-1.155,
24,-1.685,-1.07,
25,-1.61,-0.94,
26,-1.355,-0.8,
27,-1.1,-0.675,
28,-0.91,-0.58,N
29,-0.815,-0.515,
30,-0.79,-0.49,
31,-0.82,-0.465,
32,-0.845,-0.45,
33,-0.865,-0.44,
34,-0.865,-0.43,
35,-0.87,-0.42,
36,-0.87,-0.415,
37,-0.87,-0.4,
38,-0.865,-0.385,
39,-0.865,-0.37,
40,-0.87,-0.36,
41,-0.855,-0.345,
42,-0.86,-0.35,
43,-0.86,-0.355,
44,-0.86,-0.355,
45,-0.865,-0.365,
46,-0.865,-0.36,
47,-0.87,-0.355,
48,-0.86,-0.345,
49,-0.85,-0.36,
50,-0.855,-0.345,
51,-0.82,-0.34,
52,-0.815,-0.345,
53,-0.815,-0.32,
54,-0.815,-0.33,
55,-0.815,-0.325,
56,-0.805,-0.335,
57,-0.795,-0.325,
58,-0.79,-0.34,
59,-0.8,-0.35,
60,-0.8,-0.345,
61,-0.79,-0.345,
62,-0.775,-0.335,
63,-0.775,-0.325,
64,-0.765,-0.315,
65,-0.755,-0.31,
66,-0.75,-0.305,
67,-0.745,-0.315,
68,-0.74,-0.335,
69,-0.735,-0.34,
70,-0.735,-0.335,
71,-0.74,-0.335,
72,-0.755,-0.32,
73,-0.74,-0.325,
74,-0.73,-0.31,
75,-0.72,-0.305,
76,-0.71,-0.32,
77,-0.695,-0.315,
78,-0.69,-0.32,
79,-0.675,-0.315,
80,-0.675,-0.33,
81,-0.68,-0.32,
82,-0.675,-0.32,
83,-0.67,-0.32,
84,-0.67,-0.325,
85,-0.67,-0.325,
86,-0.655,-0.315,
87,-0.65,-0.315,
88,-0.635,-0.305,
89,-0.63,-0.3,
90,-0.62,-0.3,
91,-0.615,-0.305,
92,-0.605,-0.305,
93,-0.595,-0.32,
94,-0.6,-0.315,
95,-0.595,-0.32,
96,-0.595,-0.32,
97,-0.59,-0.3,
98,-0.58,-0.29,
99,-0.575,-0.285,
100,-0.565,-0.275,
101,-0.55,-0.28,
102,-0.55,-0.295,
103,-0.55,-0.305,
104,-0.55,-0.31,
105,-0.56,-0.31,
106,-0.55,-0.32,
107,-0.555,-0.315,
108,-0.555,-0.315,
109,-0.545,-0.31,
110,-0.52,-0.315,
111,-0.49,-0.31,
112,-0.465,-0.3,
113,-0.47,-0.305,
114,-0.46,-0.315,
115,-0.46,-0.32,
116,-0.445,-0.325,
117,-0.44,-0.33,
118,-0.44,-0.355,
119,-0.42,-0.35,
120,-0.41,-0.36,
121,-0.42,-0.37,
122,-0.415,-0.36,
123,-0.42,-0.35,
124,-0.425,-0.36,
125,-0.43,-0.355,
126,-0.445,-0.375,
127,-0.46,-0.365,
128,-0.48,-0.385,
129,-0.495,-0.405,
130,-0.515,-0.405,
131,-0.545,-0.41,
132,-0.55,-0.395,
133,-0.58,-0.4,
134,-0.59,-0.38,
135,-0.595,-0.385,
136,-0.6,-0.38,
137,-0.61,-0.38,
138,-0.625,-0.39,
139,-0.645,-0.395,
140,-0.66,-0.405,
141,-0.67,-0.395,
142,-0.685,-0.395,
143,-0.685,-0.4,
144,-0.695,-0.4,
145,-0.695,-0.395,
146,-0.695,-0.39,
147,-0.69,-0.385,
148,-0.695,-0.375,
149,-0.685,-0.37,
150,-0.7,-0.375,
151,-0.7,-0.385,
152,-0.7,-0.39,
153,-0.705,-0.4,
154,-0.705,-0.405,
155,-0.715,-0.42,
156,-0.715,-0.415,
157,-0.715,-0.405,
158,-0.715,-0.38,
159,-0.71,-0.365,
160,-0.7,-0.36,
161,-0.685,-0.365,
162,-0.68,-0.37,
163,-0.685,-0.375,
164,-0.685,-0.405,
165,-0.685,-0.4,
166,-0.69,-0.4,
167,-0.695,-0.41,
168,-0.68,-0.39,
169,-0.67,-0.385,
170,-0.65,-0.385,
171,-0.65,-0.38,
172,-0.645,-0.365,
173,-0.625,-0.35,
174,-0.635,-0.37,
175,-0.64,-0.365,
176,-0.64,-0.38,
177,-0.64,-0.385,
178,-0.63,-0.4,
179,-0.645,-0.4,
180,-0.64,-0.4,
181,-0.645,-0.39,
182,-0.635,-0.37,
183,-0.635,-0.365,
184,-0.625,-0.365,
185,-0.615,-0.365,
186,-0.615,-0.365,
187,-0.61,-0.38,
188,-0.62,-0.395,
189,-0.64,-0.405,
190,-0.64,-0.41,
191,-0.65,-0.4,
192,-0.65,-0.395,
193,-0.65,-0.38,
194,-0.645,-0.375,
195,-0.64,-0.385,
196,-0.645,-0.385,
197,-0.635,-0.375,
198,-0.645,-0.39,
199,-0.65,-0.39,
200,-0.655,-0.39,
201,-0.655,-0.385,
202,-0.68,-0.405,
203,-0.67,-0.405,
204,-0.68,-0.4,
205,-0.68,-0.395,
206,-0.68,-0.385,
207,-0.675,-0.365,
208,-0.67,-0.36,
209,-0.675,-0.36,
210,-0.67,-0.37,
211,-0.675,-0.38,
212,-0.675,-0.395,
213,-0.675,-0.395,
214,-0.685,-0.395,
215,-0.7,-0.41,
216,-0.705,-0.395,
217,-0.695,-0.39,
218,-0.705,-0.385,
219,-0.695,-0.365,
220,-0.69,-0.37,
221,-0.68,-0.37,
222,-0.685,-0.38,
223,-0.685,-0.39,
224,-0.69,-0.395,
225,-0.7,-0.4,
226,-0.705,-0.4,
227,-0.715,-0.405,
228,-0.725,-0.4,
229,-0.73,-0.4,
230,-0.725,-0.39,
231,-0.705,-0.395,
232,-0.71,-0.385,
233,-0.705,-0.365,
234,-0.705,-0.37,
235,-0.695,-0.375,
236,-0.71,-0.395,
237,-0.715,-0.405,
238,-0.72,-0.405,
239,-0.725,-0.405,
240,-0.73,-0.4,
241,-0.74,-0.395,
242,-0.73,-0.38,
243,-0.725,-0.38,
244,-0.73,-0.37,
245,-0.715,-0.365,
246,-0.72,-0.38,
247,-0.72,-0.375,
248,-0.71,-0.385,
249,-0.73,-0.4,
250,-0.755,-0.405,
251,-0.75,-0.405,
252,-0.75,-0.405,
253,-0.735,-0.4,
254,-0.74,-0.385,
255,-0.725,-0.38,
256,-0.725,-0.365,
257,-0.715,-0.37,
258,-0.71,-0.38,
259,-0.71,-0.385,
260,-0.71,-0.39,
261,-0.715,-0.4,
262,-0.71,-0.405,
263,-0.715,-0.41,
264,-0.71,-0.395,
265,-0.71,-0.39,
266,-0.7,-0.37,
267,-0.67,-0.36,
268,-0.655,-0.355,
269,-0.63,-0.355,
270,-0.62,-0.36,
271,-0.605,-0.355,
272,-0.605,-0.345,
273,-0.605,-0.335,
274,-0.6,-0.33,
275,-0.59,-0.34,
276,-0.58,-0.35,
277,-0.57,-0.365,
278,-0.57,-0.38,
279,-0.58,-0.4,
280,-0.605,-0.415,
281,-0.6,-0.42,
282,-0.61,-0.41,
283,-0.62,-0.425,
284,-0.615,-0.43,
285,-0.635,-0.425,
286,-0.64,-0.435,
287,-0.65,-0.43,
288,-0.66,-0.42,
289,-0.67,-0.405,
290,-0.69,-0.38,
291,-0.695,-0.375,
292,-0.7,-0.37,
293,-0.7,-0.365,
294,-0.7,-0.385,
295,-0.71,-0.395,
296,-0.715,-0.405,
297,-0.72,-0.405,
298,-0.725,-0.42,
299,-0.725,-0.42,
300,-0.725,-0.42,
301,-0.73,-0.405,
302,-0.705,-0.4,
303,-0.695,-0.39,
304,-0.68,-0.375,
305,-0.63,-0.38,
306,-0.59,-0.365,
307,-0.515,-0.34,
308,-0.36,-0.3,
309,-0.1,-0.26,
310,0.245,-0.22,
311,0.675,-0.215,
312,1.07,-0.25,
313,1.355,-0.345,N
314,1.45,-0.47,
315,1.3,-0.655,
316,0.86,-0.835,
317,0.22,-1.02,
318,-0.42,-1.15,
319,-1.06,-1.2,
320,-1.485,-1.17,
321,-1.52,-1.07,
322,-1.345,-0.95,
323,-1.115,-0.835,
324,-0.94,-0.72,
325,-0.825,-0.625,
326,-0.815,-0.56,
327,-0.83,-0.515,
328,-0.835,-0.48,
329,-0.845,-0.45,
330,-0.835,-0.435,
331,-0.84,-0.415,
332,-0.835,-0.395,
333,-0.83,-0.4,
334,-0.84,-0.39,
335,-0.845,-0.39,
336,-0.86,-0.385,
337,-0.865,-0.38,
338,-0.855,-0.375,
339,-0.875,-0.345,
340,-0.865,-0.335,
341,-0.85,-0.32,
342,-0.845,-0.325,
343,-0.845,-0.335,
344,-0.85,-0.35,
345,-0.84,-0.365,
346,-0.84,-0.36,
347,-0.845,-0.36,
348,-0.84,-0.345,
349,-0.835,-0.34,
350,-0.83,-0.325,
351,-0.815,-0.33,
352,-0.805,-0.31,
353,-0.795,-0.315,
354,-0.775,-0.325,
355,-0.785,-0.33,
356,-0.8,-0.33,
357,-0.795,-0.33,
358,-0.795,-0.335,
359,-0.79,-0.34,
360,-0.78,-0.34,
361,-0.775,-0.33,
362,-0.775,-0.325,
363,-0.775,-0.315,
364,-0.76,-0.315,
365,-0.74,-0.3,
366,-0.735,-0.305,
367,-0.735,-0.295,
368,-0.73,-0.305,
369,-0.73,-0.31,
370,-0.72,-0.33,
371,-0.73,-0.335,
372,-0.73,-0.33,
373,-0.73,-0.335,
374,-0.71,-0.31,
375,-0.705,-0.305,
376,-0.69,-0.295,
377,-0.67,-0.3,
378,-0.655,-0.305,
379,-0.655,-0.31,
380,-0.65,-0.32,
381,-0.65,-0.32,
382,-0.66,-0.32,
383,-0.655,-0.325,
384,-0.635,-0.315,
385,-0.64,-0.32,
386,-0.635,-0.31,
387,-0.61,-0.315,
388,-0.605,-0.295,
389,-0.59,-0.29,
390,-0.595,-0.285,
391,-0.585,-0.285,
392,-0.57,-0.29,
393,-0.57,-0.31,
394,-0.575,-0.32,
395,-0.575,-0.33,
396,-0.585,-0.32,
397,-0.585,-0.305,
398,-0.575,-0.29,
399,-0.575,-0.285,
400,-0.555,-0.29,
401,-0.545,-0.285,
402,-0.535,-0.285,
403,-0.525,-0.295,
404,-0.52,-0.305,
405,-0.525,-0.305,
406,-0.525,-0.32,
407,-0.505,-0.32,
408,-0.515,-0.315,
409,-0.495,-0.315,
410,-0.475,-0.31,
411,-0.465,-0.315,
412,-0.445,-0.315,
413,-0.435,-0.31,
414,-0.42,-0.335,
415,-0.41,-0.31,
416,-0.4,-0.345,
417,-0.395,-0.35,
418,-0.405,-0.365,
419,-0.415,-0.38,
420,-0.415,-0.395,
421,-0.42,-0.395,
422,-0.44,-0.395,
423,-0.44,-0.385,
424,-0.46,-0.38,
425,-0.47,-0.37,
426,-0.48,-0.37,
427,-0.5,-0.375,
428,-0.51,-0.39,
429,-0.545,-0.4,
430,-0.575,-0.42,
431,-0.59,-0.415,
432,-0.61,-0.405,
433,-0.625,-0.395,
434,-0.645,-0.395,
435,-0.64,-0.39,
436,-0.64,-0.39,
437,-0.63,-0.375,
438,-0.63,-0.39,
439,-0.645,-0.385,
440,-0.65,-0.4,
441,-0.66,-0.41,
442,-0.68,-0.4,
443,-0.705,-0.4,
444,-0.71,-0.405,
445,-0.705,-0.4,
446,-0.7,-0.395,
447,-0.695,-0.395,
448,-0.7,-0.39,
449,-0.68,-0.395,
450,-0.69,-0.38,
451,-0.7,-0.38,
452,-0.705,-0.385,
453,-0.705,-0.385,
454,-0.725,-0.4,
455,-0.72,-0.41,
456,-0.72,-0.405,
457,-0.705,-0.4,
458,-0.69,-0.39,
459,-0.685,-0.385,
460,-0.68,-0.38,
461,-0.67,-0.37,
462,-0.67,-0.38,
463,-0.66,-0.38,
464,-0.66,-0.39,
465,-0.665,-0.395,
466,-0.66,-0.395,
467,-0.67,-0.4,
468,-0.665,-0.395,
469,-0.66,-0.385,
470,-0.645,-0.385,
471,-0.63,-0.395,
472,-0.625,-0.385,
473,-0.625,-0.38,
474,-0.615,-0.375,
475,-0.63,-0.38,
476,-0.625,-0.37,
477,-0.64,-0.38,
478,-0.63,-0.385,
479,-0.63,-0.405,
480,-0.635,-0.405,
481,-0.63,-0.4,
482,-0.62,-0.395,
483,-0.625,-0.38,
484,-0.63,-0.365,
485,-0.615,-0.36,
486,-0.61,-0.375,
487,-0.615,-0.38,
488,-0.62,-0.385,
489,-0.625,-0.395,
490,-0.64,-0.4,
491,-0.645,-0.4,
492,-0.65,-0.395,
493,-0.65,-0.39,
494,-0.645,-0.375,
495,-0.645,-0.375,
496,-0.64,-0.38,
497,-0.63,-0.38,
498,-0.635,-0.38,
499,-0.65,-0.385,
500,-0.655,-0.38,
501,-0.675,-0.395,
502,-0.695,-0.39,
503,-0.685,-0.395,
504,-0.695,-0.385,
505,-0.705,-0.39,
506,-0.705,-0.39,
507,-0.69,-0.385,
508,-0.685,-0.375,
509,-0.685,-0.365,
510,-0.68,-0.38,
511,-0.68,-0.375,
512,-0.7,-0.38,
513,-0.71,-0.385,
514,-0.72,-0.4,
515,-0.72,-0.405,
516,-0.725,-0.405,
517,-0.725,-0.395,
518,-0.73,-0.395,
519,-0.74,-0.38,
520,-0.715,-0.375,
521,-0.71,-0.365,
522,-0.71,-0.37,
523,-0.715,-0.38,
524,-0.715,-0.39,
525,-0.725,-0.395,
526,-0.74,-0.41,
527,-0.755,-0.405,
528,-0.755,-0.385,
529,-0.745,-0.375,
530,-0.75,-0.375,
531,-0.74,-0.365,
532,-0.73,-0.38,
533,-0.725,-0.37,
534,-0.71,-0.38,
535,-0.715,-0.37,
536,-0.73,-0.38,
537,-0.74,-0.38,
538,-0.755,-0.39,
539,-0.75,-0.41,
540,-0.755,-0.4,
541,-0.76,-0.395,
542,-0.76,-0.405,
543,-0.75,-0.385,
544,-0.755,-0.38,
545,-0.74,-0.37,
546,-0.73,-0.375,
547,-0.715,-0.375,
548,-0.715,-0.395,
549,-0.725,-0.4,
550,-0.73,-0.415,
551,-0.74,-0.395,
552,-0.745,-0.39,
553,-0.755,-0.385,
554,-0.745,-0.385,
555,-0.735,-0.365,
556,-0.745,-0.37,
557,-0.73,-0.365,
558,-0.73,-0.375,
559,-0.725,-0.39,
560,-0.72,-0.385,
561,-0.725,-0.385,
562,-0.725,-0.39,
563,-0.735,-0.39,
564,-0.725,-0.38,
565,-0.71,-0.4,
566,-0.695,-0.38,
567,-0.68,-0.385,
568,-0.665,-0.365,
569,-0.65,-0.34,
570,-0.64,-0.345,
571,-0.63,-0.33,
572,-0.615,-0.335,
573,-0.61,-0.34,
574,-0.6,-0.335,
575,-0.595,-0.355,
576,-0.6,-0.35,
577,-0.6,-0.36,
578,-0.6,-0.37,
579,-0.605,-0.365,
580,-0.625,-0.39,
581,-0.63,-0.395,
582,-0.635,-0.405,
583,-0.645,-0.42,
584,-0.645,-0.43,
585,-0.635,-0.43,
586,-0.645,-0.425,
587,-0.655,-0.42,
588,-0.67,-0.41,
589,-0.66,-0.405,
590,-0.68,-0.38,
591,-0.695,-0.375,
592,-0.705,-0.37,
593,-0.71,-0.38,
594,-0.72,-0.365,
595,-0.73,-0.385,
596,-0.735,-0.385,
597,-0.74,-0.405,
598,-0.75,-0.415,
599,-0.74,-0.41,
600,-0.745,-0.41,
601,-0.715,-0.42,
602,-0.7,-0.405,
603,-0.665,-0.38,
604,-0.625,-0.36,
605,-0.56,-0.35,
606,-0.47,-0.335,
607,-0.325,-0.305,
608,-0.075,-0.285,
609,0.23,-0.26,
610,0.625,-0.235,
611,0.995,-0.245,
612,1.295,-0.29,N
613,1.44,-0.37,
614,1.405,-0.51,
615,1.16,-0.655,
616,0.675,-0.81,
617,0.035,-0.97,
618,-0.605,-1.085,
619,-1.245,-1.115,
620,-1.59,-1.085,
621,-1.585,-0.99,
622,-1.375,-0.88,
623,-1.165,-0.785,
624,-0.985,-0.68,
625,-0.885,-0.605,
626,-0.855,-0.545,
627,-0.87,-0.505,
628,-0.885,-0.48,
629,-0.885,-0.435,
630,-0.87,-0.415,
631,-0.84,-0.4,
632,-0.835,-0.4,
633,-0.835,-0.395,
634,-0.845,-0.41,
635,-0.86,-0.41,
636,-0.875,-0.4,
637,-0.89,-0.385,
638,-0.88,-0.36,
639,-0.875,-0.34,
640,-0.865,-0.34,
641,-0.855,-0.34,
642,-0.835,-0.34,
643,-0.845,-0.345,
644,-0.85,-0.355,
645,-0.86,-0.355,
646,-0.865,-0.35,
647,-0.87,-0.36,
648,-0.86,-0.345,
649,-0.86,-0.345,
650,-0.85,-0.34,
651,-0.835,-0.335,
652,-0.825,-0.33,
653,-0.81,-0.335,
654,-0.8,-0.33,
655,-0.8,-0.32,
656,-0.805,-0.325,
657,-0.81,-0.325,
658,-0.815,-0.33,
659,-0.81,-0.345,
660,-0.805,-0.335,
661,-0.8,-0.34,
662,-0.79,-0.345,
663,-0.78,-0.33,
664,-0.775,-0.33,
665,-0.76,-0.315,
666,-0.755,-0.31,
667,-0.745,-0.315,
668,-0.745,-0.325,
669,-0.73,-0.33,
670,-0.72,-0.34,
671,-0.725,-0.33,
672,-0.73,-0.34,
673,-0.715,-0.335,
674,-0.715,-0.31,
675,-0.705,-0.29,
676,-0.705,-0.3,
677,-0.685,-0.3,
678,-0.685,-0.315,
679,-0.675,-0.325,
680,-0.675,-0.325,
681,-0.675,-0.315,
682,-0.675,-0.32,
683,-0.67,-0.315,
684,-0.665,-0.315,
685,-0.65,-0.305,
686,-0.64,-0.315,
687,-0.63,-0.305,
688,-0.625,-0.32,
689,-0.615,-0.3,
690,-0.615,-0.3,
691,-0.61,-0.3,
692,-0.6,-0.285,
693,-0.6,-0.31,
694,-0.61,-0.315,
695,-0.605,-0.325,
696,-0.605,-0.33,
697,-0.595,-0.315,
698,-0.605,-0.31,
699,-0.605,-0.29,
700,-0.595,-0.275,
701,-0.575,-0.265,
702,-0.565,-0.28,
703,-0.565,-0.29,
704,-0.575,-0.285,
705,-0.575,-0.31,
706,-0.58,-0.32,
707,-0.585,-0.315,
708,-0.585,-0.315,
709,-0.57,-0.3,
710,-0.56,-0.295,
711,-0.55,-0.285,
712,-0.54,-0.29,
713,-0.52,-0.29,
714,-0.495,-0.29,
715,-0.485,-0.29,
716,-0.49,-0.315,
717,-0.49,-0.315,
718,-0.47,-0.315,
719,-0.475,-0.325,
720,-0.48,-0.325,
721,-0.47,-0.345,
722,-0.44,-0.34,
723,-0.42,-0.34,
724,-0.43,-0.345,
725,-0.42,-0.35,
726,-0.435,-0.355,
727,-0.455,-0.36,
728,-0.485,-0.37,
729,-0.505,-0.37,
730,-0.515,-0.39,
731,-0.53,-0.39,
732,-0.555,-0.395,
733,-0.585,-0.395,
734,-0.595,-0.375,
735,-0.62,-0.365,
736,-0.605,-0.37,
737,-0.615,-0.37,
738,-0.62,-0.37,
739,-0.63,-0.39,
740,-0.635,-0.395,
741,-0.645,-0.395,
742,-0.665,-0.41,
743,-0.68,-0.4,
744,-0.69,-0.4,
745,-0.705,-0.38,
746,-0.705,-0.38,
747,-0.71,-0.375,
748,-0.715,-0.375,
749,-0.705,-0.375,
750,-0.695,-0.39,
751,-0.715,-0.385,
752,-0.71,-0.39,
753,-0.715,-0.395,
754,-0.73,-0.4,
755,-0.725,-0.41,
756,-0.73,-0.4,
757,-0.72,-0.385,
758,-0.72,-0.385,
759,-0.72,-0.37,
760,-0.705,-0.36,
761,-0.695,-0.355,
762,-0.69,-0.375,
763,-0.69,-0.365,
764,-0.68,-0.395,
765,-0.675,-0.395,
766,-0.675,-0.405,
767,-0.68,-0.405,
768,-0.68,-0.39,
769,-0.68,-0.385,
770,-0.675,-0.37,
771,-0.67,-0.36,
772,-0.66,-0.365,
773,-0.645,-0.355,
774,-0.635,-0.37,
775,-0.635,-0.385,
776,-0.64,-0.375,
777,-0.65,-0.385,
778,-0.655,-0.39,
779,-0.655,-0.38,
780,-0.65,-0.385,
781,-0.645,-0.38,
782,-0.64,-0.385,
783,-0.625,-0.365,
784,-0.605,-0.37,
785,-0.6,-0.36,
786,-0.595,-0.355,
787,-0.61,-0.35,
788,-0.61,-0.365,
789,-0.625,-0.37,
790,-0.63,-0.385,
791,-0.635,-0.4,
792,-0.65,-0.4,
793,-0.655,-0.385,
794,-0.645,-0.385,
795,-0.65,-0.375,
796,-0.64,-0.355,
797,-0.64,-0.365,
798,-0.625,-0.36,
799,-0.62,-0.365,
800,-0.62,-0.395,
801,-0.635,-0.395,
802,-0.645,-0.405,
803,-0.66,-0.405,
804,-0.675,-0.395,
805,-0.685,-0.385,
806,-0.685,-0.375,
807,-0.68,-0.37,
808,-0.675,-0.365,
809,-0.68,-0.37,
810,-0.675,-0.37,
811,-0.675,-0.37,
812,-0.69,-0.385,
813,-0.695,-0.38,
814,-0.695,-0.385,
815,-0.695,-0.385,
816,-0.695,-0.395,
817,-0.705,-0.405,
818,-0.715,-0.39,
819,-0.715,-0.385,
820,-0.7,-0.375,
821,-0.695,-0.37,
822,-0.7,-0.37,
823,-0.7,-0.36,
824,-0.715,-0.365,
825,-0.725,-0.39,
826,-0.72,-0.4,
827,-0.725,-0.405,
828,-0.75,-0.405,
829,-0.745,-0.395,
830,-0.73,-0.38,
831,-0.73,-0.37,
832,-0.73,-0.365,
833,-0.705,-0.35,
834,-0.72,-0.365,
835,-0.72,-0.385,
836,-0.72,-0.385,
837,-0.73,-0.395,
838,-0.735,-0.395,
839,-0.745,-0.39,
840,-0.745,-0.39,
841,-0.74,-0.39,
842,-0.74,-0.39,
843,-0.74,-0.39,
844,-0.735,-0.38,
845,-0.725,-0.365,
846,-0.725,-0.365,
847,-0.72,-0.365,
848,-0.73,-0.375,
849,-0.73,-0.385,
850,-0.745,-0.395,
851,-0.745,-0.4,
852,-0.755,-0.4,
853,-0.75,-0.4,
854,-0.75,-0.39,
855,-0.755,-0.38,
856,-0.735,-0.37,
857,-0.71,-0.355,
858,-0.71,-0.36,
859,-0.705,-0.375,
860,-0.71,-0.375,
861,-0.72,-0.385,
862,-0.72,-0.395,
863,-0.735,-0.41,
864,-0.745,-0.395,
865,-0.73,-0.395,
866,-0.72,-0.38,
867,-0.71,-0.38,
868,-0.705,-0.37,
869,-0.68,-0.375,
870,-0.665,-0.365,
871,-0.65,-0.37,
872,-0.65,-0.37,
873,-0.64,-0.375,
874,-0.62,-0.36,
875,-0.625,-0.365,
876,-0.61,-0.35,
877,-0.595,-0.345,
878,-0.595,-0.34,
879,-0.575,-0.33,
880,-0.565,-0.34,
881,-0.56,-0.35,
882,-0.575,-0.36,
883,-0.595,-0.385,
884,-0.605,-0.405,
885,-0.625,-0.43,
886,-0.635,-0.435,
887,-0.64,-0.445,
888,-0.64,-0.43,
889,-0.635,-0.42,
890,-0.64,-0.415,
891,-0.64,-0.4,
892,-0.65,-0.385,
893,-0.665,-0.38,
894,-0.665,-0.38,
895,-0.685,-0.375,
896,-0.71,-0.39,
897,-0.72,-0.39,
898,-0.74,-0.39,
899,-0.745,-0.4,
900,-0.745,-0.415,
901,-0.73,-0.405,
902,-0.715,-0.395,
903,-0.705,-0.395,
904,-0.71,-0.395,
905,-0.695,-0.385,
906,-0.66,-0.375,
907,-0.63,-0.375,
908,-0.585,-0.37,
909,-0.53,-0.36,
910,-0.43,-0.35,
911,-0.25,-0.34,
912,0.01,-0.28,
913,0.34,-0.25,
914,0.745,-0.215,
915,1.14,-0.225,
916,1.39,-0.3,N
917,1.48,-0.405,
918,1.33,-0.57,
919,0.89,-0.745,
920,0.25,-0.915,
921,-0.39,-1.05,
922,-1.03,-1.095,
923,-1.67,-1.055,
924,-1.7,-0.97,
925,-1.495,-0.865,
926,-1.22,-0.755,
927,-0.99,-0.66,
928,-0.87,-0.58,
929,-0.825,-0.525,
930,-0.84,-0.5,
931,-0.865,-0.46,
932,-0.875,-0.455,
933,-0.865,-0.435,
934,-0.835,-0.425,
935,-0.82,-0.43,
936,-0.815,-0.41,
937,-0.83,-0.4,
938,-0.835,-0.39,
939,-0.835,-0.365,
940,-0.84,-0.345,
941,-0.84,-0.34,
942,-0.83,-0.36,
943,-0.825,-0.355,
944,-0.83,-0.36,
945,-0.845,-0.365,
946,-0.845,-0.37,
947,-0.84,-0.355,
948,-0.84,-0.355,
949,-0.83,-0.35,
950,-0.825,-0.345,
951,-0.8,-0.355,
952,-0.795,-0.345,
953,-0.785,-0.325,
954,-0.78,-0.33,
955,-0.795,-0.32,
956,-0.8,-0.325,
957,-0.8,-0.32,
958,-0.79,-0.33,
959,-0.785,-0.35,
960,-0.79,-0.355,
961,-0.785,-0.345,
962,-0.79,-0.35,
963,-0.77,-0.345,
964,-0.765,-0.32,
965,-0.755,-0.305,
966,-0.745,-0.31,
967,-0.725,-0.325,
968,-0.725,-0.33,
969,-0.725,-0.34,
970,-0.73,-0.335,
971,-0.73,-0.35,
972,-0.725,-0.345,
973,-0.715,-0.335,
974,-0.705,-0.315,
975,-0.695,-0.33,
976,-0.685,-0.32,
977,-0.67,-0.32,
978,-0.66,-0.32,
979,-0.645,-0.325,
980,-0.64,-0.32,
981,-0.645,-0.315,
982,-0.65,-0.305,
983,-0.64,-0.33,
984,-0.64,-0.33,
985,-0.635,-0.335,
986,-0.62,-0.335,
987,-0.615,-0.32,
988,-0.62,-0.31,
989,-0.61,-0.295,
990,-0.6,-0.295,
991,-0.605,-0.295,
992,-0.595,-0.31,
993,-0.595,-0.31,
994,-0.595,-0.325,
995,-0.595,-0.335,
996,-0.59,-0.33,
997,-0.58,-0.325,
998,-0.57,-0.32,
999,-0.555,-0.29,
1000,-0.555,-0.29,
1001,-0.535,-0.29,
1002,-0.545,-0.295,
1003,-0.555,-0.305,
1004,-0.565,-0.31,
1005,-0.565,-0.305,
1006,-0.565,-0.32,
1007,-0.575,-0.31,
1008,-0.555,-0.31,
1009,-0.545,-0.31,
1010,-0.525,-0.315,
1011,-0.515,-0.3,
1012,-0.505,-0.3,
1013,-0.49,-0.31,
1014,-0.49,-0.31,
1015,-0.49,-0.315,
1016,-0.485,-0.33,
1017,-0.46,-0.335,
1018,-0.445,-0.335,
1019,-0.46,-0.34,
1020,-0.455,-0.355,
1021,-0.435,-0.345,
1022,-0.44,-0.345,
1023,-0.44,-0.355,
1024,-0.44,-0.33,
1025,-0.445,-0.35,
1026,-0.45,-0.36,
1027,-0.455,-0.365,
1028,-0.47,-0.38,
1029,-0.485,-0.39,
1030,-0.51,-0.4,
1031,-0.53,-0.4,
1032,-0.56,-0.38,
1033,-0.57,-0.38,
1034,-0.57,-0.375,
1035,-0.58,-0.37,
1036,-0.58,-0.365,
1037,-0.595,-0.365,
1038,-0.61,-0.4,
1039,-0.63,-0.39,
1040,-0.64,-0.41,
1041,-0.675,-0.405,
1042,-0.68,-0.415,
1043,-0.675,-0.4,
1044,-0.68,-0.39,
1045,-0.68,-0.395,
1046,-0.67,-0.385,
1047,-0.675,-0.375,
1048,-0.66,-0.365,
1049,-0.675,-0.37,
1050,-0.68,-0.375,
1051,-0.695,-0.385,
1052,-0.685,-0.385,
1053,-0.695,-0.39,
1054,-0.71,-0.41,
1055,-0.71,-0.41,
1056,-0.7,-0.4,
1057,-0.71,-0.385,
1058,-0.695,-0.365,
1059,-0.69,-0.37,
1060,-0.68,-0.36,
1061,-0.66,-0.365,
1062,-0.66,-0.385,
1063,-0.665,-0.4,
1064,-0.665,-0.4,
1065,-0.67,-0.405,
1066,-0.665,-0.4,
1067,-0.67,-0.39,
1068,-0.675,-0.38,
1069,-0.66,-0.385,
1070,-0.645,-0.375,
1071,-0.625,-0.37,
1072,-0.63,-0.375,
1073,-0.62,-0.36,
1074,-0.61,-0.37,
1075,-0.605,-0.38,
1076,-0.62,-0.385,
1077,-0.62,-0.38,
1078,-0.63,-0.395,
1079,-0.62,-0.41,
1080,-0.62,-0.4,
1081,-0.605,-0.39,
1082,-0.595,-0.38,
1083,-0.595,-0.375,
1084,-0.605,-0.365,
1085,-0.605,-0.365,
1086,-0.585,-0.37,
1087,-0.6,-0.385,
1088,-0.6,-0.405,
1089,-0.605,-0.4,
1090,-0.59,-0.405,
1091,-0.6,-0.405,
1092,-0.61,-0.4,
1093,-0.615,-0.385,
1094,-0.61,-0.38,
1095,-0.61,-0.37,
1096,-0.61,-0.365,
1097,-0.6,-0.37,
1098,-0.615,-0.375,
1099,-0.62,-0.38,
1100,-0.63,-0.39,
1101,-0.63,-0.4,
1102,-0.635,-0.395,
1103,-0.635,-0.395,
1104,-0.64,-0.39,
1105,-0.635,-0.395,
1106,-0.64,-0.38,
1107,-0.645,-0.38,
1108,-0.645,-0.365,
1109,-0.645,-0.35,
1110,-0.645,-0.365,
1111,-0.655,-0.37,
1112,-0.67,-0.39,
1113,-0.675,-0.395,
1114,-0.67,-0.41,
1115,-0.68,-0.41,
1116,-0.685,-0.405,
1117,-0.685,-0.395,
1118,-0.7,-0.38,
1119,-0.68,-0.37,
1120,-0.675,-0.375,
1121,-0.67,-0.365,
1122,-0.675,-0.37,
1123,-0.67,-0.385,
1124,-0.675,-0.4,
1125,-0.69,-0.395,
1126,-0.685,-0.4,
1127,-0.705,-0.39,
1128,-0.7,-0.39,
1129,-0.705,-0.385,
1130,-0.685,-0.375,
1131,-0.69,-0.385,
1132,-0.68,-0.375,
1133,-0.68,-0.375,
1134,-0.685,-0.38,
1135,-0.685,-0.375,
1136,-0.69,-0.385,
1137,-0.695,-0.395,
1138,-0.705,-0.405,
1139,-0.71,-0.395,
1140,-0.715,-0.405,
1141,-0.705,-0.395,
1142,-0.705,-0.385,
1143,-0.7,-0.375,
1144,-0.7,-0.38,
1145,-0.695,-0.365,
1146,-0.705,-0.37,
1147,-0.7,-0.38,
1148,-0.695,-0.395,
1149,-0.7,-0.395,
1150,-0.71,-0.4,
1151,-0.72,-0.4,
1152,-0.715,-0.385,
1153,-0.725,-0.385,
1154,-0.715,-0.37,
1155,-0.705,-0.38,
1156,-0.695,-0.375,
1157,-0.7,-0.375,
1158,-0.71,-0.375,
1159,-0.705,-0.37,
1160,-0.715,-0.38,
1161,-0.715,-0.39,
1162,-0.72,-0.385,
1163,-0.715,-0.39,
1164,-0.72,-0.41,
1165,-0.71,-0.4,
1166,-0.7,-0.395,
1167,-0.685,-0.365,
1168,-0.675,-0.36,
1169,-0.655,-0.355,
1170,-0.655,-0.355,
1171,-0.64,-0.355,
1172,-0.63,-0.37,
1173,-0.62,-0.37,
1174,-0.605,-0.37,
1175,-0.595,-0.36,
1176,-0.585,-0.34,
1177,-0.575,-0.325,
1178,-0.57,-0.305,
1179,-0.54,-0.315,
1180,-0.53,-0.325,
1181,-0.53,-0.35,
1182,-0.545,-0.37,
1183,-0.57,-0.395,
1184,-0.585,-0.41,
1185,-0.595,-0.42,
1186,-0.615,-0.425,
1187,-0.61,-0.43,
1188,-0.605,-0.415,
1189,-0.61,-0.405,
1190,-0.615,-0.405,
1191,-0.625,-0.385,
1192,-0.64,-0.37,
1193,-0.655,-0.37,
1194,-0.69,-0.36,
1195,-0.715,-0.375,
1196,-0.71,-0.385,
1197,-0.715,-0.41,
1198,-0.71,-0.415,
1199,-0.715,-0.42,
1200,-0.705,-0.41,
1201,-0.7,-0.405,
1202,-0.675,-0.39,
1203,-0.655,-0.385,
1204,-0.625,-0.37,
1205,-0.6,-0.385,
1206,-0.545,-0.375,
1207,-0.485,-0.365,
1208,-0.375,-0.335,
1209,-0.17,-0.31,
1210,0.095,-0.265,
1211,0.43,-0.235,
1212,0.815,-0.23,
1213,1.16,-0.265,N
1214,1.37,-0.345,
1215,1.4,-0.455,
1216,1.22,-0.585,
1217,0.79,-0.73,
1218,0.15,-0.905,
1219,-0.49,-1.035,
1220,-1.13,-1.09,
1221,-1.535,-1.08,
1222,-1.55,-0.995,
1223,-1.385,-0.875,
1224,-1.16,-0.765,
1225,-0.965,-0.655,
1226,-0.84,-0.58,
1227,-0.815,-0.53,
1228,-0.825,-0.495,
1229,-0.835,-0.465,
1230,-0.84,-0.45,
1231,-0.83,-0.435,
1232,-0.82,-0.415,
1233,-0.805,-0.415,
1234,-0.805,-0.395,
1235,-0.805,-0.39,
1236,-0.81,-0.39,
1237,-0.81,-0.385,
1238,-0.815,-0.375,
1239,-0.815,-0.37,
1240,-0.815,-0.355,
1241,-0.805,-0.33,
1242,-0.8,-0.335,
1243,-0.8,-0.34,
1244,-0.805,-0.35,
1245,-0.805,-0.365,
1246,-0.815,-0.37,
1247,-0.805,-0.375,
1248,-0.81,-0.365,
1249,-0.8,-0.36,
1250,-0.805,-0.33,
1251,-0.78,-0.325,
1252,-0.775,-0.31,
1253,-0.765,-0.315,
1254,-0.77,-0.335,
1255,-0.765,-0.345,
1256,-0.755,-0.34,
1257,-0.765,-0.345,
1258,-0.765,-0.35,
1259,-0.775,-0.345,
1260,-0.77,-0.335,
1261,-0.765,-0.325,
1262,-0.755,-0.325,
1263,-0.735,-0.325,
1264,-0.72,-0.315,
1265,-0.71,-0.31,
1266,-0.715,-0.315,
1267,-0.695,-0.31,
1268,-0.7,-0.315,
1269,-0.705,-0.315,
1270,-0.695,-0.34,
1271,-0.7,-0.325,
1272,-0.685,-0.34,
1273,-0.67,-0.335,
1274,-0.675,-0.32,
1275,-0.67,-0.305,
1276,-0.66,-0.285,
1277,-0.645,-0.285,
1278,-0.64,-0.305,
1279,-0.64,-0.31,
1280,-0.63,-0.32,
1281,-0.625,-0.325,
1282,-0.635,-0.32,
1283,-0.625,-0.31,
1284,-0.615,-0.315,
1285,-0.605,-0.31,
1286,-0.59,-0.31,
1287,-0.575,-0.29,
1288,-0.56,-0.295,
1289,-0.565,-0.3,
1290,-0.56,-0.285,
1291,-0.56,-0.29,
1292,-0.565,-0.29,
1293,-0.55,-0.29,
1294,-0.565,-0.305,
1295,-0.56,-0.295,
1296,-0.55,-0.305,
1297,-0.545,-0.305,
1298,-0.535,-0.3,
1299,-0.53,-0.285,
1300,-0.515,-0.265,
1301,-0.51,-0.275,
1302,-0.515,-0.275,
1303,-0.515,-0.275,
1304,-0.51,-0.285,
1305,-0.515,-0.31,
1306,-0.51,-0.305,
1307,-0.51,-0.305,
1308,-0.5,-0.305,
1309,-0.505,-0.3,
1310,-0.495,-0.29,
1311,-0.475,-0.29,
1312,-0.47,-0.28,
1313,-0.445,-0.29,
1314,-0.435,-0.295,
1315,-0.425,-0.315,
1316,-0.42,-0.31,
1317,-0.42,-0.33,
1318,-0.42,-0.335,
1319,-0.41,-0.335,
1320,-0.415,-0.33,
1321,-0.41,-0.335,
1322,-0.4,-0.345,
1323,-0.39,-0.35,
1324,-0.405,-0.355,
1325,-0.42,-0.36,
1326,-0.425,-0.365,
1327,-0.445,-0.365,
1328,-0.475,-0.38,
1329,-0.49,-0.39,
1330,-0.515,-0.385,
1331,-0.52,-0.39,
1332,-0.54,-0.4,
1333,-0.565,-0.385,
1334,-0.58,-0.385,
1335,-0.58,-0.38,
1336,-0.58,-0.37,
1337,-0.58,-0.38,
1338,-0.6,-0.375,
1339,-0.61,-0.39,
1340,-0.62,-0.4,
1341,-0.635,-0.4,
1342,-0.635,-0.395,
1343,-0.655,-0.39,
1344,-0.655,-0.39,
1345,-0.66,-0.385,
1346,-0.655,-0.37,
1347,-0.66,-0.37,
1348,-0.66,-0.37,
1349,-0.655,-0.37,
1350,-0.67,-0.395,
1351,-0.66,-0.38,
1352,-0.675,-0.38,
1353,-0.67,-0.385,
1354,-0.685,-0.39,
1355,-0.68,-0.395,
1356,-0.68,-0.39,
1357,-0.66,-0.395,
1358,-0.67,-0.385,
1359,-0.655,-0.375,
1360,-0.65,-0.37,
1361,-0.645,-0.355,
1362,-0.65,-0.375,
1363,-0.64,-0.375,
1364,-0.64,-0.38,
1365,-0.655,-0.385,
1366,-0.655,-0.39,
1367,-0.64,-0.39,
1368,-0.64,-0.375,
1369,-0.63,-0.37,
1370,-0.62,-0.355,
1371,-0.62,-0.35,
1372,-0.59,-0.355,
1373,-0.59,-0.36,
1374,-0.595,-0.375,
1375,-0.605,-0.38,
1376,-0.6,-0.385,
1377,-0.6,-0.395,
1378,-0.605,-0.395,
1379,-0.605,-0.38,
1380,-0.595,-0.375,
1381,-0.6,-0.365,
1382,-0.6,-0.355,
1383,-0.59,-0.365,
1384,-0.59,-0.355,
1385,-0.575,-0.365,
1386,-0.57,-0.38,
1387,-0.57,-0.375,
1388,-0.585,-0.375,
1389,-0.585,-0.385,
1390,-0.585,-0.395,
1391,-0.595,-0.385,
1392,-0.595,-0.38,
1393,-0.595,-0.375,
1394,-0.59,-0.38,
1395,-0.59,-0.37,
1396,-0.58,-0.37,
1397,-0.58,-0.36,
1398,-0.585,-0.365,
1399,-0.585,-0.375,
1400,-0.595,-0.38,
1401,-0.605,-0.4,
1402,-0.625,-0.395,
1403,-0.625,-0.405,
1404,-0.635,-0.395,
1405,-0.63,-0.385,
1406,-0.63,-0.37,
1407,-0.63,-0.365,
1408,-0.625,-0.36,
1409,-0.62,-0.37,
1410,-0.62,-0.38,
1411,-0.62,-0.38,
1412,-0.635,-0.395,
1413,-0.645,-0.395,
1414,-0.66,-0.38,
1415,-0.665,-0.39,
1416,-0.665,-0.38,
1417,-0.68,-0.385,
1418,-0.67,-0.365,
1419,-0.655,-0.365,
1420,-0.66,-0.365,
1421,-0.65,-0.36,
1422,-0.665,-0.37,
1423,-0.66,-0.365,
1424,-0.665,-0.375,
1425,-0.675,-0.385,
1426,-0.685,-0.4,
1427,-0.68,-0.4,
1428,-0.69,-0.39,
1429,-0.685,-0.385,
1430,-0.685,-0.375,
1431,-0.68,-0.355,
1432,-0.675,-0.35,
1433,-0.66,-0.36,
1434,-0.655,-0.375,
1435,-0.66,-0.38,
1436,-0.675,-0.38,
1437,-0.675,-0.385,
1438,-0.69,-0.395,
1439,-0.685,-0.39,
1440,-0.7,-0.385,
1441,-0.7,-0.375,
1442,-0.695,-0.375,
1443,-0.68,-0.365,
1444,-0.68,-0.36,
1445,-0.68,-0.355,
1446,-0.685,-0.365,
1447,-0.68,-0.375,
1448,-0.68,-0.38,
1449,-0.69,-0.385,
1450,-0.69,-0.375,
1451,-0.7,-0.41,
1452,-0.7,-0.4,
1453,-0.695,-0.385,
1454,-0.695,-0.37,
1455,-0.695,-0.36,
1456,-0.7,-0.345,
1457,-0.67,-0.335,
1458,-0.685,-0.365,
1459,-0.68,-0.375,
1460,-0.68,-0.37,
1461,-0.685,-0.4,
1462,-0.69,-0.385,
1463,-0.695,-0.385,
1464,-0.705,-0.38,
1465,-0.685,-0.375,
1466,-0.675,-0.365,
1467,-0.67,-0.36,
1468,-0.665,-0.36,
1469,-0.65,-0.36,
1470,-0.65,-0.37,
1471,-0.635,-0.36,
1472,-0.64,-0.37,
1473,-0.635,-0.38,
1474,-0.635,-0.385,
1475,-0.625,-0.375,
1476,-0.62,-0.37,
1477,-0.59,-0.355,
1478,-0.58,-0.335,
1479,-0.555,-0.31,
1480,-0.55,-0.29,
1481,-0.525,-0.3,
1482,-0.53,-0.315,
1483,-0.53,-0.355,
1484,-0.535,-0.385,
1485,-0.56,-0.41,
1486,-0.575,-0.435,
1487,-0.595,-0.43,
1488,-0.595,-0.42,
1489,-0.605,-0.41,
1490,-0.59,-0.395,
1491,-0.595,-0.38,
1492,-0.585,-0.375,
1493,-0.595,-0.375,
1494,-0.615,-0.38,
1495,-0.625,-0.375,
1496,-0.66,-0.38,
1497,-0.665,-0.375,
1498,-0.69,-0.39,
1499,-0.685,-0.395,
1500,-0.69,-0.39,
1501,-0.67,-0.395,
1502,-0.665,-0.39,
1503,-0.655,-0.37,
1504,-0.635,-0.37,
1505,-0.62,-0.36,
1506,-0.62,-0.36,
1507,-0.605,-0.37,
1508,-0.58,-0.37,
1509,-0.555,-0.38,
1510,-0.52,-0.38,
1511,-0.45,-0.365,
1512,-0.32,-0.33,
1513,-0.14,-0.28,
1514,0.105,-0.225,
1515,0.415,-0.2,
1516,0.73,-0.18,
1517,1.01,-0.205,
1518,1.195,-0.285,N
1519,1.25,-0.395,
1520,1.145,-0.55,
1521,0.855,-0.71,
1522,0.4,-0.88,
1523,-0.15,-1.035,
1524,-0.7,-1.125,
1525,-1.105,-1.145,
1526,-1.29,-1.105,
1527,-1.27,-1.005,
1528,-1.115,-0.9,
1529,-0.945,-0.8,
1530,-0.845,-0.715,
1531,-0.775,-0.635,
1532,-0.77,-0.585,
1533,-0.805,-0.555,
1534,-0.82,-0.525,
1535,-0.835,-0.5,
1536,-0.815,-0.48,
1537,-0.8,-0.445,
1538,-0.765,-0.415,
1539,-0.755,-0.395,
1540,-0.75,-0.36,
1541,-0.745,-0.355,
1542,-0.76,-0.345,
1543,-0.78,-0.345,
1544,-0.8,-0.355,
1545,-0.81,-0.35,
1546,-0.82,-0.36,
1547,-0.82,-0.365,
1548,-0.815,-0.34,
1549,-0.815,-0.33,
1550,-0.795,-0.32,
1551,-0.79,-0.32,
1552,-0.785,-0.325,
1553,-0.77,-0.31,
1554,-0.775,-0.32,
1555,-0.76,-0.31,
1556,-0.775,-0.32,
1557,-0.77,-0.32,
1558,-0.77,-0.325,
1559,-0.765,-0.33,
1560,-0.76,-0.33,
1561,-0.76,-0.315,
1562,-0.755,-0.325,
1563,-0.745,-0.31,
1564,-0.745,-0.305,
1565,-0.73,-0.29,
1566,-0.715,-0.295,
1567,-0.705,-0.29,
1568,-0.715,-0.305,
1569,-0.71,-0.32,
1570,-0.71,-0.325,
1571,-0.71,-0.325,
1572,-0.7,-0.315,
1573,-0.69,-0.31,
1574,-0.69,-0.3,
1575,-0.675,-0.285,
1576,-0.67,-0.285,
1577,-0.655,-0.29,
1578,-0.64,-0.295,
1579,-0.645,-0.3,
1580,-0.645,-0.295,
1581,-0.64,-0.295,
1582,-0.65,-0.3,
1583,-0.645,-0.295,
1584,-0.635,-0.295,
1585,-0.635,-0.295,
1586,-0.61,-0.3,
1587,-0.6,-0.3,
1588,-0.6,-0.285,
1589,-0.58,-0.28,
1590,-0.585,-0.29,
1591,-0.58,-0.275,
1592,-0.58,-0.285,
1593,-0.575,-0.295,
1594,-0.58,-0.305,
1595,-0.585,-0.3,
1596,-0.565,-0.3,
1597,-0.565,-0.295,
1598,-0.555,-0.285,
1599,-0.54,-0.27,
1600,-0.53,-0.26,
1601,-0.505,-0.26,
1602,-0.515,-0.27,
1603,-0.505,-0.275,
1604,-0.495,-0.28,
1605,-0.505,-0.285,
1606,-0.515,-0.295,
1607,-0.51,-0.29,
1608,-0.505,-0.275,
1609,-0.51,-0.26,
1610,-0.49,-0.265,
1611,-0.485,-0.25,
1612,-0.465,-0.265,
1613,-0.455,-0.26,
1614,-0.45,-0.275,
1615,-0.46,-0.28,
1616,-0.455,-0.29,
1617,-0.455,-0.29,
1618,-0.455,-0.29,
1619,-0.455,-0.285,
1620,-0.44,-0.285,
1621,-0.42,-0.29,
1622,-0.395,-0.29,
1623,-0.38,-0.295,
1624,-0.35,-0.285,
1625,-0.335,-0.29,
1626,-0.33,-0.305,
1627,-0.33,-0.315,
1628,-0.335,-0.325,
1629,-0.35,-0.345,
1630,-0.38,-0.355,
1631,-0.39,-0.36,
1632,-0.4,-0.36,
1633,-0.415,-0.355,
1634,-0.445,-0.355,
1635,-0.44,-0.35,
1636,-0.445,-0.35,
1637,-0.465,-0.35,
1638,-0.475,-0.37,
1639,-0.49,-0.385,
1640,-0.505,-0.38,
1641,-0.53,-0.38,
1642,-0.545,-0.38,
1643,-0.56,-0.38,
1644,-0.575,-0.36,
1645,-0.585,-0.355,
1646,-0.595,-0.365,
1647,-0.605,-0.355,
1648,-0.605,-0.355,
1649,-0.605,-0.35,
1650,-0.615,-0.36,
1651,-0.61,-0.355,
1652,-0.625,-0.37,
1653,-0.635,-0.375,
1654,-0.655,-0.37,
1655,-0.655,-0.38,
1656,-0.655,-0.375,
1657,-0.65,-0.365,
1658,-0.65,-0.36,
1659,-0.65,-0.355,
1660,-0.64,-0.35,
1661,-0.635,-0.355,
1662,-0.625,-0.35,
1663,-0.63,-0.365,
1664,-0.635,-0.38,
1665,-0.645,-0.385,
1666,-0.64,-0.385,
1667,-0.635,-0.38,
1668,-0.635,-0.36,
1669,-0.63,-0.355,
1670,-0.62,-0.345,
1671,-0.61,-0.345,
1672,-0.59,-0.35,
1673,-0.59,-0.34,
1674,-0.585,-0.36,
1675,-0.58,-0.36,
1676,-0.59,-0.375,
1677,-0.595,-0.36,
1678,-0.595,-0.37,
1679,-0.59,-0.38,
1680,-0.59,-0.375,
1681,-0.59,-0.36,
1682,-0.575,-0.365,
1683,-0.565,-0.355,
1684,-0.565,-0.345,
1685,-0.555,-0.34,
1686,-0.57,-0.35,
1687,-0.565,-0.355,
1688,-0.575,-0.38,
1689,-0.585,-0.38,
1690,-0.585,-0.38,
1691,-0.59,-0.39,
1692,-0.59,-0.37,
1693,-0.59,-0.365,
1694,-0.58,-0.36,
1695,-0.575,-0.35,
1696,-0.58,-0.35,
1697,-0.565,-0.35,
1698,-0.57,-0.37,
1699,-0.575,-0.37,
1700,-0.58,-0.375,
1701,-0.59,-0.375,
1702,-0.595,-0.39,
1703,-0.605,-0.38,
1704,-0.605,-0.375,
1705,-0.615,-0.37,
1706,-0.615,-0.37,
1707,-0.62,-0.36,
1708,-0.62,-0.355,
1709,-0.615,-0.36,
1710,-0.615,-0.36,
1711,-0.615,-0.37,
1712,-0.62,-0.38,
1713,-0.62,-0.39,
1714,-0.64,-0.4,
1715,-0.655,-0.395,
1716,-0.665,-0.385,
1717,-0.67,-0.375,
1718,-0.67,-0.365,
1719,-0.67,-0.365,
1720,-0.67,-0.36,
1721,-0.65,-0.365,
1722,-0.645,-0.375,
1723,-0.655,-0.38,
1724,-0.66,-0.38,
1725,-0.66,-0.38,
1726,-0.665,-0.385,
1727,-0.675,-0.38,
1728,-0.69,-0.38,
1729,-0.68,-0.38,
1730,-0.675,-0.365,
1731,-0.68,-0.37,
1732,-0.665,-0.355,
1733,-0.67,-0.36,
1734,-0.67,-0.355,
1735,-0.665,-0.365,
1736,-0.66,-0.38,
1737,-0.7,-0.385,
1738,-0.7,-0.39,
1739,-0.685,-0.39,
1740,-0.7,-0.38,
1741,-0.69,-0.375,
1742,-0.69,-0.37,
1743,-0.69,-0.355,
1744,-0.69,-0.36,
1745,-0.675,-0.36,
1746,-0.665,-0.37,
1747,-0.675,-0.385,
1748,-0.675,-0.385,
1749,-0.685,-0.39,
1750,-0.69,-0.38,
1751,-0.685,-0.39,
1752,-0.685,-0.375,
1753,-0.7,-0.37,
1754,-0.685,-0.38,
1755,-0.68,-0.375,
1756,-0.68,-0.365,
1757,-0.675,-0.36,
1758,-0.68,-0.375,
1759,-0.68,-0.37,
1760,-0.69,-0.38,
1761,-0.685,-0.385,
1762,-0.69,-0.4,
1763,-0.685,-0.405,
1764,-0.68,-0.39,
1765,-0.69,-0.38,
1766,-0.685,-0.37,
1767,-0.675,-0.355,
1768,-0.665,-0.35,
1769,-0.645,-0.35,
1770,-0.635,-0.36,
1771,-0.635,-0.375,
1772,-0.61,-0.375,
1773,-0.605,-0.375,
1774,-0.605,-0.365,
1775,-0.585,-0.35,
1776,-0.575,-0.325,
1777,-0.56,-0.335,
1778,-0.555,-0.315,
1779,-0.535,-0.315,
1780,-0.53,-0.325,
1781,-0.535,-0.335,
1782,-0.545,-0.375,
1783,-0.565,-0.385,
1784,-0.595,-0.41,
1785,-0.595,-0.435,
1786,-0.615,-0.435,
1787,-0.61,-0.43,
1788,-0.61,-0.43,
1789,-0.615,-0.41,
1790,-0.605,-0.4,
1791,-0.61,-0.38,
1792,-0.615,-0.36,
1793,-0.63,-0.37,
1794,-0.645,-0.38,
1795,-0.665,-0.39,
1796,-0.675,-0.405,
1797,-0.695,-0.4,
1798,-0.7,-0.405,
1799,-0.705,-0.405,
1800,-0.705,-0.385,
1801,-0.69,-0.39,
1802,-0.665,-0.38,
1803,-0.67,-0.375,
1804,-0.655,-0.39,
1805,-0.635,-0.385,
1806,-0.62,-0.385,
1807,-0.605,-0.385,
1808,-0.57,-0.38,
1809,-0.515,-0.375,
1810,-0.425,-0.37,
1811,-0.27,-0.35,
1812,-0.035,-0.305,
1813,0.27,-0.265,
1814,0.655,-0.24,
1815,1.03,-0.225,
1816,1.325,-0.265,N
1817,1.485,-0.335,
1818,1.47,-0.455,
1819,1.275,-0.59,
1820,0.885,-0.74,
1821,0.305,-0.885,
1822,-0.335,-0.995,
1823,-0.975,-1.065,
1824,-1.415,-1.08,
1825,-1.575,-1.025,
1826,-1.475,-0.95,
1827,-1.26,-0.845,
1828,-1.025,-0.77,
1829,-0.875,-0.705,
1830,-0.8,-0.645,
1831,-0.81,-0.59,
1832,-0.855,-0.545,
1833,-0.9,-0.51,
1834,-0.9,-0.48,
1835,-0.88,-0.47,
1836,-0.835,-0.43,
1837,-0.8,-0.42,
1838,-0.78,-0.39,
1839,-0.775,-0.38,
1840,-0.775,-0.37,
1841,-0.785,-0.365,
1842,-0.8,-0.365,
1843,-0.81,-0.36,
1844,-0.815,-0.365,
1845,-0.825,-0.35,
1846,-0.815,-0.36,
1847,-0.83,-0.37,
1848,-0.825,-0.36,
1849,-0.82,-0.345,
1850,-0.805,-0.335,
1851,-0.8,-0.335,
1852,-0.795,-0.31,
1853,-0.78,-0.305,
1854,-0.77,-0.32,
1855,-0.765,-0.33,
1856,-0.755,-0.335,
1857,-0.765,-0.35,
1858,-0.775,-0.355,
1859,-0.76,-0.355,
1860,-0.77,-0.34,
1861,-0.76,-0.33,
1862,-0.755,-0.33,
1863,-0.745,-0.315,
1864,-0.73,-0.31,
1865,-0.72,-0.315,
1866,-0.715,-0.325,
1867,-0.71,-0.325,
1868,-0.71,-0.325,
1869,-0.71,-0.315,
1870,-0.7,-0.325,
1871,-0.705,-0.33,
1872,-0.695,-0.325,
1873,-0.69,-0.33,
1874,-0.68,-0.32,
1875,-0.675,-0.305,
1876,-0.67,-0.305,
1877,-0.665,-0.285,
1878,-0.665,-0.295,
1879,-0.66,-0.305,
1880,-0.66,-0.315,
1881,-0.67,-0.325,
1882,-0.655,-0.345,
1883,-0.66,-0.345,
1884,-0.65,-0.335,
1885,-0.64,-0.315,
1886,-0.635,-0.3,
1887,-0.625,-0.3,
1888,-0.62,-0.28,
1889,-0.595,-0.29,
1890,-0.595,-0.305,
1891,-0.6,-0.3,
1892,-0.6,-0.31,
1893,-0.6,-0.31,
1894,-0.605,-0.31,
1895,-0.595,-0.315,
1896,-0.595,-0.295,
1897,-0.585,-0.285,
1898,-0.575,-0.3,
1899,-0.555,-0.29,
1900,-0.55,-0.275,
1901,-0.535,-0.28,
1902,-0.53,-0.29,
1903,-0.53,-0.28,
1904,-0.535,-0.28,
1905,-0.54,-0.29,
1906,-0.55,-0.285,
1907,-0.57,-0.28,
1908,-0.57,-0.285,
1909,-0.56,-0.295,
1910,-0.565,-0.285,
1911,-0.54,-0.29,
1912,-0.525,-0.27,
1913,-0.515,-0.275,
1914,-0.51,-0.28,
1915,-0.505,-0.28,
1916,-0.49,-0.3,
1917,-0.485,-0.29,
1918,-0.495,-0.31,
1919,-0.495,-0.305,
1920,-0.475,-0.305,
1921,-0.465,-0.31,
1922,-0.455,-0.3,
1923,-0.425,-0.3,
1924,-0.405,-0.305,
1925,-0.39,-0.325,
1926,-0.38,-0.33,
1927,-0.385,-0.34,
1928,-0.39,-0.35,
1929,-0.415,-0.35,
1930,-0.435,-0.36,
1931,-0.455,-0.36,
1932,-0.465,-0.365,
1933,-0.485,-0.365,
1934,-0.5,-0.365,
1935,-0.51,-0.365,
1936,-0.525,-0.36,
1937,-0.535,-0.35,
1938,-0.545,-0.36,
1939,-0.555,-0.37,
1940,-0.57,-0.375,
1941,-0.58,-0.39,
1942,-0.605,-0.39,
1943,-0.6,-0.39,
1944,-0.625,-0.38,
1945,-0.625,-0.38,
1946,-0.635,-0.37,
1947,-0.645,-0.36,
1948,-0.66,-0.355,
1949,-0.66,-0.345,
1950,-0.66,-0.365,
1951,-0.67,-0.365,
1952,-0.675,-0.385,
1953,-0.67,-0.39,
1954,-0.675,-0.385,
1955,-0.7,-0.38,
1956,-0.695,-0.375,
1957,-0.68,-0.365,
1958,-0.66,-0.37,
1959,-0.665,-0.36,
1960,-0.65,-0.355,
1961,-0.64,-0.365,
1962,-0.645,-0.37,
1963,-0.65,-0.36,
1964,-0.65,-0.37,
1965,-0.675,-0.37,
1966,-0.68,-0.37,
1967,-0.675,-0.38,
1968,-0.67,-0.37,
1969,-0.66,-0.375,
1970,-0.655,-0.36,
1971,-0.625,-0.37,
1972,-0.615,-0.345,
1973,-0.615,-0.34,
1974,-0.605,-0.345,
1975,-0.6,-0.355,
1976,-0.59,-0.36,
1977,-0.6,-0.375,
1978,-0.615,-0.375,
1979,-0.605,-0.38,
1980,-0.615,-0.365,
1981,-0.62,-0.365,
1982,-0.61,-0.36,
1983,-0.605,-0.35,
1984,-0.595,-0.34,
1985,-0.59,-0.345,
1986,-0.58,-0.36,
1987,-0.56,-0.365,
1988,-0.555,-0.365,
1989,-0.575,-0.39,
1990,-0.58,-0.375,
1991,-0.59,-0.365,
1992,-0.58,-0.365,
1993,-0.575,-0.365,
1994,-0.59,-0.355,
1995,-0.585,-0.355,
1996,-0.565,-0.37,
1997,-0.585,-0.355,
1998,-0.59,-0.365,
1999,-0.59,-0.36,
2000,-0.59,-0.38,
2001,-0.595,-0.38,
2002,-0.61,-0.385,
2003,-0.61,-0.39,
2004,-0.615,-0.385,
2005,-0.625,-0.38,
2006,-0.625,-0.375,
2007,-0.625,-0.355,
2008,-0.63,-0.35,
2009,-0.625,-0.36,
2010,-0.615,-0.37,
2011,-0.62,-0.365,
2012,-0.625,-0.385,
2013,-0.635,-0.39,
2014,-0.65,-0.39,
2015,-0.64,-0.39,
2016,-0.645,-0.38,
2017,-0.65,-0.375,
2018,-0.65,-0.37,
2019,-0.645,-0.365,
2020,-0.655,-0.365,
2021,-0.66,-0.36,
2022,-0.655,-0.37,
2023,-0.67,-0.355,
2024,-0.665,-0.37,
2025,-0.695,-0.37,
2026,-0.685,-0.39,
2027,-0.68,-0.39,
2028,-0.68,-0.375,
2029,-0.68,-0.38,
2030,-0.68,-0.37,
2031,-0.675,-0.355,
2032,-0.67,-0.345,
2033,-0.67,-0.35,
2034,-0.68,-0.36,
2035,-0.67,-0.365,
2036,-0.69,-0.375,
2037,-0.7,-0.385,
2038,-0.695,-0.385,
2039,-0.71,-0.39,
2040,-0.71,-0.375,
2041,-0.72,-0.365,
2042,-0.705,-0.365,
2043,-0.685,-0.35,
2044,-0.69,-0.35,
2045,-0.665,-0.355,
2046,-0.665,-0.36,
2047,-0.67,-0.365,
2048,-0.68,-0.365,
2049,-0.69,-0.375,
2050,-0.695,-0.385,
2051,-0.705,-0.385,
2052,-0.715,-0.37,
2053,-0.705,-0.375,
2054,-0.7,-0.365,
2055,-0.7,-0.36,
2056,-0.685,-0.355,
2057,-0.685,-0.355,
2058,-0.685,-0.36,
2059,-0.695,-0.365,
2060,-0.685,-0.365,
2061,-0.69,-0.375,
2062,-0.7,-0.39,
2063,-0.695,-0.39,
2064,-0.705,-0.39,
2065,-0.71,-0.38,
2066,-0.705,-0.355,
2067,-0.69,-0.36,
2068,-0.675,-0.355,
2069,-0.645,-0.35,
2070,-0.645,-0.37,
2071,-0.635,-0.365,
2072,-0.625,-0.37,
2073,-0.61,-0.36,
2074,-0.615,-0.365,
2075,-0.595,-0.36,
2076,-0.59,-0.355,
2077,-0.575,-0.335,
2078,-0.555,-0.335,
2079,-0.545,-0.315,
2080,-0.54,-0.31,
2081,-0.53,-0.31,
2082,-0.525,-0.335,
2083,-0.53,-0.345,
2084,-0.56,-0.375,
2085,-0.565,-0.395,
2086,-0.58,-0.42,
2087,-0.59,-0.435,
2088,-0.59,-0.415,
2089,-0.595,-0.41,
2090,-0.585,-0.39,
2091,-0.58,-0.375,
2092,-0.59,-0.365,
2093,-0.6,-0.365,
2094,-0.605,-0.375,
2095,-0.625,-0.37,
2096,-0.65,-0.385,
2097,-0.675,-0.4,
2098,-0.69,-0.405,
2099,-0.705,-0.4,
2100,-0.705,-0.395,
2101,-0.705,-0.385,
2102,-0.675,-0.38,
2103,-0.68,-0.38,
2104,-0.67,-0.375,
2105,-0.655,-0.37,
2106,-0.655,-0.385,
2107,-0.65,-0.375,
2108,-0.65,-0.385,
2109,-0.64,-0.38,
2110,-0.635,-0.39,
2111,-0.605,-0.395,
2112,-0.56,-0.375,
2113,-0.465,-0.36,
2114,-0.345,-0.33,
2115,-0.175,-0.3,
2116,0.075,-0.245,
2117,0.37,-0.205,
2118,0.73,-0.2,
2119,1.09,-0.2,
2120,1.38,-0.26,
2121,1.54,-0.335,N
2122,1.56,-0.44,
2123,1.43,-0.56,
2124,1.1,-0.695,
2125,0.55,-0.82,
2126,-0.09,-0.93,
2127,-0.73,-1.02,
2128,-1.37,-1.04,
2129,-1.725,-0.995,
2130,-1.645,-0.925,
2131,-1.385,-0.83,
2132,-1.115,-0.74,
2133,-0.915,-0.66,
2134,-0.84,-0.605,
2135,-0.805,-0.55,
2136,-0.835,-0.495,
2137,-0.855,-0.475,
2138,-0.855,-0.435,
2139,-0.82,-0.42,
2140,-0.785,-0.385,
2141,-0.75,-0.37,
2142,-0.755,-0.365,
2143,-0.76,-0.35,
2144,-0.78,-0.355,
2145,-0.815,-0.365,
2146,-0.82,-0.365,
2147,-0.84,-0.365,
2148,-0.835,-0.36,
2149,-0.825,-0.36,
2150,-0.815,-0.345,
2151,-0.79,-0.33,
2152,-0.775,-0.32,
2153,-0.76,-0.315,
2154,-0.75,-0.315,
2155,-0.75,-0.31,
2156,-0.75,-0.335,
2157,-0.76,-0.33,
2158,-0.79,-0.34,
2159,-0.78,-0.335,
2160,-0.775,-0.335,
2161,-0.775,-0.325,
2162,-0.765,-0.325,
2163,-0.75,-0.315,
2164,-0.74,-0.31,
2165,-0.73,-0.31,
2166,-0.71,-0.32,
2167,-0.7,-0.33,
2168,-0.705,-0.315,
2169,-0.705,-0.325,
2170,-0.71,-0.32,
2171,-0.71,-0.315,
2172,-0.72,-0.31,
2173,-0.71,-0.31,
2174,-0.7,-0.315,
2175,-0.69,-0.315,
2176,-0.68,-0.305,
2177,-0.665,-0.295,
2178,-0.67,-0.305,
2179,-0.675,-0.295,
2180,-0.66,-0.31,
2181,-0.65,-0.305,
2182,-0.65,-0.32,
2183,-0.65,-0.32,
2184,-0.63,-0.315,
2185,-0.635,-0.315,
2186,-0.62,-0.3,
2187,-0.62,-0.29,
2188,-0.615,-0.275,
2189,-0.61,-0.27,
2190,-0.595,-0.275,
2191,-0.59,-0.29,
2192,-0.6,-0.3,
2193,-0.585,-0.31,
2194,-0.595,-0.315,
2195,-0.59,-0.315,
2196,-0.6,-0.295,
2197,-0.585,-0.28,
2198,-0.57,-0.28,
2199,-0.55,-0.28,
2200,-0.545,-0.27,
2201,-0.535,-0.27,
2202,-0.53,-0.295,
2203,-0.545,-0.295,
2204,-0.54,-0.29,
2205,-0.555,-0.295,
2206,-0.56,-0.285,
2207,-0.57,-0.28,
2208,-0.57,-0.285,
2209,-0.565,-0.285,
2210,-0.545,-0.28,
2211,-0.535,-0.27,
2212,-0.535,-0.275,
2213,-0.515,-0.255,
2214,-0.525,-0.265,
2215,-0.525,-0.265,
2216,-0.515,-0.27,
2217,-0.52,-0.285,
2218,-0.52,-0.295,
2219,-0.51,-0.3,
2220,-0.53,-0.295,
2221,-0.525,-0.29,
2222,-0.5,-0.27,
2223,-0.49,-0.28,
2224,-0.465,-0.265,
2225,-0.44,-0.265,
2226,-0.42,-0.295,
2227,-0.41,-0.305,
2228,-0.405,-0.325,
2229,-0.39,-0.345,
2230,-0.385,-0.345,
2231,-0.395,-0.35,
2232,-0.405,-0.35,
2233,-0.41,-0.32,
2234,-0.415,-0.335,
2235,-0.42,-0.335,
2236,-0.44,-0.34,
2237,-0.445,-0.335,
2238,-0.455,-0.36,
2239,-0.475,-0.35,
2240,-0.49,-0.37,
2241,-0.525,-0.365,
2242,-0.55,-0.37,
2243,-0.57,-0.385,
2244,-0.575,-0.38,
2245,-0.585,-0.385,
2246,-0.575,-0.37,
2247,-0.59,-0.365,
2248,-0.6,-0.34,
2249,-0.61,-0.34,
2250,-0.615,-0.34,
2251,-0.63,-0.355,
2252,-0.635,-0.355,
2253,-0.64,-0.375,
2254,-0.65,-0.385,
2255,-0.665,-0.39,
2256,-0.665,-0.36,
2257,-0.675,-0.365,
2258,-0.665,-0.345,
2259,-0.66,-0.345,
2260,-0.66,-0.335,
2261,-0.64,-0.34,
2262,-0.63,-0.355,
2263,-0.63,-0.36,
2264,-0.635,-0.37,
2265,-0.66,-0.365,
2266,-0.66,-0.365,
2267,-0.675,-0.365,
2268,-0.67,-0.355,
2269,-0.665,-0.375,
2270,-0.675,-0.355,
2271,-0.645,-0.37,
2272,-0.645,-0.355,
2273,-0.625,-0.345,
2274,-0.615,-0.345,
2275,-0.61,-0.34,
2276,-0.61,-0.355,
2277,-0.61,-0.36,
2278,-0.6,-0.37,
2279,-0.6,-0.38,
2280,-0.6,-0.37,
2281,-0.6,-0.38,
2282,-0.59,-0.36,
2283,-0.58,-0.34,
2284,-0.59,-0.34,
2285,-0.565,-0.32,
2286,-0.57,-0.335,
2287,-0.56,-0.35,
2288,-0.56,-0.36,
2289,-0.57,-0.365,
2290,-0.575,-0.375,
2291,-0.57,-0.375,
2292,-0.58,-0.36,
2293,-0.57,-0.36,
2294,-0.56,-0.36,
2295,-0.545,-0.35,
2296,-0.55,-0.35,
2297,-0.535,-0.335,
2298,-0.535,-0.35,
2299,-0.545,-0.335,
2300,-0.555,-0.35,
2301,-0.57,-0.345,
2302,-0.57,-0.37,
2303,-0.575,-0.38,
2304,-0.585,-0.375,
2305,-0.585,-0.375,
2306,-0.58,-0.365,
2307,-0.58,-0.355,
2308,-0.58,-0.34,
2309,-0.57,-0.325,
2310,-0.565,-0.34,
2311,-0.575,-0.34,
2312,-0.58,-0.355,
2313,-0.59,-0.37,
2314,-0.605,-0.38,
2315,-0.615,-0.38,
2316,-0.635,-0.36,
2317,-0.64,-0.36,
2318,-0.64,-0.35,
2319,-0.63,-0.355,
2320,-0.615,-0.35,
2321,-0.615,-0.35,
2322,-0.63,-0.355,
2323,-0.645,-0.345,
2324,-0.655,-0.355,
2325,-0.66,-0.355,
2326,-0.645,-0.365,
2327,-0.655,-0.37,
2328,-0.655,-0.37,
2329,-0.65,-0.37,
2330,-0.65,-0.37,
2331,-0.645,-0.37,
2332,-0.645,-0.335,
2333,-0.64,-0.325,
2334,-0.63,-0.34,
2335,-0.64,-0.34,
2336,-0.645,-0.35,
2337,-0.655,-0.36,
2338,-0.66,-0.38,
2339,-0.67,-0.385,
2340,-0.675,-0.365,
2341,-0.69,-0.355,
2342,-0.685,-0.35,
2343,-0.67,-0.335,
2344,-0.65,-0.335,
2345,-0.645,-0.34,
2346,-0.64,-0.35,
2347,-0.65,-0.345,
2348,-0.655,-0.36,
2349,-0.66,-0.37,
2350,-0.67,-0.375,
2351,-0.675,-0.36,
2352,-0.675,-0.36,
2353,-0.675,-0.365,
2354,-0.66,-0.365,
2355,-0.665,-0.345,
2356,-0.66,-0.355,
2357,-0.66,-0.345,
2358,-0.67,-0.35,
2359,-0.665,-0.34,
2360,-0.67,-0.355,
2361,-0.685,-0.355,
2362,-0.685,-0.365,
2363,-0.69,-0.38,
2364,-0.695,-0.375,
2365,-0.685,-0.365,
2366,-0.675,-0.35,
2367,-0.68,-0.35,
2368,-0.665,-0.335,
2369,-0.65,-0.325,
2370,-0.65,-0.345,
2371,-0.65,-0.34,
2372,-0.665,-0.36,
2373,-0.7,-0.36,
2374,-0.685,-0.355,
2375,-0.665,-0.37,
2376,-0.655,-0.355,
2377,-0.645,-0.355,
2378,-0.615,-0.345,
2379,-0.59,-0.35,
2380,-0.595,-0.33,
2381,-0.575,-0.32,
2382,-0.55,-0.3,
2383,-0.535,-0.305,
2384,-0.525,-0.3,
2385,-0.515,-0.305,
2386,-0.505,-0.32,
2387,-0.51,-0.34,
2388,-0.525,-0.35,
2389,-0.55,-0.37,
2390,-0.555,-0.37,
2391,-0.565,-0.375,
2392,-0.57,-0.365,
2393,-0.555,-0.36,
2394,-0.555,-0.37,
2395,-0.56,-0.375,
2396,-0.57,-0.375,
2397,-0.58,-0.375,
2398,-0.605,-0.39,
2399,-0.625,-0.38,
2400,-0.635,-0.365,
2401,-0.66,-0.35,
2402,-0.665,-0.355,
2403,-0.665,-0.355,
2404,-0.665,-0.35,
2405,-0.66,-0.35,
2406,-0.66,-0.35,
2407,-0.665,-0.345,
2408,-0.68,-0.36,
2409,-0.68,-0.355,
2410,-0.665,-0.37,
2411,-0.67,-0.385,
2412,-0.665,-0.375,
2413,-0.65,-0.375,
2414,-0.615,-0.37,
2415,-0.595,-0.355,
2416,-0.535,-0.325,
2417,-0.465,-0.305,
2418,-0.355,-0.3,
2419,-0.185,-0.275,
2420,0.04,-0.24,
2421,0.35,-0.215,
2422,0.72,-0.2,
2423,1.085,-0.2,
2424,1.365,-0.235,N
2425,1.525,-0.305,
2426,1.535,-0.405,
2427,1.325,-0.545,
2428,0.845,-0.705,
2429,0.205,-0.86,
2430,-0.435,-0.995,
2431,-1.075,-1.065,
2432,-1.635,-1.03,
2433,-1.615,-0.935,
2434,-1.385,-0.82,
2435,-1.11,-0.695,
2436,-0.905,-0.6,
2437,-0.8,-0.53,
2438,-0.765,-0.485,
2439,-0.77,-0.445,
2440,-0.765,-0.42,
2441,-0.77,-0.385,
2442,-0.77,-0.38,
2443,-0.775,-0.345,
2444,-0.77,-0.35,
2445,-0.77,-0.36,
2446,-0.79,-0.375,
2447,-0.805,-0.37,
2448,-0.805,-0.365,
2449,-0.815,-0.335,
2450,-0.805,-0.33,
2451,-0.785,-0.31,
2452,-0.785,-0.315,
2453,-0.775,-0.3,
2454,-0.76,-0.305,
2455,-0.755,-0.31,
2456,-0.765,-0.33,
2457,-0.775,-0.32,
2458,-0.785,-0.32,
2459,-0.785,-0.325,
2460,-0.78,-0.31,
2461,-0.78,-0.305,
2462,-0.765,-0.305,
2463,-0.745,-0.305,
2464,-0.74,-0.3,
2465,-0.725,-0.295,
2466,-0.725,-0.29,
2467,-0.725,-0.29,
2468,-0.715,-0.295,
2469,-0.725,-0.29,
2470,-0.725,-0.295,
2471,-0.71,-0.31,
2472,-0.725,-0.3,
2473,-0.72,-0.305,
2474,-0.715,-0.3,
2475,-0.695,-0.285,
2476,-0.69,-0.27,
2477,-0.67,-0.26,
2478,-0.665,-0.275,
2479,-0.65,-0.285,
2480,-0.65,-0.29,
2481,-0.655,-0.3,
2482,-0.65,-0.31,
2483,-0.655,-0.305,
2484,-0.655,-0.29,
2485,-0.645,-0.28,
2486,-0.64,-0.29,
2487,-0.625,-0.27,
2488,-0.615,-0.27,
2489,-0.595,-0.275,
2490,-0.585,-0.275,
2491,-0.59,-0.285,
2492,-0.58,-0.285,
2493,-0.585,-0.29,
2494,-0.59,-0.285,
2495,-0.585,-0.28,
2496,-0.58,-0.27,
2497,-0.58,-0.28,
2498,-0.565,-0.27,
2499,-0.555,-0.28,
2500,-0.54,-0.265,
2501,-0.53,-0.255,
2502,-0.525,-0.255,
2503,-0.525,-0.275,
2504,-0.53,-0.265,
2505,-0.525,-0.27,
2506,-0.53,-0.285,
2507,-0.52,-0.29,
2508,-0.53,-0.28,
2509,-0.52,-0.27,
2510,-0.53,-0.27,
2511,-0.52,-0.26,
2512,-0.495,-0.26,
2513,-0.485,-0.26,
2514,-0.48,-0.265,
2515,-0.485,-0.27,
2516,-0.485,-0.265,
2517,-0.485,-0.27,
2518,-0.48,-0.28,
2519,-0.47,-0.275,
2520,-0.46,-0.28,
2521,-0.45,-0.285,
2522,-0.435,-0.275,
2523,-0.41,-0.285,
2524,-0.395,-0.285,
2525,-0.37,-0.28,
2526,-0.37,-0.285,
2527,-0.355,-0.295,
2528,-0.36,-0.305,
2529,-0.365,-0.325,
2530,-0.37,-0.335,
2531,-0.37,-0.35,
2532,-0.385,-0.35,
2533,-0.405,-0.34,
2534,-0.41,-0.33,
2535,-0.42,-0.325,
2536,-0.425,-0.325,
2537,-0.435,-0.33,
2538,-0.445,-0.355,
2539,-0.47,-0.355,
2540,-0.485,-0.365,
2541,-0.51,-0.365,
2542,-0.525,-0.365,
2543,-0.545,-0.36,
2544,-0.555,-0.36,
2545,-0.57,-0.36,
2546,-0.57,-0.36,
2547,-0.585,-0.365,
2548,-0.575,-0.355,
2549,-0.585,-0.35,
2550,-0.59,-0.355,
2551,-0.595,-0.345,
2552,-0.6,-0.36,
2553,-0.61,-0.365,
2554,-0.615,-0.375,
2555,-0.625,-0.38,
2556,-0.63,-0.385,
2557,-0.63,-0.365,
2558,-0.64,-0.365,
2559,-0.635,-0.345,
2560,-0.635,-0.345,
2561,-0.625,-0.34,
2562,-0.615,-0.345,
2563,-0.62,-0.345,
2564,-0.61,-0.365,
2565,-0.61,-0.37,
2566,-0.62,-0.38,
2567,-0.62,-0.37,
2568,-0.635,-0.38,
2569,-0.64,-0.36,
2570,-0.635,-0.34,
2571,-0.615,-0.33,
2572,-0.605,-0.33,
2573,-0.58,-0.335,
2574,-0.58,-0.35,
2575,-0.57,-0.35,
2576,-0.575,-0.35,
2577,-0.595,-0.355,
2578,-0.58,-0.36,
2579,-0.58,-0.36,
2580,-0.585,-0.36,
2581,-0.58,-0.35,
2582,-0.575,-0.36,
2583,-0.565,-0.35,
2584,-0.565,-0.335,
2585,-0.57,-0.34,
2586,-0.56,-0.335,
2587,-0.56,-0.34,
2588,-0.555,-0.35,
2589,-0.555,-0.37,
2590,-0.555,-0.375,
2591,-0.56,-0.38,
2592,-0.55,-0.365,
2593,-0.545,-0.355,
2594,-0.55,-0.345,
2595,-0.535,-0.35,
2596,-0.545,-0.34,
2597,-0.53,-0.33,
2598,-0.52,-0.36,
2599,-0.525,-0.36,
2600,-0.54,-0.365,
2601,-0.555,-0.375,
2602,-0.56,-0.37,
2603,-0.57,-0.375,
2604,-0.56,-0.37,
2605,-0.575,-0.365,
2606,-0.57,-0.355,
2607,-0.575,-0.36,
2608,-0.565,-0.355,
2609,-0.56,-0.325,
2610,-0.565,-0.345,
2611,-0.565,-0.34,
2612,-0.57,-0.355,
2613,-0.595,-0.365,
2614,-0.605,-0.375,
2615,-0.61,-0.375,
2616,-0.635,-0.375,
2617,-0.62,-0.355,
2618,-0.62,-0.35,
2619,-0.615,-0.34,
2620,-0.6,-0.345,
2621,-0.61,-0.345,
2622,-0.6,-0.36,
2623,-0.61,-0.36,
2624,-0.61,-0.365,
2625,-0.62,-0.375,
2626,-0.63,-0.375,
2627,-0.635,-0.375,
2628,-0.64,-0.365,
2629,-0.64,-0.37,
2630,-0.635,-0.365,
2631,-0.645,-0.365,
2632,-0.635,-0.345,
2633,-0.625,-0.35,
2634,-0.63,-0.35,
2635,-0.635,-0.35,
2636,-0.635,-0.36,
2637,-0.645,-0.37,
2638,-0.64,-0.38,
2639,-0.65,-0.38,
2640,-0.655,-0.38,
2641,-0.655,-0.37,
2642,-0.665,-0.355,
2643,-0.65,-0.345,
2644,-0.645,-0.335,
2645,-0.625,-0.345,
2646,-0.625,-0.36,
2647,-0.635,-0.36,
2648,-0.63,-0.37,
2649,-0.65,-0.37,
2650,-0.66,-0.375,
2651,-0.665,-0.375,
2652,-0.66,-0.37,
2653,-0.66,-0.365,
2654,-0.66,-0.355,
2655,-0.66,-0.36,
2656,-0.66,-0.35,
2657,-0.645,-0.35,
2658,-0.64,-0.355,
2659,-0.65,-0.35,
2660,-0.655,-0.37,
2661,-0.66,-0.365,
2662,-0.655,-0.375,
2663,-0.66,-0.385,
2664,-0.655,-0.385,
2665,-0.66,-0.37,
2666,-0.665,-0.35,
2667,-0.65,-0.34,
2668,-0.645,-0.34,
2669,-0.63,-0.33,
2670,-0.62,-0.36,
2671,-0.625,-0.355,
2672,-0.62,-0.355,
2673,-0.61,-0.375,
2674,-0.615,-0.37,
2675,-0.625,-0.37,
2676,-0.6,-0.36,
2677,-0.585,-0.355,
2678,-0.565,-0.35,
2679,-0.545,-0.34,
2680,-0.53,-0.325,
2681,-0.51,-0.31,
2682,-0.505,-0.3,
2683,-0.495,-0.295,
2684,-0.49,-0.3,
2685,-0.485,-0.32,
2686,-0.49,-0.345,
2687,-0.505,-0.375,
2688,-0.51,-0.385,
2689,-0.535,-0.405,
2690,-0.55,-0.405,
2691,-0.55,-0.395,
2692,-0.545,-0.39,
2693,-0.54,-0.365,
2694,-0.535,-0.375,
2695,-0.53,-0.385,
2696,-0.55,-0.38,
2697,-0.56,-0.39,
2698,-0.58,-0.395,
2699,-0.605,-0.395,
2700,-0.64,-0.37,
2701,-0.655,-0.345,
2702,-0.66,-0.35,
2703,-0.64,-0.35,
2704,-0.655,-0.35,
2705,-0.645,-0.355,
2706,-0.635,-0.37,
2707,-0.625,-0.37,
2708,-0.635,-0.375,
2709,-0.64,-0.37,
2710,-0.64,-0.385,
2711,-0.64,-0.38,
2712,-0.625,-0.37,
2713,-0.61,-0.375,
2714,-0.58,-0.37,
2715,-0.545,-0.365,
2716,-0.495,-0.335,
2717,-0.4,-0.3,
2718,-0.22,-0.28,
2719,0.055,-0.225,
2720,0.455,-0.195,
2721,0.905,-0.185,
2722,1.315,-0.215,
2723,1.565,-0.31,N
2724,1.62,-0.47,
2725,1.355,-0.67,
2726,0.745,-0.865,
2727,0.105,-1.055,
2728,-0.535,-1.17,
2729,-1.175,-1.175,
2730,-1.55,-1.11,
2731,-1.405,-0.96,
2732,-1.15,-0.83,
2733,-0.91,-0.71,
2734,-0.76,-0.62,
2735,-0.71,-0.565,
2736,-0.725,-0.51,
2737,-0.755,-0.49,
2738,-0.775,-0.46,
2739,-0.77,-0.425,
2740,-0.76,-0.39,
2741,-0.735,-0.365,
2742,-0.725,-0.35,
2743,-0.72,-0.35,
2744,-0.735,-0.355,
2745,-0.745,-0.36,
2746,-0.76,-0.355,
2747,-0.765,-0.365,
2748,-0.765,-0.35,
2749,-0.77,-0.335,
2750,-0.77,-0.32,
2751,-0.75,-0.305,
2752,-0.745,-0.3,
2753,-0.73,-0.295,
2754,-0.73,-0.305,
2755,-0.715,-0.32,
2756,-0.725,-0.32,
2757,-0.745,-0.315,
2758,-0.745,-0.32,
2759,-0.75,-0.33,
2760,-0.735,-0.31,
2761,-0.735,-0.305,
2762,-0.725,-0.305,
2763,-0.7,-0.295,
2764,-0.7,-0.295,
2765,-0.71,-0.28,
2766,-0.695,-0.275,
2767,-0.69,-0.28,
2768,-0.685,-0.295,
2769,-0.68,-0.295,
2770,-0.675,-0.31,
2771,-0.68,-0.315,
2772,-0.67,-0.31,
2773,-0.67,-0.305,
2774,-0.665,-0.305,
2775,-0.65,-0.29,
2776,-0.635,-0.275,
2777,-0.62,-0.27,
2778,-0.615,-0.27,
2779,-0.61,-0.27,
2780,-0.605,-0.285,
2781,-0.605,-0.3,
2782,-0.605,-0.31,
2783,-0.61,-0.31,
2784,-0.61,-0.295,
2785,-0.605,-0.295,
2786,-0.585,-0.28,
2787,-0.585,-0.275,
2788,-0.565,-0.27,
2789,-0.56,-0.28,
2790,-0.545,-0.28,
2791,-0.54,-0.265,
2792,-0.545,-0.275,
2793,-0.555,-0.285,
2794,-0.545,-0.3,
2795,-0.525,-0.29,
2796,-0.53,-0.29,
2797,-0.52,-0.295,
2798,-0.515,-0.28,
2799,-0.505,-0.265,
2800,-0.495,-0.26,
2801,-0.495,-0.245,
2802,-0.495,-0.26,
2803,-0.485,-0.25,
2804,-0.495,-0.27,
2805,-0.48,-0.28,
2806,-0.485,-0.29,
2807,-0.5,-0.295,
2808,-0.49,-0.28,
2809,-0.485,-0.27,
2810,-0.47,-0.26,
2811,-0.46,-0.255,
2812,-0.455,-0.25,
2813,-0.445,-0.25,
2814,-0.42,-0.255,
2815,-0.43,-0.27,
2816,-0.43,-0.265,
2817,-0.42,-0.28,
2818,-0.42,-0.295,
2819,-0.405,-0.3,
2820,-0.395,-0.305,
2821,-0.37,-0.295,
2822,-0.36,-0.3,
2823,-0.335,-0.305,
2824,-0.32,-0.3,
2825,-0.305,-0.295,
2826,-0.3,-0.305,
2827,-0.295,-0.31,
2828,-0.295,-0.32,
2829,-0.305,-0.34,
2830,-0.32,-0.365,
2831,-0.35,-0.375,
2832,-0.385,-0.365,
2833,-0.37,-0.36,
2834,-0.385,-0.355,
2835,-0.4,-0.35,
2836,-0.405,-0.345,
2837,-0.4,-0.35,
2838,-0.415,-0.355,
2839,-0.425,-0.38,
2840,-0.435,-0.375,
2841,-0.46,-0.38,
2842,-0.505,-0.385,
2843,-0.53,-0.39,
2844,-0.53,-0.375,
2845,-0.54,-0.375,
2846,-0.54,-0.38,
2847,-0.545,-0.37,
2848,-0.545,-0.36,
2849,-0.545,-0.365,
2850,-0.55,-0.37,
2851,-0.555,-0.36,
2852,-0.57,-0.37,
2853,-0.58,-0.36,
2854,-0.595,-0.375,
2855,-0.59,-0.375,
2856,-0.605,-0.385,
2857,-0.6,-0.38,
2858,-0.6,-0.38,
2859,-0.59,-0.38,
2860,-0.595,-0.36,
2861,-0.59,-0.355,
2862,-0.58,-0.35,
2863,-0.59,-0.35,
2864,-0.585,-0.355,
2865,-0.59,-0.375,
2866,-0.6,-0.375,
2867,-0.605,-0.395,
2868,-0.61,-0.385,
2869,-0.6,-0.375,
2870,-0.585,-0.36,
2871,-0.565,-0.36,
2872,-0.565,-0.36,
2873,-0.545,-0.345,
2874,-0.535,-0.36,
2875,-0.535,-0.36,
2876,-0.53,-0.36,
2877,-0.53,-0.365,
2878,-0.55,-0.375,
2879,-0.545,-0.38,
2880,-0.545,-0.365,
2881,-0.535,-0.37,
2882,-0.52,-0.37,
2883,-0.51,-0.365,
2884,-0.505,-0.355,
2885,-0.505,-0.35,
2886,-0.505,-0.355,
2887,-0.5,-0.345,
2888,-0.51,-0.37,
2889,-0.505,-0.365,
2890,-0.52,-0.385,
2891,-0.51,-0.39,
2892,-0.525,-0.385,
2893,-0.52,-0.38,
2894,-0.535,-0.375,
2895,-0.52,-0.37,
2896,-0.52,-0.355,
2897,-0.515,-0.34,
2898,-0.505,-0.36,
2899,-0.505,-0.365,
2900,-0.515,-0.38,
2901,-0.53,-0.39,
2902,-0.535,-0.4,
2903,-0.535,-0.385,
2904,-0.555,-0.38,
2905,-0.555,-0.375,
2906,-0.57,-0.37,
2907,-0.545,-0.375,
2908,-0.535,-0.375,
2909,-0.53,-0.36,
2910,-0.53,-0.37,
2911,-0.545,-0.37,
2912,-0.56,-0.37,
2913,-0.57,-0.38,
2914,-0.57,-0.375,
2915,-0.58,-0.385,
2916,-0.595,-0.39,
2917,-0.59,-0.385,
2918,-0.595,-0.38,
2919,-0.585,-0.375,
2920,-0.585,-0.37,
2921,-0.575,-0.355,
2922,-0.58,-0.355,
2923,-0.58,-0.36,
2924,-0.575,-0.385,
2925,-0.585,-0.385,
2926,-0.59,-0.385,
2927,-0.6,-0.4,
2928,-0.605,-0.39,
2929,-0.605,-0.38,
2930,-0.615,-0.375,
2931,-0.615,-0.365,
2932,-0.61,-0.365,
2933,-0.61,-0.36,
2934,-0.6,-0.365,
2935,-0.605,-0.365,
2936,-0.62,-0.395,
2937,-0.63,-0.39,
2938,-0.64,-0.39,
2939,-0.66,-0.38,
2940,-0.655,-0.385,
2941,-0.645,-0.375,
2942,-0.64,-0.37,
2943,-0.625,-0.37,
2944,-0.635,-0.365,
2945,-0.635,-0.375,
2946,-0.625,-0.375,
2947,-0.63,-0.365,
2948,-0.635,-0.375,
2949,-0.65,-0.375,
2950,-0.645,-0.395,
2951,-0.63,-0.39,
2952,-0.65,-0.385,
2953,-0.65,-0.385,
2954,-0.645,-0.38,
2955,-0.645,-0.375,
2956,-0.645,-0.37,
2957,-0.635,-0.36,
2958,-0.625,-0.37,
2959,-0.62,-0.37,
2960,-0.625,-0.385,
2961,-0.645,-0.385,
2962,-0.65,-0.39,
2963,-0.645,-0.395,
2964,-0.65,-0.385,
2965,-0.645,-0.375,
2966,-0.645,-0.365,
2967,-0.64,-0.385,
2968,-0.63,-0.38,
2969,-0.625,-0.365,
2970,-0.625,-0.375,
2971,-0.645,-0.38,
2972,-0.645,-0.37,
2973,-0.645,-0.39,
2974,-0.625,-0.39,
2975,-0.635,-0.39,
2976,-0.635,-0.4,
2977,-0.625,-0.395,
2978,-0.61,-0.395,
2979,-0.595,-0.365,
2980,-0.575,-0.365,
2981,-0.565,-0.36,
2982,-0.56,-0.35,
2983,-0.555,-0.35,
2984,-0.545,-0.36,
2985,-0.53,-0.36,
2986,-0.52,-0.36,
2987,-0.515,-0.35,
2988,-0.5,-0.345,
2989,-0.5,-0.34,
2990,-0.495,-0.335,
2991,-0.475,-0.33,
2992,-0.475,-0.355,
2993,-0.475,-0.375,
2994,-0.485,-0.405,
2995,-0.515,-0.415,
2996,-0.52,-0.43,
2997,-0.525,-0.44,
2998,-0.54,-0.445,
2999,-0.545,-0.44,
3000,-0.545,-0.415,
3001,-0.55,-0.4,
3002,-0.555,-0.395,
3003,-0.565,-0.39,
3004,-0.605,-0.385,
3005,-0.605,-0.38,
3006,-0.615,-0.375,
3007,-0.63,-0.38,
3008,-0.635,-0.38,
3009,-0.64,-0.39,
3010,-0.635,-0.4,
3011,-0.64,-0.42,
3012,-0.635,-0.41,
3013,-0.635,-0.42,
3014,-0.625,-0.4,
3015,-0.625,-0.4,
3016,-0.605,-0.385,
3017,-0.58,-0.36,
3018,-0.535,-0.365,
3019,-0.485,-0.365,
3020,-0.39,-0.355,
3021,-0.23,-0.315,
3022,0.025,-0.285,
3023,0.385,-0.24,
3024,0.8,-0.21,
3025,1.205,-0.205,
3026,1.495,-0.255,N
3027,1.625,-0.345,
3028,1.58,-0.495,
3029,1.29,-0.65,
3030,0.76,-0.82,
3031,0.12,-0.97,
3032,-0.52,-1.095,
3033,-1.16,-1.15,
3034,-1.61,-1.145,
3035,-1.56,-1.06,
3036,-1.31,-0.945,
3037,-1.035,-0.85,
3038,-0.84,-0.75,
3039,-0.745,-0.66,
3040,-0.745,-0.585,
3041,-0.775,-0.54,
3042,-0.815,-0.5,
3043,-0.825,-0.485,
3044,-0.81,-0.46,
3045,-0.785,-0.455,
3046,-0.75,-0.435,
3047,-0.735,-0.425,
3048,-0.745,-0.41,
3049,-0.745,-0.395,
3050,-0.775,-0.375,
3051,-0.785,-0.365,
3052,-0.775,-0.345,
3053,-0.775,-0.345,
3054,-0.78,-0.34,
3055,-0.78,-0.345,
3056,-0.78,-0.355,
3057,-0.76,-0.35,
3058,-0.77,-0.35,
3059,-0.77,-0.35,
3060,-0.765,-0.35,
3061,-0.775,-0.35,
3062,-0.765,-0.34,
3063,-0.74,-0.325,
3064,-0.74,-0.32,
3065,-0.735,-0.3,
3066,-0.72,-0.32,
3067,-0.72,-0.315,
3068,-0.725,-0.315,
3069,-0.725,-0.325,
3070,-0.715,-0.335,
3071,-0.715,-0.335,
3072,-0.7,-0.335,
3073,-0.705,-0.35,
3074,-0.7,-0.32,
3075,-0.71,-0.315,
3076,-0.7,-0.295,
3077,-0.685,-0.29,
3078,-0.68,-0.3,
3079,-0.675,-0.3,
3080,-0.675,-0.315,
3081,-0.675,-0.32,
3082,-0.675,-0.33,
3083,-0.665,-0.345,
3084,-0.655,-0.325,
3085,-0.655,-0.32,
3086,-0.635,-0.32,
3087,-0.625,-0.305,
3088,-0.625,-0.305,
3089,-0.605,-0.3,
3090,-0.59,-0.3,
3091,-0.595,-0.31,
3092,-0.595,-0.31,
3093,-0.595,-0.315,
3094,-0.59,-0.32,
3095,-0.585,-0.32,
3096,-0.585,-0.305,
3097,-0.57,-0.32,
3098,-0.56,-0.305,
3099,-0.545,-0.305,
3100,-0.54,-0.3,
3101,-0.525,-0.28,
3102,-0.535,-0.295,
3103,-0.535,-0.285,
3104,-0.52,-0.295,
3105,-0.525,-0.295,
3106,-0.515,-0.3,
3107,-0.535,-0.315,
3108,-0.53,-0.32,
3109,-0.52,-0.305,
3110,-0.515,-0.295,
3111,-0.505,-0.28,
3112,-0.5,-0.28,
3113,-0.495,-0.265,
3114,-0.485,-0.265,
3115,-0.485,-0.29,
3116,-0.485,-0.285,
3117,-0.5,-0.295,
3118,-0.495,-0.29,
3119,-0.505,-0.29,
3120,-0.5,-0.29,
3121,-0.5,-0.29,
3122,-0.485,-0.28,
3123,-0.475,-0.285,
3124,-0.465,-0.28,
3125,-0.45,-0.28,
3126,-0.445,-0.285,
3127,-0.44,-0.285,
3128,-0.44,-0.295,
3129,-0.44,-0.305,
3130,-0.44,-0.305,
3131,-0.435,-0.32,
3132,-0.44,-0.32,
3133,-0.42,-0.32,
3134,-0.405,-0.32,
3135,-0.375,-0.335,
3136,-0.355,-0.32,
3137,-0.35,-0.315,
3138,-0.345,-0.33,
3139,-0.36,-0.33,
3140,-0.355,-0.345,
3141,-0.37,-0.36,
3142,-0.405,-0.375,
3143,-0.42,-0.38,
3144,-0.435,-0.38,
3145,-0.445,-0.385,
3146,-0.46,-0.375,
3147,-0.465,-0.355,
3148,-0.475,-0.355,
3149,-0.47,-0.35,
3150,-0.485,-0.375,
3151,-0.5,-0.38,
3152,-0.52,-0.395,
3153,-0.55,-0.395,
3154,-0.565,-0.395,
3155,-0.585,-0.395,
3156,-0.595,-0.39,
3157,-0.605,-0.38,
3158,-0.605,-0.385,
3159,-0.605,-0.38,
3160,-0.6,-0.375,
3161,-0.6,-0.37,
3162,-0.595,-0.375,
3163,-0.605,-0.38,
3164,-0.6,-0.38,
3165,-0.62,-0.39,
3166,-0.625,-0.395,
3167,-0.625,-0.4,
3168,-0.63,-0.41,
3169,-0.625,-0.385,
3170,-0.63,-0.38,
3171,-0.62,-0.37,
3172,-0.62,-0.365,
3173,-0.615,-0.36,
3174,-0.605,-0.35,
3175,-0.59,-0.365,
3176,-0.585,-0.375,
3177,-0.585,-0.395,
3178,-0.59,-0.4,
3179,-0.585,-0.395,
3180,-0.595,-0.39,
3181,-0.585,-0.385,
3182,-0.59,-0.37,
3183,-0.57,-0.355,
3184,-0.56,-0.36,
3185,-0.54,-0.36,
3186,-0.545,-0.36,
3187,-0.545,-0.365,
3188,-0.545,-0.37,
3189,-0.545,-0.38,
3190,-0.54,-0.375,
3191,-0.535,-0.385,
3192,-0.53,-0.38,
3193,-0.525,-0.385,
3194,-0.51,-0.375,
3195,-0.51,-0.37,
3196,-0.515,-0.36,
3197,-0.52,-0.35,
3198,-0.505,-0.355,
3199,-0.525,-0.365,
3200,-0.51,-0.375,
3201,-0.5,-0.395,
3202,-0.52,-0.405,
3203,-0.53,-0.41,
3204,-0.54,-0.4,
3205,-0.55,-0.385,
3206,-0.535,-0.385,
3207,-0.54,-0.365,
3208,-0.535,-0.37,
3209,-0.545,-0.35,
3210,-0.53,-0.375,
3211,-0.54,-0.385,
3212,-0.55,-0.39,
3213,-0.56,-0.39,
3214,-0.555,-0.39,
3215,-0.57,-0.405,
3216,-0.565,-0.4,
3217,-0.565,-0.395,
3218,-0.57,-0.38,
3219,-0.565,-0.385,
3220,-0.565,-0.37,
3221,-0.565,-0.365,
3222,-0.575,-0.36,
3223,-0.59,-0.37,
3224,-0.595,-0.375,
3225,-0.6,-0.4,
3226,-0.61,-0.395,
3227,-0.62,-0.415,
3228,-0.62,-0.405,
3229,-0.63,-0.395,
3230,-0.625,-0.38,
3231,-0.615,-0.37,
3232,-0.6,-0.375,
3233,-0.595,-0.365,
3234,-0.6,-0.37,
3235,-0.615,-0.385,
3236,-0.635,-0.395,
3237,-0.635,-0.4,
3238,-0.65,-0.395,
3239,-0.66,-0.39,
3240,-0.655,-0.405,
3241,-0.65,-0.4,
3242,-0.645,-0.395,
3243,-0.625,-0.39,
3244,-0.625,-0.39,
3245,-0.625,-0.365,
3246,-0.62,-0.365,
3247,-0.63,-0.37,
3248,-0.625,-0.375,
3249,-0.635,-0.385,
3250,-0.65,-0.405,
3251,-0.66,-0.41,
3252,-0.665,-0.41,
3253,-0.66,-0.41,
3254,-0.665,-0.4,
3255,-0.655,-0.39,
3256,-0.66,-0.385,
3257,-0.64,-0.37,
3258,-0.625,-0.38,
3259,-0.63,-0.395,
3260,-0.64,-0.395,
3261,-0.64,-0.4,
3262,-0.68,-0.4,
3263,-0.68,-0.39,
3264,-0.67,-0.4,
3265,-0.67,-0.385,
3266,-0.66,-0.405,
3267,-0.65,-0.4,
3268,-0.65,-0.39,
3269,-0.645,-0.37,
3270,-0.655,-0.375,
3271,-0.65,-0.38,
3272,-0.64,-0.385,
3273,-0.66,-0.39,
3274,-0.67,-0.415,
3275,-0.66,-0.405,
3276,-0.675,-0.42,
3277,-0.665,-0.405,
3278,-0.66,-0.4,
3279,-0.645,-0.395,
3280,-0.645,-0.375,
3281,-0.635,-0.365,
3282,-0.62,-0.37,
3283,-0.605,-0.37,
3284,-0.59,-0.385,
3285,-0.585,-0.4,
3286,-0.575,-0.405,
3287,-0.565,-0.39,
3288,-0.565,-0.385,
3289,-0.55,-0.375,
3290,-0.53,-0.35,
3291,-0.52,-0.325,
3292,-0.505,-0.315,
3293,-0.48,-0.32,
3294,-0.485,-0.335,
3295,-0.485,-0.35,
3296,-0.495,-0.375,
3297,-0.515,-0.4,
3298,-0.54,-0.43,
3299,-0.56,-0.445,
3300,-0.565,-0.455,
3301,-0.555,-0.445,
3302,-0.54,-0.44,
3303,-0.535,-0.43,
3304,-0.545,-0.4,
3305,-0.54,-0.39,
3306,-0.57,-0.39,
3307,-0.575,-0.375,
3308,-0.595,-0.395,
3309,-0.625,-0.395,
3310,-0.65,-0.405,
3311,-0.66,-0.425,
3312,-0.67,-0.425,
3313,-0.665,-0.425,
3314,-0.655,-0.41,
3315,-0.64,-0.41,
3316,-0.635,-0.4,
3317,-0.635,-0.39,
3318,-0.61,-0.405,
3319,-0.6,-0.4,
3320,-0.58,-0.4,
3321,-0.575,-0.415,
3322,-0.55,-0.415,
3323,-0.51,-0.4,
3324,-0.43,-0.39,
3325,-0.28,-0.36,
3326,-0.035,-0.325,
3327,0.31,-0.265,
3328,0.705,-0.23,
3329,1.105,-0.22,
3330,1.43,-0.255,N
3331,1.56,-0.345,
3332,1.5,-0.48,
3333,1.185,-0.64,
3334,0.575,-0.83,
3335,-0.065,-0.995,
3336,-0.705,-1.1,
3337,-1.345,-1.115,
3338,-1.685,-1.065,
3339,-1.54,-0.96,
3340,-1.255,-0.83,
3341,-0.99,-0.715,
3342,-0.805,-0.625,
3343,-0.74,-0.575,
3344,-0.73,-0.53,
3345,-0.76,-0.51,
3346,-0.78,-0.49,
3347,-0.8,-0.475,
3348,-0.79,-0.44,
3349,-0.77,-0.42,
3350,-0.75,-0.41,
3351,-0.745,-0.39,
3352,-0.74,-0.38,
3353,-0.75,-0.38,
3354,-0.755,-0.375,
3355,-0.755,-0.37,
3356,-0.76,-0.36,
3357,-0.755,-0.365,
3358,-0.755,-0.375,
3359,-0.77,-0.37,
3360,-0.775,-0.38,
3361,-0.75,-0.375,
3362,-0.75,-0.36,
3363,-0.745,-0.35,
3364,-0.74,-0.34,
3365,-0.735,-0.33,
3366,-0.725,-0.34,
3367,-0.73,-0.345,
3368,-0.715,-0.355,
3369,-0.715,-0.355,
3370,-0.715,-0.355,
3371,-0.715,-0.365,
3372,-0.72,-0.36,
3373,-0.705,-0.35,
3374,-0.68,-0.34,
3375,-0.67,-0.335,
3376,-0.665,-0.345,
3377,-0.665,-0.325,
3378,-0.67,-0.325,
3379,-0.66,-0.32,
3380,-0.66,-0.325,
3381,-0.655,-0.335,
3382,-0.685,-0.34,
3383,-0.66,-0.34,
3384,-0.655,-0.355,
3385,-0.67,-0.35,
3386,-0.655,-0.35,
3387,-0.63,-0.335,
3388,-0.61,-0.33,
3389,-0.6,-0.315,
3390,-0.59,-0.305,
3391,-0.59,-0.315,
3392,-0.59,-0.315,
3393,-0.6,-0.33,
3394,-0.59,-0.335,
3395,-0.6,-0.335,
3396,-0.595,-0.33,
3397,-0.6,-0.335,
3398,-0.585,-0.32,
3399,-0.585,-0.32,
3400,-0.555,-0.31,
3401,-0.545,-0.31,
3402,-0.53,-0.31,
3403,-0.53,-0.315,
3404,-0.535,-0.315,
3405,-0.53,-0.315,
3406,-0.525,-0.315,
3407,-0.535,-0.315,
3408,-0.53,-0.32,
3409,-0.525,-0.315,
3410,-0.525,-0.315,
3411,-0.52,-0.31,
3412,-0.53,-0.3,
3413,-0.525,-0.29,
3414,-0.535,-0.29,
3415,-0.52,-0.295,
3416,-0.52,-0.3,
3417,-0.52,-0.305,
3418,-0.525,-0.31,
3419,-0.52,-0.315,
3420,-0.52,-0.33,
3421,-0.52,-0.31,
3422,-0.51,-0.305,
3423,-0.5,-0.29,
3424,-0.5,-0.29,
3425,-0.495,-0.28,
3426,-0.49,-0.285,
3427,-0.485,-0.31,
3428,-0.475,-0.31,
3429,-0.47,-0.325,
3430,-0.46,-0.335,
3431,-0.465,-0.34,
3432,-0.45,-0.325,
3433,-0.435,-0.325,
3434,-0.41,-0.32,
3435,-0.39,-0.33,
3436,-0.37,-0.34,
3437,-0.365,-0.335,
3438,-0.355,-0.36,
3439,-0.37,-0.36,
3440,-0.385,-0.36,
3441,-0.4,-0.37,
3442,-0.425,-0.385,
3443,-0.445,-0.38,
3444,-0.455,-0.385,
3445,-0.475,-0.385,
3446,-0.48,-0.385,
3447,-0.485,-0.395,
3448,-0.505,-0.39,
3449,-0.505,-0.395,
3450,-0.51,-0.38,
3451,-0.52,-0.385,
3452,-0.53,-0.39,
3453,-0.56,-0.41,
3454,-0.57,-0.41,
3455,-0.59,-0.42,
3456,-0.61,-0.41,
3457,-0.63,-0.395,
3458,-0.615,-0.39,
3459,-0.64,-0.385,
3460,-0.635,-0.375,
3461,-0.625,-0.39,
3462,-0.615,-0.41,
3463,-0.615,-0.4,
3464,-0.625,-0.405,
3465,-0.645,-0.415,
3466,-0.64,-0.41,
3467,-0.65,-0.405,
3468,-0.66,-0.4,
3469,-0.635,-0.405,
3470,-0.625,-0.405,
3471,-0.63,-0.4,
3472,-0.625,-0.39,
3473,-0.62,-0.38,
3474,-0.615,-0.395,
3475,-0.615,-0.385,
3476,-0.6,-0.38,
3477,-0.615,-0.41,
3478,-0.605,-0.4,
3479,-0.605,-0.42,
3480,-0.595,-0.42,
3481,-0.59,-0.41,
3482,-0.585,-0.4,
3483,-0.58,-0.385,
3484,-0.57,-0.38,
3485,-0.575,-0.37,
3486,-0.56,-0.39,
3487,-0.555,-0.4,
3488,-0.56,-0.4,
3489,-0.56,-0.4,
3490,-0.55,-0.405,
3491,-0.555,-0.405,
3492,-0.56,-0.4,
3493,-0.555,-0.405,
3494,-0.555,-0.405,
3495,-0.55,-0.395,
3496,-0.53,-0.385,
3497,-0.525,-0.38,
3498,-0.52,-0.37,
3499,-0.52,-0.39,
3500,-0.525,-0.4,
3501,-0.53,-0.405,
3502,-0.545,-0.41,
3503,-0.545,-0.415,
3504,-0.56,-0.42,
3505,-0.56,-0.4,
3506,-0.55,-0.41,
3507,-0.545,-0.395,
3508,-0.55,-0.38,
3509,-0.545,-0.38,
3510,-0.53,-0.39,
3511,-0.545,-0.39,
3512,-0.565,-0.4,
3513,-0.59,-0.395,
3514,-0.605,-0.4,
3515,-0.605,-0.4,
3516,-0.615,-0.405,
3517,-0.625,-0.405,
3518,-0.61,-0.405,
3519,-0.64,-0.4,
3520,-0.62,-0.39,
3521,-0.62,-0.39,
3522,-0.6,-0.385,
3523,-0.595,-0.395,
3524,-0.605,-0.395,
3525,-0.605,-0.41,
3526,-0.615,-0.4,
3527,-0.635,-0.415,
3528,-0.645,-0.405,
3529,-0.645,-0.395,
3530,-0.64,-0.4,
3531,-0.64,-0.395,
3532,-0.64,-0.39,
3533,-0.64,-0.385,
3534,-0.62,-0.385,
3535,-0.625,-0.4,
3536,-0.62,-0.4,
3537,-0.64,-0.405,
3538,-0.645,-0.4,
3539,-0.655,-0.405,
3540,-0.67,-0.415,
3541,-0.665,-0.405,
3542,-0.65,-0.405,
3543,-0.645,-0.395,
3544,-0.645,-0.395,
3545,-0.65,-0.39,
3546,-0.645,-0.39,
3547,-0.655,-0.395,
3548,-0.655,-0.405,
3549,-0.675,-0.42,
3550,-0.665,-0.425,
3551,-0.665,-0.42,
3552,-0.67,-0.415,
3553,-0.675,-0.405,
3554,-0.665,-0.405,
3555,-0.665,-0.395,
3556,-0.66,-0.385,
3557,-0.65,-0.385,
3558,-0.64,-0.385,
3559,-0.65,-0.4,
3560,-0.655,-0.405,
3561,-0.66,-0.41,
3562,-0.665,-0.41,
3563,-0.675,-0.405,
3564,-0.665,-0.4,
3565,-0.67,-0.4,
3566,-0.67,-0.405,
3567,-0.66,-0.4,
3568,-0.655,-0.405,
3569,-0.655,-0.39,
3570,-0.645,-0.39,
3571,-0.645,-0.395,
3572,-0.64,-0.385,
3573,-0.645,-0.4,
3574,-0.66,-0.415,
3575,-0.645,-0.41,
3576,-0.635,-0.415,
3577,-0.625,-0.41,
3578,-0.62,-0.39,
3579,-0.61,-0.385,
3580,-0.58,-0.38,
3581,-0.57,-0.375,
3582,-0.545,-0.365,
3583,-0.545,-0.375,
3584,-0.52,-0.36,
3585,-0.525,-0.365,
3586,-0.515,-0.355,
3587,-0.515,-0.345,
3588,-0.51,-0.35,
3589,-0.505,-0.355,
3590,-0.52,-0.375,
3591,-0.52,-0.4,
3592,-0.535,-0.42,
3593,-0.55,-0.43,
3594,-0.555,-0.43,
3595,-0.555,-0.43,
3596,-0.555,-0.43,
3597,-0.555,-0.435,
3598,-0.565,-0.42,
3599,-0.58,-0.43,
3600,-0.6,-0.435,
3601,-0.62,-0.41,
3602,-0.645,-0.415,
3603,-0.66,-0.385,
3604,-0.68,-0.39,
3605,-0.675,-0.395,
3606,-0.65,-0.405,
3607,-0.655,-0.415,
3608,-0.655,-0.415,
3609,-0.64,-0.425,
3610,-0.65,-0.425,
3611,-0.645,-0.415,
3612,-0.635,-0.42,
3613,-0.625,-0.4,
3614,-0.595,-0.42,
3615,-0.545,-0.4,
3616,-0.465,-0.385,
3617,-0.35,-0.355,
3618,-0.155,-0.325,
3619,0.1,-0.28,
3620,0.46,-0.26,
3621,0.85,-0.22,
3622,1.21,-0.25,
3623,1.46,-0.32,N
3624,1.53,-0.43,
3625,1.375,-0.555,
3626,0.945,-0.715,
3627,0.305,-0.875,
3628,-0.335,-1.01,
3629,-0.975,-1.095,
3630,-1.615,-1.105,
3631,-1.64,-1.03,
3632,-1.435,-0.925,
3633,-1.165,-0.82,
3634,-0.945,-0.72,
3635,-0.83,-0.635,
3636,-0.81,-0.575,
3637,-0.84,-0.54,
3638,-0.845,-0.515,
3639,-0.835,-0.485,
3640,-0.81,-0.465,
3641,-0.775,-0.435,
3642,-0.755,-0.42,
3643,-0.745,-0.405,
3644,-0.76,-0.395,
3645,-0.77,-0.39,
3646,-0.78,-0.405,
3647,-0.79,-0.405,
3648,-0.805,-0.405,
3649,-0.81,-0.395,
3650,-0.8,-0.39,
3651,-0.79,-0.37,
3652,-0.78,-0.355,
3653,-0.78,-0.345,
3654,-0.775,-0.345,
3655,-0.77,-0.35,
3656,-0.765,-0.365,
3657,-0.775,-0.375,
3658,-0.77,-0.385,
3659,-0.775,-0.385,
3660,-0.775,-0.37,
3661,-0.76,-0.375,
3662,-0.755,-0.36,
3663,-0.745,-0.335,
3664,-0.73,-0.345,
3665,-0.725,-0.34,
3666,-0.715,-0.34,
3667,-0.715,-0.355,
3668,-0.72,-0.35,
3669,-0.72,-0.37,
3670,-0.725,-0.365,
3671,-0.72,-0.36,
3672,-0.715,-0.36,
3673,-0.7,-0.345,
3674,-0.715,-0.345,
3675,-0.7,-0.35,
3676,-0.675,-0.33,
3677,-0.665,-0.32,
3678,-0.66,-0.325,
3679,-0.65,-0.32,
3680,-0.645,-0.33,
3681,-0.65,-0.35,
3682,-0.635,-0.36,
3683,-0.64,-0.365,
3684,-0.635,-0.35,
3685,-0.635,-0.34,
3686,-0.63,-0.335,
3687,-0.625,-0.325,
3688,-0.62,-0.31,
3689,-0.605,-0.31,
3690,-0.58,-0.32,
3691,-0.585,-0.33,
3692,-0.575,-0.33,
3693,-0.58,-0.34,
3694,-0.585,-0.34,
3695,-0.585,-0.335,
3696,-0.585,-0.335,
3697,-0.58,-0.34,
3698,-0.56,-0.33,
3699,-0.555,-0.33,
3700,-0.54,-0.32,
3701,-0.525,-0.3,
3702,-0.54,-0.305,
3703,-0.545,-0.31,
3704,-0.55,-0.3,
3705,-0.54,-0.315,
3706,-0.54,-0.315,
3707,-0.56,-0.33,
3708,-0.57,-0.325,
3709,-0.555,-0.32,
3710,-0.565,-0.305,
3711,-0.56,-0.3,
3712,-0.53,-0.29,
3713,-0.535,-0.28,
3714,-0.51,-0.29,
3715,-0.51,-0.3,
3716,-0.52,-0.295,
3717,-0.51,-0.32,
3718,-0.525,-0.33,
3719,-0.525,-0.325,
3720,-0.53,-0.33,
3721,-0.525,-0.315,
3722,-0.515,-0.305,
3723,-0.485,-0.315,
3724,-0.47,-0.31,
3725,-0.465,-0.31,
3726,-0.43,-0.315,
3727,-0.425,-0.325,
3728,-0.41,-0.34,
3729,-0.41,-0.34,
3730,-0.41,-0.36,
3731,-0.43,-0.37,
3732,-0.435,-0.375,
3733,-0.43,-0.39,
3734,-0.425,-0.38,
3735,-0.45,-0.39,
3736,-0.45,-0.395,
3737,-0.465,-0.365,
3738,-0.465,-0.37,
3739,-0.485,-0.375,
3740,-0.495,-0.395,
3741,-0.515,-0.4,
3742,-0.515,-0.415,
3743,-0.535,-0.43,
3744,-0.565,-0.435,
3745,-0.59,-0.415,
3746,-0.595,-0.41,
3747,-0.6,-0.395,
3748,-0.61,-0.39,
3749,-0.62,-0.39,
3750,-0.61,-0.385,
3751,-0.605,-0.405,
3752,-0.625,-0.395,
3753,-0.635,-0.405,
3754,-0.65,-0.41,
3755,-0.66,-0.415,
3756,-0.68,-0.41,
3757,-0.665,-0.41,
3758,-0.65,-0.41,
3759,-0.65,-0.415,
3760,-0.65,-0.395,
3761,-0.64,-0.38,
3762,-0.645,-0.385,
3763,-0.635,-0.395,
3764,-0.64,-0.395,
3765,-0.635,-0.415,
3766,-0.645,-0.41,
3767,-0.64,-0.42,
3768,-0.645,-0.415,
3769,-0.645,-0.42,
3770,-0.635,-0.405,
3771,-0.625,-0.395,
3772,-0.62,-0.38,
3773,-0.605,-0.375,
3774,-0.59,-0.385,
3775,-0.585,-0.39,
3776,-0.585,-0.405,
3777,-0.585,-0.405,
3778,-0.59,-0.42,
3779,-0.6,-0.415,
3780,-0.61,-0.41,
3781,-0.59,-0.4,
3782,-0.59,-0.395,
3783,-0.575,-0.4,
3784,-0.555,-0.4,
3785,-0.555,-0.405,
3786,-0.55,-0.375,
3787,-0.55,-0.39,
3788,-0.55,-0.39,
3789,-0.56,-0.4,
3790,-0.555,-0.41,
3791,-0.56,-0.42,
3792,-0.555,-0.425,
3793,-0.56,-0.42,
3794,-0.57,-0.42,
3795,-0.565,-0.4,
3796,-0.57,-0.39,
3797,-0.55,-0.385,
3798,-0.545,-0.38,
3799,-0.55,-0.395,
3800,-0.55,-0.4,
3801,-0.56,-0.405,
3802,-0.565,-0.42,
3803,-0.575,-0.42,
3804,-0.59,-0.415,
3805,-0.595,-0.4,
3806,-0.59,-0.415,
3807,-0.59,-0.41,
3808,-0.58,-0.39,
3809,-0.585,-0.4,
3810,-0.585,-0.4,
3811,-0.59,-0.39,
3812,-0.6,-0.4,
3813,-0.605,-0.405,
3814,-0.61,-0.415,
3815,-0.615,-0.415,
3816,-0.63,-0.435,
3817,-0.63,-0.41,
3818,-0.625,-0.425,
3819,-0.62,-0.41,
3820,-0.63,-0.4,
3821,-0.635,-0.39,
3822,-0.63,-0.39,
3823,-0.63,-0.395,
3824,-0.62,-0.41,
3825,-0.63,-0.425,
3826,-0.625,-0.425,
3827,-0.65,-0.43,
3828,-0.655,-0.43,
3829,-0.655,-0.42,
3830,-0.665,-0.41,
3831,-0.65,-0.405,
3832,-0.665,-0.405,
3833,-0.655,-0.395,
3834,-0.65,-0.395,
3835,-0.66,-0.405,
3836,-0.665,-0.4,
3837,-0.675,-0.405,
3838,-0.68,-0.41,
3839,-0.685,-0.42,
3840,-0.68,-0.42,
3841,-0.67,-0.42,
3842,-0.67,-0.42,
3843,-0.675,-0.41,
3844,-0.68,-0.405,
3845,-0.66,-0.4,
3846,-0.655,-0.385,
3847,-0.66,-0.38,
3848,-0.66,-0.4,
3849,-0.655,-0.405,
3850,-0.66,-0.42,
3851,-0.67,-0.435,
3852,-0.685,-0.425,
3853,-0.69,-0.415,
3854,-0.68,-0.4,
3855,-0.68,-0.39,
3856,-0.66,-0.39,
3857,-0.66,-0.395,
3858,-0.645,-0.39,
3859,-0.645,-0.405,
3860,-0.65,-0.41,
3861,-0.66,-0.41,
3862,-0.67,-0.405,
3863,-0.675,-0.405,
3864,-0.675,-0.405,
3865,-0.68,-0.4,
3866,-0.675,-0.405,
3867,-0.67,-0.41,
3868,-0.66,-0.41,
3869,-0.66,-0.4,
3870,-0.65,-0.39,
3871,-0.655,-0.39,
3872,-0.645,-0.39,
3873,-0.66,-0.405,
3874,-0.665,-0.4,
3875,-0.66,-0.41,
3876,-0.66,-0.42,
3877,-0.645,-0.415,
3878,-0.63,-0.41,
3879,-0.63,-0.405,
3880,-0.61,-0.375,
3881,-0.6,-0.38,
3882,-0.575,-0.37,
3883,-0.56,-0.365,
3884,-0.545,-0.365,
3885,-0.545,-0.35,
3886,-0.53,-0.36,
3887,-0.525,-0.35,
3888,-0.52,-0.365,
3889,-0.51,-0.365,
3890,-0.51,-0.38,
3891,-0.515,-0.39,
3892,-0.53,-0.41,
3893,-0.54,-0.43,
3894,-0.535,-0.435,
3895,-0.545,-0.45,
3896,-0.55,-0.44,
3897,-0.565,-0.435,
3898,-0.565,-0.43,
3899,-0.585,-0.43,
3900,-0.595,-0.435,
3901,-0.605,-0.425,
3902,-0.64,-0.415,
3903,-0.65,-0.395,
3904,-0.64,-0.4,
3905,-0.65,-0.4,
3906,-0.64,-0.39,
3907,-0.635,-0.385,
3908,-0.64,-0.405,
3909,-0.64,-0.415,
3910,-0.64,-0.43,
3911,-0.635,-0.44,
3912,-0.64,-0.435,
3913,-0.635,-0.425,
3914,-0.62,-0.415,
3915,-0.59,-0.4,
3916,-0.565,-0.395,
3917,-0.51,-0.385,
3918,-0.44,-0.365,
3919,-0.28,-0.345,
3920,-0.045,-0.29,
3921,0.265,-0.25,
3922,0.635,-0.2,
3923,1.05,-0.195,
3924,1.365,-0.23,
3925,1.58,-0.305,N
3926,1.61,-0.43,
3927,1.47,-0.595,
3928,1.1,-0.765,
3929,0.495,-0.93,
3930,-0.145,-1.1,
3931,-0.785,-1.215,
3932,-1.425,-1.24,
3933,-1.605,-1.205,
3934,-1.49,-1.09,
3935,-1.22,-0.99,
3936,-0.97,-0.895,
3937,-0.8,-0.8,
3938,-0.735,-0.705,
3939,-0.75,-0.63,
3940,-0.805,-0.57,
3941,-0.835,-0.535,
3942,-0.825,-0.49,
3943,-0.8,-0.475,
3944,-0.765,-0.46,
3945,-0.74,-0.445,
3946,-0.725,-0.44,
3947,-0.745,-0.42,
3948,-0.765,-0.41,
3949,-0.775,-0.395,
3950,-0.79,-0.38,
3951,-0.795,-0.37,
3952,-0.795,-0.36,
3953,-0.79,-0.36,
3954,-0.775,-0.36,
3955,-0.77,-0.37,
3956,-0.785,-0.36,
3957,-0.785,-0.37,
3958,-0.77,-0.365,
3959,-0.775,-0.36,
3960,-0.775,-0.345,
3961,-0.775,-0.36,
3962,-0.755,-0.355,
3963,-0.76,-0.345,
3964,-0.75,-0.345,
3965,-0.74,-0.335,
3966,-0.72,-0.33,
3967,-0.73,-0.335,
3968,-0.73,-0.34,
3969,-0.72,-0.34,
3970,-0.72,-0.35,
3971,-0.725,-0.36,
3972,-0.72,-0.36,
3973,-0.715,-0.345,
3974,-0.705,-0.345,
3975,-0.705,-0.325,
3976,-0.7,-0.325,
3977,-0.68,-0.32,
3978,-0.67,-0.325,
3979,-0.665,-0.345,
3980,-0.665,-0.34,
3981,-0.665,-0.34,
3982,-0.67,-0.345,
3983,-0.66,-0.345,
3984,-0.65,-0.33,
3985,-0.65,-0.31,
3986,-0.64,-0.34,
3987,-0.62,-0.325,
3988,-0.625,-0.32,
3989,-0.605,-0.32,
3990,-0.6,-0.32,
3991,-0.595,-0.315,
3992,-0.59,-0.32,
3993,-0.59,-0.325,
3994,-0.59,-0.335,
3995,-0.585,-0.34,
3996,-0.57,-0.345,
3997,-0.565,-0.34,
3998,-0.565,-0.335,
3999,-0.55,-0.31,
4000,-0.54,-0.305,
4001,-0.54,-0.305,
4002,-0.525,-0.305,
4003,-0.525,-0.31,
4004,-0.515,-0.32,
4005,-0.515,-0.33,
4006,-0.51,-0.33,
4007,-0.515,-0.335,
4008,-0.525,-0.335,
4009,-0.53,-0.32,
4010,-0.51,-0.305,
4011,-0.505,-0.31,
4012,-0.49,-0.3,
4013,-0.485,-0.3,
4014,-0.485,-0.3,
4015,-0.475,-0.31,
4016,-0.465,-0.31,
4017,-0.465,-0.325,
4018,-0.47,-0.32,
4019,-0.465,-0.325,
4020,-0.465,-0.33,
4021,-0.46,-0.32,
4022,-0.45,-0.32,
4023,-0.45,-0.32,
4024,-0.44,-0.31,
4025,-0.43,-0.305,
4026,-0.415,-0.315,
4027,-0.4,-0.32,
4028,-0.375,-0.325,
4029,-0.38,-0.34,
4030,-0.365,-0.35,
4031,-0.355,-0.355,
4032,-0.34,-0.38,
4033,-0.33,-0.37,
4034,-0.34,-0.37,
4035,-0.33,-0.365,
4036,-0.335,-0.365,
4037,-0.335,-0.355,
4038,-0.34,-0.365,
4039,-0.355,-0.385,
4040,-0.37,-0.395,
4041,-0.4,-0.41,
4042,-0.43,-0.405,
4043,-0.455,-0.425,
4044,-0.48,-0.425,
4045,-0.505,-0.415,
4046,-0.525,-0.425,
4047,-0.53,-0.425,
4048,-0.535,-0.415,
4049,-0.55,-0.4,
4050,-0.565,-0.39,
4051,-0.58,-0.395,
4052,-0.58,-0.4,
4053,-0.595,-0.415,
4054,-0.6,-0.435,
4055,-0.61,-0.43,
4056,-0.615,-0.43,
4057,-0.62,-0.415,
4058,-0.615,-0.41,
4059,-0.625,-0.395,
4060,-0.62,-0.4,
4061,-0.605,-0.395,
4062,-0.6,-0.39,
4063,-0.61,-0.405,
4064,-0.605,-0.41,
4065,-0.605,-0.405,
4066,-0.605,-0.415,
4067,-0.63,-0.415,
4068,-0.615,-0.415,
4069,-0.61,-0.415,
4070,-0.605,-0.41,
4071,-0.595,-0.4,
4072,-0.58,-0.395,
4073,-0.575,-0.395,
4074,-0.57,-0.38,
4075,-0.57,-0.395,
4076,-0.56,-0.395,
4077,-0.57,-0.405,
4078,-0.57,-0.41,
4079,-0.56,-0.43,
4080,-0.545,-0.415,
4081,-0.56,-0.415,
4082,-0.55,-0.4,
4083,-0.55,-0.39,
4084,-0.55,-0.39,
4085,-0.535,-0.385,
4086,-0.525,-0.39,
4087,-0.505,-0.405,
4088,-0.52,-0.41,
4089,-0.525,-0.41,
4090,-0.535,-0.415,
4091,-0.535,-0.41,
4092,-0.54,-0.42,
4093,-0.545,-0.405,
4094,-0.535,-0.42,
4095,-0.535,-0.41,
4096,-0.53,-0.4,
4097,-0.53,-0.39,
4098,-0.525,-0.39,
4099,-0.525,-0.395,
4100,-0.54,-0.39,
4101,-0.545,-0.41,
4102,-0.56,-0.42,
4103,-0.545,-0.425,
4104,-0.55,-0.43,
4105,-0.56,-0.42,
4106,-0.575,-0.415,
4107,-0.56,-0.405,
4108,-0.56,-0.385,
4109,-0.555,-0.375,
4110,-0.56,-0.38,
4111,-0.555,-0.395,
4112,-0.56,-0.405,
4113,-0.575,-0.42,
4114,-0.595,-0.42,
4115,-0.605,-0.415,
4116,-0.605,-0.415,
4117,-0.605,-0.41,
4118,-0.605,-0.405,
4119,-0.6,-0.405,
4120,-0.595,-0.405,
4121,-0.6,-0.405,
4122,-0.595,-0.395,
4123,-0.605,-0.405,
4124,-0.595,-0.39,
4125,-0.6,-0.405,
4126,-0.615,-0.43,
4127,-0.62,-0.435,
4128,-0.625,-0.445,
4129,-0.635,-0.43,
4130,-0.635,-0.415,
4131,-0.63,-0.4,
4132,-0.63,-0.4,
4133,-0.635,-0.395,
4134,-0.635,-0.38,
4135,-0.625,-0.41,
4136,-0.635,-0.41,
4137,-0.625,-0.42,
4138,-0.635,-0.44,
4139,-0.63,-0.42,
4140,-0.655,-0.42,
4141,-0.645,-0.395,
4142,-0.655,-0.405,
4143,-0.645,-0.4,
4144,-0.64,-0.405,
4145,-0.625,-0.395,
4146,-0.635,-0.39,
4147,-0.635,-0.405,
4148,-0.64,-0.41,
4149,-0.655,-0.41,
4150,-0.65,-0.415,
4151,-0.665,-0.41,
4152,-0.655,-0.425,
4153,-0.665,-0.42,
4154,-0.655,-0.415,
4155,-0.67,-0.42,
4156,-0.66,-0.39,
4157,-0.655,-0.385,
4158,-0.65,-0.38,
4159,-0.655,-0.39,
4160,-0.645,-0.405,
4161,-0.65,-0.41,
4162,-0.65,-0.43,
4163,-0.655,-0.42,
4164,-0.665,-0.43,
4165,-0.67,-0.42,
4166,-0.67,-0.415,
4167,-0.66,-0.4,
4168,-0.65,-0.39,
4169,-0.65,-0.385,
4170,-0.635,-0.385,
4171,-0.64,-0.395,
4172,-0.64,-0.415,
4173,-0.64,-0.405,
4174,-0.645,-0.415,
4175,-0.655,-0.42,
4176,-0.645,-0.42,
4177,-0.655,-0.41,
4178,-0.645,-0.405,
4179,-0.635,-0.405,
4180,-0.615,-0.405,
4181,-0.6,-0.4,
4182,-0.585,-0.395,
4183,-0.58,-0.38,
4184,-0.575,-0.385,
4185,-0.565,-0.37,
4186,-0.55,-0.36,
4187,-0.54,-0.36,
4188,-0.525,-0.37,
4189,-0.525,-0.375,
4190,-0.525,-0.38,
4191,-0.515,-0.39,
4192,-0.515,-0.415,
4193,-0.54,-0.435,
4194,-0.545,-0.44,
4195,-0.555,-0.47,
4196,-0.57,-0.47,
4197,-0.57,-0.46,
4198,-0.575,-0.445,
4199,-0.595,-0.455,
4200,-0.605,-0.45,
4201,-0.615,-0.43,
4202,-0.635,-0.43,
4203,-0.635,-0.42,
4204,-0.65,-0.415,
4205,-0.645,-0.405,
4206,-0.65,-0.41,
4207,-0.65,-0.415,
4208,-0.65,-0.415,
4209,-0.65,-0.425,
4210,-0.65,-0.44,
4211,-0.655,-0.46,
4212,-0.645,-0.455,
4213,-0.64,-0.445,
4214,-0.63,-0.43,
4215,-0.605,-0.415,
4216,-0.565,-0.385,
4217,-0.52,-0.38,
4218,-0.41,-0.355,
4219,-0.27,-0.345,
4220,-0.04,-0.29,
4221,0.275,-0.275,
4222,0.635,-0.24,
4223,1.005,-0.215,
4224,1.32,-0.245,
4225,1.495,-0.32,N
4226,1.515,-0.43,
4227,1.37,-0.575,
4228,1.0,-0.755,
4229,0.42,-0.935,
4230,-0.22,-1.09,
4231,-0.86,-1.22,
4232,-1.395,-1.245,
4233,-1.54,-1.2,
4234,-1.43,-1.1,
4235,-1.2,-0.985,
4236,-0.965,-0.895,
4237,-0.815,-0.79,
4238,-0.765,-0.71,
4239,-0.77,-0.64,
4240,-0.795,-0.575,
4241,-0.835,-0.54,
4242,-0.825,-0.495,
4243,-0.8,-0.48,
4244,-0.775,-0.455,
4245,-0.75,-0.445,
4246,-0.75,-0.435,
4247,-0.75,-0.43,
4248,-0.76,-0.43,
4249,-0.785,-0.425,
4250,-0.79,-0.405,
4251,-0.8,-0.385,
4252,-0.79,-0.375,
4253,-0.78,-0.37,
4254,-0.775,-0.37,
4255,-0.775,-0.375,
4256,-0.795,-0.37,
4257,-0.785,-0.375,
4258,-0.8,-0.375,
4259,-0.795,-0.375,
4260,-0.8,-0.37,
4261,-0.79,-0.37,
4262,-0.775,-0.37,
4263,-0.765,-0.365,
4264,-0.755,-0.355,
4265,-0.745,-0.36,
4266,-0.745,-0.345,
4267,-0.745,-0.34,
4268,-0.735,-0.34,
4269,-0.725,-0.35,
4270,-0.73,-0.355,
4271,-0.74,-0.36,
4272,-0.73,-0.38,
4273,-0.72,-0.37,
4274,-0.72,-0.365,
4275,-0.715,-0.355,
4276,-0.705,-0.34,
4277,-0.69,-0.33,
4278,-0.675,-0.33,
4279,-0.67,-0.33,
4280,-0.65,-0.33,
4281,-0.67,-0.335,
4282,-0.67,-0.345,
4283,-0.66,-0.35,
4284,-0.67,-0.36,
4285,-0.67,-0.34,
4286,-0.665,-0.33,
4287,-0.65,-0.335,
4288,-0.64,-0.33,
4289,-0.62,-0.325,
4290,-0.615,-0.325,
4291,-0.62,-0.335,
4292,-0.62,-0.335,
4293,-0.615,-0.34,
4294,-0.605,-0.33,
4295,-0.615,-0.34,
4296,-0.61,-0.345,
4297,-0.585,-0.33,
4298,-0.59,-0.345,
4299,-0.57,-0.345,
4300,-0.565,-0.335,
4301,-0.55,-0.305,
4302,-0.535,-0.305,
4303,-0.545,-0.315,
4304,-0.54,-0.33,
4305,-0.54,-0.32,
4306,-0.535,-0.325,
4307,-0.53,-0.34,
4308,-0.54,-0.345,
4309,-0.55,-0.335,
4310,-0.545,-0.325,
4311,-0.54,-0.31,
4312,-0.535,-0.31,
4313,-0.535,-0.3,
4314,-0.525,-0.3,
4315,-0.515,-0.315,
4316,-0.515,-0.315,
4317,-0.51,-0.32,
4318,-0.51,-0.33,
4319,-0.51,-0.33,
4320,-0.515,-0.325,
4321,-0.52,-0.33,
4322,-0.5,-0.315,
4323,-0.505,-0.315,
4324,-0.495,-0.31,
4325,-0.48,-0.315,
4326,-0.455,-0.325,
4327,-0.455,-0.315,
4328,-0.445,-0.33,
4329,-0.42,-0.34,
4330,-0.41,-0.345,
4331,-0.4,-0.355,
4332,-0.39,-0.365,
4333,-0.385,-0.37,
4334,-0.37,-0.365,
4335,-0.375,-0.375,
4336,-0.37,-0.36,
4337,-0.39,-0.37,
4338,-0.395,-0.38,
4339,-0.395,-0.385,
4340,-0.41,-0.395,
4341,-0.42,-0.42,
4342,-0.45,-0.405,
4343,-0.47,-0.41,
4344,-0.5,-0.425,
4345,-0.52,-0.415,
4346,-0.535,-0.415,
4347,-0.55,-0.4,
4348,-0.535,-0.41,
4349,-0.545,-0.405,
4350,-0.55,-0.41,
4351,-0.56,-0.41,
4352,-0.575,-0.41,
4353,-0.59,-0.42,
4354,-0.605,-0.42,
4355,-0.61,-0.42,
4356,-0.61,-0.425,
4357,-0.61,-0.42,
4358,-0.635,-0.41,
4359,-0.635,-0.42,
4360,-0.63,-0.41,
4361,-0.625,-0.4,
4362,-0.62,-0.39,
4363,-0.61,-0.4,
4364,-0.605,-0.395,
4365,-0.62,-0.4,
4366,-0.61,-0.41,
4367,-0.595,-0.42,
4368,-0.61,-0.425,
4369,-0.62,-0.41,
4370,-0.62,-0.39,
4371,-0.625,-0.39,
4372,-0.605,-0.39,
4373,-0.6,-0.385,
4374,-0.585,-0.39,
4375,-0.58,-0.41,
4376,-0.57,-0.405,
4377,-0.565,-0.41,
4378,-0.57,-0.415,
4379,-0.565,-0.405,
4380,-0.57,-0.405,
4381,-0.57,-0.4,
4382,-0.575,-0.395,
4383,-0.565,-0.4,
4384,-0.555,-0.39,
4385,-0.53,-0.38,
4386,-0.525,-0.385,
4387,-0.525,-0.385,
4388,-0.52,-0.39,
4389,-0.52,-0.4,
4390,-0.52,-0.405,
4391,-0.52,-0.43,
4392,-0.525,-0.425,
4393,-0.53,-0.41,
4394,-0.52,-0.41,
4395,-0.52,-0.39,
4396,-0.52,-0.385,
4397,-0.515,-0.37,
4398,-0.5,-0.37,
4399,-0.51,-0.385,
4400,-0.51,-0.395,
4401,-0.52,-0.405,
4402,-0.54,-0.43,
4403,-0.535,-0.435,
4404,-0.535,-0.43,
4405,-0.545,-0.4,
4406,-0.54,-0.39,
4407,-0.545,-0.385,
4408,-0.535,-0.395,
4409,-0.525,-0.38,
4410,-0.53,-0.38,
4411,-0.54,-0.39,
4412,-0.555,-0.4,
4413,-0.56,-0.405,
4414,-0.575,-0.415,
4415,-0.58,-0.42,
4416,-0.58,-0.425,
4417,-0.58,-0.425,
4418,-0.575,-0.42,
4419,-0.585,-0.405,
4420,-0.585,-0.385,
4421,-0.59,-0.38,
4422,-0.595,-0.375,
4423,-0.61,-0.385,
4424,-0.615,-0.39,
4425,-0.6,-0.42,
4426,-0.61,-0.42,
4427,-0.62,-0.43,
4428,-0.62,-0.425,
4429,-0.62,-0.415,
4430,-0.61,-0.405,
4431,-0.61,-0.4,
4432,-0.61,-0.39,
4433,-0.6,-0.385,
4434,-0.59,-0.385,
4435,-0.585,-0.41,
4436,-0.595,-0.415,
4437,-0.615,-0.405,
4438,-0.625,-0.415,
4439,-0.635,-0.425,
4440,-0.635,-0.42,
4441,-0.635,-0.425,
4442,-0.635,-0.415,
4443,-0.62,-0.415,
4444,-0.62,-0.4,
4445,-0.625,-0.4,
4446,-0.62,-0.39,
4447,-0.61,-0.39,
4448,-0.615,-0.39,
4449,-0.635,-0.395,
4450,-0.64,-0.42,
4451,-0.63,-0.42,
4452,-0.645,-0.435,
4453,-0.65,-0.425,
4454,-0.65,-0.415,
4455,-0.65,-0.41,
4456,-0.63,-0.395,
4457,-0.63,-0.39,
4458,-0.615,-0.39,
4459,-0.615,-0.39,
4460,-0.62,-0.405,
4461,-0.62,-0.41,
4462,-0.63,-0.415,
4463,-0.64,-0.43,
4464,-0.65,-0.42,
4465,-0.645,-0.41,
4466,-0.655,-0.4,
4467,-0.65,-0.41,
4468,-0.64,-0.395,
4469,-0.63,-0.395,
4470,-0.615,-0.4,
4471,-0.615,-0.395,
4472,-0.62,-0.405,
4473,-0.615,-0.4,
4474,-0.62,-0.4,
4475,-0.625,-0.41,
4476,-0.635,-0.43,
4477,-0.64,-0.415,
4478,-0.63,-0.435,
4479,-0.63,-0.425,
4480,-0.61,-0.4,
4481,-0.605,-0.395,
4482,-0.585,-0.375,
4483,-0.575,-0.385,
4484,-0.565,-0.39,
4485,-0.545,-0.395,
4486,-0.53,-0.4,
4487,-0.535,-0.39,
4488,-0.525,-0.375,
4489,-0.51,-0.36,
4490,-0.505,-0.345,
4491,-0.475,-0.33,
4492,-0.455,-0.35,
4493,-0.46,-0.355,
4494,-0.46,-0.375,
4495,-0.485,-0.415,
4496,-0.505,-0.445,
4497,-0.52,-0.45,
4498,-0.545,-0.46,
4499,-0.55,-0.46,
4500,-0.545,-0.465,
4501,-0.555,-0.44,
4502,-0.53,-0.445,
4503,-0.55,-0.43,
4504,-0.56,-0.425,
4505,-0.565,-0.405,
4506,-0.575,-0.4,
4507,-0.615,-0.39,
4508,-0.62,-0.38,
4509,-0.625,-0.395,
4510,-0.63,-0.405,
4511,-0.625,-0.43,
4512,-0.625,-0.445,
4513,-0.625,-0.43,
4514,-0.62,-0.425,
4515,-0.615,-0.42,
4516,-0.61,-0.42,
4517,-0.615,-0.405,
4518,-0.6,-0.39,
4519,-0.59,-0.415,
4520,-0.565,-0.41,
4521,-0.54,-0.42,
4522,-0.515,-0.415,
4523,-0.48,-0.415,
4524,-0.39,-0.405,
4525,-0.26,-0.37,
4526,-0.04,-0.315,
4527,0.23,-0.27,
4528,0.585,-0.24,
4529,0.945,-0.225,
4530,1.27,-0.235,
4531,1.47,-0.29,N
4532,1.53,-0.405,
4533,1.425,-0.54,
4534,1.105,-0.695,
4535,0.545,-0.855,
4536,-0.095,-1.02,
4537,-0.735,-1.13,
4538,-1.34,-1.17,
4539,-1.535,-1.115,
4540,-1.47,-1.015,
4541,-1.245,-0.89,
4542,-1.005,-0.785,
4543,-0.845,-0.695,
4544,-0.775,-0.635,
4545,-0.77,-0.58,
4546,-0.795,-0.56,
4547,-0.82,-0.535,
4548,-0.84,-0.52,
4549,-0.825,-0.48,
4550,-0.79,-0.46,
4551,-0.76,-0.43,
4552,-0.74,-0.405,
4553,-0.74,-0.395,
4554,-0.75,-0.385,
4555,-0.76,-0.395,
4556,-0.77,-0.4,
4557,-0.765,-0.41,
4558,-0.775,-0.4,
4559,-0.77,-0.385,
4560,-0.77,-0.375,
4561,-0.77,-0.375,
4562,-0.76,-0.37,
4563,-0.77,-0.355,
4564,-0.75,-0.365,
4565,-0.74,-0.37,
4566,-0.735,-0.35,
4567,-0.735,-0.375,
4568,-0.73,-0.37,
4569,-0.735,-0.365,
4570,-0.725,-0.36,
4571,-0.735,-0.365,
4572,-0.71,-0.37,
4573,-0.71,-0.37,
4574,-0.705,-0.375,
4575,-0.705,-0.35,
4576,-0.685,-0.35,
4577,-0.69,-0.335,
4578,-0.67,-0.335,
4579,-0.67,-0.335,
4580,-0.66,-0.345,
4581,-0.675,-0.36,
4582,-0.66,-0.37,
4583,-0.66,-0.38,
4584,-0.655,-0.365,
4585,-0.655,-0.355,
4586,-0.635,-0.34,
4587,-0.625,-0.325,
4588,-0.61,-0.33,
4589,-0.61,-0.33,
4590,-0.6,-0.335,
4591,-0.595,-0.335,
4592,-0.6,-0.345,
4593,-0.6,-0.35,
4594,-0.6,-0.355,
4595,-0.6,-0.355,
4596,-0.6,-0.35,
4597,-0.59,-0.35,
4598,-0.58,-0.345,
4599,-0.565,-0.345,
4600,-0.55,-0.335,
4601,-0.555,-0.335,
4602,-0.53,-0.315,
4603,-0.525,-0.325,
4604,-0.525,-0.32,
4605,-0.52,-0.33,
4606,-0.535,-0.335,
4607,-0.525,-0.35,
4608,-0.525,-0.36,
4609,-0.53,-0.35,
4610,-0.525,-0.345,
4611,-0.52,-0.325,
4612,-0.51,-0.32,
4613,-0.5,-0.3,
4614,-0.485,-0.31,
4615,-0.48,-0.31,
4616,-0.475,-0.325,
4617,-0.475,-0.33,
4618,-0.495,-0.335,
4619,-0.5,-0.345,
4620,-0.5,-0.345,
4621,-0.51,-0.33,
4622,-0.505,-0.315,
4623,-0.5,-0.3,
4624,-0.5,-0.31,
4625,-0.48,-0.31,
4626,-0.475,-0.31,
4627,-0.465,-0.325,
4628,-0.455,-0.32,
4629,-0.445,-0.32,
4630,-0.455,-0.33,
4631,-0.455,-0.34,
4632,-0.44,-0.345,
4633,-0.435,-0.345,
4634,-0.43,-0.35,
4635,-0.41,-0.345,
4636,-0.405,-0.35,
4637,-0.385,-0.335,
4638,-0.38,-0.345,
4639,-0.355,-0.36,
4640,-0.345,-0.375,
4641,-0.34,-0.39,
4642,-0.345,-0.41,
4643,-0.375,-0.41,
4644,-0.38,-0.415,
4645,-0.4,-0.41,
4646,-0.415,-0.4,
4647,-0.445,-0.39,
4648,-0.445,-0.4,
4649,-0.445,-0.395,
4650,-0.445,-0.4,
4651,-0.45,-0.41,
4652,-0.485,-0.415,
4653,-0.505,-0.42,
4654,-0.525,-0.425,
4655,-0.54,-0.42,
4656,-0.545,-0.43,
4657,-0.55,-0.425,
4658,-0.565,-0.43,
4659,-0.57,-0.415,
4660,-0.57,-0.4,
4661,-0.59,-0.4,
4662,-0.58,-0.395,
4663,-0.585,-0.39,
4664,-0.6,-0.405,
4665,-0.605,-0.415,
4666,-0.62,-0.435,
4667,-0.605,-0.44,
4668,-0.605,-0.45,
4669,-0.625,-0.43,
4670,-0.615,-0.425,
4671,-0.59,-0.42,
4672,-0.595,-0.405,
4673,-0.565,-0.395,
4674,-0.57,-0.385,
4675,-0.565,-0.41,
4676,-0.56,-0.41,
4677,-0.575,-0.43,
4678,-0.59,-0.42,
4679,-0.59,-0.42,
4680,-0.59,-0.42,
4681,-0.595,-0.425,
4682,-0.59,-0.415,
4683,-0.565,-0.41,
4684,-0.545,-0.41,
4685,-0.54,-0.405,
4686,-0.525,-0.395,
4687,-0.52,-0.395,
4688,-0.525,-0.395,
4689,-0.515,-0.4,
4690,-0.515,-0.405,
4691,-0.52,-0.425,
4692,-0.515,-0.435,
4693,-0.52,-0.43,
4694,-0.515,-0.425,
4695,-0.52,-0.415,
4696,-0.505,-0.395,
4697,-0.515,-0.395,
4698,-0.5,-0.39,
4699,-0.5,-0.395,
4700,-0.49,-0.4,
4701,-0.485,-0.42,
4702,-0.5,-0.425,
4703,-0.505,-0.43,
4704,-0.515,-0.43,
4705,-0.51,-0.425,
4706,-0.515,-0.41,
4707,-0.53,-0.405,
4708,-0.51,-0.405,
4709,-0.505,-0.395,
4710,-0.495,-0.39,
4711,-0.49,-0.41,
4712,-0.5,-0.41,
4713,-0.505,-0.405,
4714,-0.515,-0.42,
4715,-0.52,-0.435,
4716,-0.535,-0.425,
4717,-0.535,-0.435,
4718,-0.545,-0.43,
4719,-0.545,-0.425,
4720,-0.55,-0.415,
4721,-0.55,-0.405,
4722,-0.555,-0.375,
4723,-0.555,-0.4,
4724,-0.565,-0.4,
4725,-0.565,-0.41,
4726,-0.575,-0.425,
4727,-0.575,-0.445,
4728,-0.59,-0.44,
4729,-0.61,-0.43,
4730,-0.59,-0.42,
4731,-0.6,-0.415,
4732,-0.585,-0.395,
4733,-0.58,-0.395,
4734,-0.575,-0.395,
4735,-0.58,-0.41,
4736,-0.59,-0.415,
4737,-0.61,-0.41,
4738,-0.62,-0.42,
4739,-0.62,-0.425,
4740,-0.63,-0.425,
4741,-0.63,-0.42,
4742,-0.62,-0.41,
4743,-0.625,-0.435,
4744,-0.605,-0.42,
4745,-0.61,-0.4,
4746,-0.6,-0.39,
4747,-0.595,-0.395,
4748,-0.6,-0.39,
4749,-0.625,-0.395,
4750,-0.615,-0.405,
4751,-0.63,-0.43,
4752,-0.635,-0.43,
4753,-0.645,-0.43,
4754,-0.65,-0.425,
4755,-0.65,-0.415,
4756,-0.645,-0.405,
4757,-0.63,-0.395,
4758,-0.625,-0.385,
4759,-0.625,-0.4,
4760,-0.625,-0.41,
4761,-0.625,-0.42,
4762,-0.62,-0.41,
4763,-0.64,-0.425,
4764,-0.63,-0.43,
4765,-0.645,-0.415,
4766,-0.64,-0.405,
4767,-0.635,-0.405,
4768,-0.635,-0.405,
4769,-0.65,-0.405,
4770,-0.63,-0.405,
4771,-0.64,-0.41,
4772,-0.64,-0.405,
4773,-0.63,-0.405,
4774,-0.63,-0.405,
4775,-0.645,-0.425,
4776,-0.64,-0.435,
4777,-0.63,-0.425,
4778,-0.63,-0.415,
4779,-0.625,-0.405,
4780,-0.62,-0.4,
4781,-0.62,-0.385,
4782,-0.6,-0.39,
4783,-0.605,-0.4,
4784,-0.595,-0.395,
4785,-0.595,-0.42,
4786,-0.595,-0.415,
4787,-0.58,-0.42,
4788,-0.575,-0.405,
4789,-0.565,-0.395,
4790,-0.525,-0.38,
4791,-0.505,-0.365,
4792,-0.48,-0.35,
4793,-0.465,-0.345,
4794,-0.45,-0.35,
4795,-0.45,-0.36,
4796,-0.465,-0.375,
4797,-0.475,-0.395,
4798,-0.5,-0.42,
4799,-0.515,-0.45,
4800,-0.535,-0.455,
4801,-0.54,-0.465,
4802,-0.54,-0.455,
4803,-0.53,-0.45,
4804,-0.525,-0.44,
4805,-0.525,-0.425,
4806,-0.53,-0.4,
4807,-0.555,-0.405,
4808,-0.56,-0.405,
4809,-0.575,-0.41,
4810,-0.59,-0.415,
4811,-0.605,-0.425,
4812,-0.635,-0.435,
4813,-0.625,-0.43,
4814,-0.63,-0.415,
4815,-0.62,-0.41,
4816,-0.62,-0.41,
4817,-0.605,-0.405,
4818,-0.59,-0.415,
4819,-0.58,-0.415,
4820,-0.595,-0.415,
4821,-0.57,-0.425,
4822,-0.54,-0.415,
4823,-0.5,-0.42,
4824,-0.455,-0.415,
4825,-0.375,-0.39,
4826,-0.255,-0.375,
4827,-0.055,-0.345,
4828,0.21,-0.285,
4829,0.545,-0.235,
4830,0.91,-0.205,
4831,1.24,-0.22,
4832,1.455,-0.28,N
4833,1.525,-0.375,
4834,1.43,-0.515,
4835,1.14,-0.67,
4836,0.635,-0.835,
4837,-0.005,-0.98,
4838,-0.645,-1.09,
4839,-1.27,-1.145,
4840,-1.52,-1.1,
4841,-1.485,-1.005,
4842,-1.285,-0.895,
4843,-1.045,-0.805,
4844,-0.875,-0.71,
4845,-0.79,-0.64,
4846,-0.77,-0.59,
4847,-0.805,-0.54,
4848,-0.815,-0.52,
4849,-0.825,-0.48,
4850,-0.805,-0.455,
4851,-0.755,-0.435,
4852,-0.74,-0.42,
4853,-0.705,-0.405,
4854,-0.7,-0.39,
4855,-0.71,-0.4,
4856,-0.725,-0.39,
4857,-0.735,-0.385,
4858,-0.745,-0.385,
4859,-0.765,-0.375,
4860,-0.77,-0.38,
4861,-0.755,-0.39,
4862,-0.755,-0.38,
4863,-0.755,-0.385,
4864,-0.75,-0.375,
4865,-0.75,-0.355,
4866,-0.725,-0.34,
4867,-0.715,-0.345,
4868,-0.705,-0.36,
4869,-0.705,-0.36,
4870,-0.7,-0.375,
4871,-0.7,-0.375,
4872,-0.71,-0.37,
4873,-0.705,-0.36,
4874,-0.695,-0.345,
4875,-0.69,-0.34,
4876,-0.69,-0.33,
4877,-0.675,-0.335,
4878,-0.67,-0.335,
4879,-0.67,-0.345,
4880,-0.665,-0.355,
4881,-0.66,-0.355,
4882,-0.66,-0.36,
4883,-0.67,-0.36,
4884,-0.66,-0.35,
4885,-0.655,-0.35,
4886,-0.645,-0.345,
4887,-0.635,-0.355,
4888,-0.625,-0.34,
4889,-0.62,-0.345,
4890,-0.6,-0.34,
4891,-0.605,-0.33,
4892,-0.59,-0.335,
4893,-0.595,-0.325,
4894,-0.59,-0.34,
4895,-0.595,-0.355,
4896,-0.59,-0.365,
4897,-0.58,-0.355,
4898,-0.575,-0.35,
4899,-0.57,-0.345,
4900,-0.56,-0.335,
4901,-0.555,-0.325,
4902,-0.54,-0.32,
4903,-0.53,-0.315,
4904,-0.525,-0.335,
4905,-0.525,-0.335,
4906,-0.52,-0.345,
4907,-0.53,-0.345,
4908,-0.535,-0.34,
4909,-0.535,-0.32,
4910,-0.54,-0.325,
4911,-0.52,-0.32,
4912,-0.51,-0.31,
4913,-0.5,-0.325,
4914,-0.485,-0.325,
4915,-0.49,-0.33,
4916,-0.47,-0.33,
4917,-0.48,-0.325,
4918,-0.495,-0.32,
4919,-0.49,-0.33,
4920,-0.5,-0.325,
4921,-0.495,-0.325,
4922,-0.495,-0.325,
4923,-0.485,-0.31,
4924,-0.49,-0.305,
4925,-0.49,-0.295,
4926,-0.485,-0.295,
4927,-0.48,-0.305,
4928,-0.47,-0.31,
4929,-0.465,-0.33,
4930,-0.455,-0.345,
4931,-0.45,-0.335,
4932,-0.445,-0.345,
4933,-0.435,-0.35,
4934,-0.42,-0.335,
4935,-0.405,-0.325,
4936,-0.37,-0.33,
4937,-0.36,-0.335,
4938,-0.335,-0.345,
4939,-0.345,-0.365,
4940,-0.345,-0.365,
4941,-0.355,-0.385,
4942,-0.365,-0.395,
4943,-0.38,-0.39,
4944,-0.395,-0.4,
4945,-0.415,-0.41,
4946,-0.43,-0.41,
4947,-0.435,-0.395,
4948,-0.45,-0.395,
4949,-0.46,-0.39,
4950,-0.47,-0.375,
4951,-0.475,-0.385,
4952,-0.5,-0.395,
4953,-0.515,-0.41,
4954,-0.53,-0.42,
4955,-0.555,-0.43,
4956,-0.58,-0.435,
4957,-0.6,-0.42,
4958,-0.59,-0.4,
4959,-0.575,-0.4,
4960,-0.58,-0.395,
4961,-0.575,-0.39,
4962,-0.56,-0.39,
4963,-0.57,-0.395,
4964,-0.57,-0.405,
4965,-0.58,-0.4,
4966,-0.6,-0.41,
4967,-0.61,-0.415,
4968,-0.615,-0.405,
4969,-0.62,-0.41,
4970,-0.63,-0.4,
4971,-0.605,-0.41,
4972,-0.61,-0.395,
4973,-0.585,-0.395,
4974,-0.58,-0.375,
4975,-0.57,-0.39,
4976,-0.565,-0.39,
4977,-0.57,-0.4,
4978,-0.575,-0.41,
4979,-0.58,-0.415,
4980,-0.58,-0.42,
4981,-0.57,-0.415,
4982,-0.575,-0.405,
4983,-0.565,-0.385,
4984,-0.555,-0.375,
4985,-0.54,-0.37,
4986,-0.52,-0.385,
4987,-0.51,-0.4,
4988,-0.515,-0.39,
4989,-0.51,-0.405,
4990,-0.515,-0.41,
4991,-0.515,-0.405,
4992,-0.52,-0.4,
4993,-0.53,-0.4,
4994,-0.515,-0.395,
4995,-0.51,-0.39,
4996,-0.51,-0.39,
4997,-0.49,-0.385,
4998,-0.48,-0.38,
4999,-0.485,-0.385,
5000,-0.49,-0.385,
5001,-0.495,-0.4,
5002,-0.495,-0.415,
5003,-0.505,-0.415,
5004,-0.505,-0.42,
5005,-0.51,-0.41,
5006,-0.51,-0.395,
5007,-0.5,-0.39,
5008,-0.495,-0.38,
5009,-0.5,-0.385,
5010,-0.495,-0.38,
5011,-0.49,-0.4,
5012,-0.505,-0.4,
5013,-0.515,-0.4,
5014,-0.52,-0.4,
5015,-0.53,-0.405,
5016,-0.545,-0.405,
5017,-0.56,-0.39,
5018,-0.55,-0.4,
5019,-0.56,-0.4,
5020,-0.56,-0.395,
5021,-0.56,-0.39,
5022,-0.55,-0.38,
5023,-0.56,-0.385,
5024,-0.565,-0.39,
5025,-0.575,-0.385,
5026,-0.585,-0.4,
5027,-0.595,-0.425,
5028,-0.605,-0.415,
5029,-0.615,-0.4,
5030,-0.605,-0.395,
5031,-0.605,-0.385,
5032,-0.6,-0.385,
5033,-0.6,-0.375,
5034,-0.585,-0.385,
5035,-0.585,-0.4,
5036,-0.59,-0.395,
5037,-0.59,-0.4,
5038,-0.595,-0.405,
5039,-0.605,-0.395,
5040,-0.62,-0.4,
5041,-0.625,-0.395,
5042,-0.62,-0.395,
5043,-0.62,-0.395,
5044,-0.61,-0.4,
5045,-0.615,-0.39,
5046,-0.6,-0.38,
5047,-0.605,-0.38,
5048,-0.605,-0.39,
5049,-0.605,-0.385,
5050,-0.61,-0.395,
5051,-0.62,-0.405,
5052,-0.625,-0.415,
5053,-0.63,-0.405,
5054,-0.635,-0.395,
5055,-0.635,-0.38,
5056,-0.63,-0.375,
5057,-0.62,-0.36,
5058,-0.62,-0.36,
5059,-0.605,-0.38,
5060,-0.605,-0.38,
5061,-0.61,-0.405,
5062,-0.62,-0.405,
5063,-0.63,-0.41,
5064,-0.64,-0.405,
5065,-0.65,-0.395,
5066,-0.635,-0.395,
5067,-0.64,-0.39,
5068,-0.635,-0.38,
5069,-0.635,-0.385,
5070,-0.625,-0.385,
5071,-0.615,-0.38,
5072,-0.615,-0.385,
5073,-0.61,-0.38,
5074,-0.61,-0.4,
5075,-0.595,-0.41,
5076,-0.59,-0.415,
5077,-0.59,-0.4,
5078,-0.585,-0.395,
5079,-0.58,-0.385,
5080,-0.56,-0.375,
5081,-0.535,-0.365,
5082,-0.515,-0.35,
5083,-0.51,-0.355,
5084,-0.475,-0.36,
5085,-0.47,-0.36,
5086,-0.465,-0.35,
5087,-0.47,-0.345,
5088,-0.465,-0.345,
5089,-0.47,-0.345,
5090,-0.475,-0.355,
5091,-0.475,-0.38,
5092,-0.49,-0.395,
5093,-0.5,-0.405,
5094,-0.515,-0.41,
5095,-0.515,-0.41,
5096,-0.5,-0.4,
5097,-0.495,-0.405,
5098,-0.52,-0.405,
5099,-0.545,-0.4,
5100,-0.56,-0.41,
5101,-0.555,-0.4,
5102,-0.555,-0.41,
5103,-0.58,-0.395,
5104,-0.6,-0.375,
5105,-0.6,-0.37,
5106,-0.605,-0.37,
5107,-0.61,-0.37,
5108,-0.605,-0.38,
5109,-0.605,-0.405,
5110,-0.61,-0.41,
5111,-0.615,-0.42,
5112,-0.615,-0.42,
5113,-0.615,-0.41,
5114,-0.615,-0.395,
5115,-0.595,-0.39,
5116,-0.575,-0.38,
5117,-0.555,-0.375,
5118,-0.51,-0.365,
5119,-0.46,-0.375,
5120,-0.42,-0.375,
5121,-0.34,-0.36,
5122,-0.215,-0.345,
5123,-0.02,-0.3,
5124,0.23,-0.265,
5125,0.57,-0.225,
5126,0.94,-0.2,
5127,1.28,-0.215,
5128,1.51,-0.285,N
5129,1.59,-0.375,
5130,1.495,-0.495,
5131,1.135,-0.655,
5132,0.515,-0.835,
5133,-0.125,-0.995,
5134,-0.765,-1.075,
5135,-1.405,-1.1,
5136,-1.585,-1.025,
5137,-1.445,-0.905,
5138,-1.175,-0.78,
5139,-0.95,-0.66,
5140,-0.79,-0.565,
5141,-0.715,-0.485,
5142,-0.695,-0.455,
5143,-0.71,-0.445,
5144,-0.71,-0.445,
5145,-0.725,-0.435,
5146,-0.725,-0.42,
5147,-0.725,-0.415,
5148,-0.74,-0.405,
5149,-0.745,-0.4,
5150,-0.755,-0.38,
5151,-0.765,-0.365,
5152,-0.755,-0.365,
5153,-0.74,-0.36,
5154,-0.73,-0.35,
5155,-0.715,-0.35,
5156,-0.72,-0.345,
5157,-0.715,-0.35,
5158,-0.725,-0.355,
5159,-0.715,-0.365,
5160,-0.715,-0.375,
5161,-0.715,-0.37,
5162,-0.715,-0.35,
5163,-0.71,-0.35,
5164,-0.7,-0.335,
5165,-0.71,-0.315,
5166,-0.69,-0.32,
5167,-0.68,-0.32,
5168,-0.675,-0.325,
5169,-0.675,-0.345,
5170,-0.685,-0.35,
5171,-0.67,-0.36,
5172,-0.69,-0.355,
5173,-0.7,-0.34,
5174,-0.685,-0.34,
5175,-0.67,-0.335,
5176,-0.65,-0.31,
5177,-0.635,-0.31,
5178,-0.625,-0.315,
5179,-0.615,-0.325,
5180,-0.615,-0.315,
5181,-0.615,-0.32,
5182,-0.615,-0.325,
5183,-0.615,-0.33,
5184,-0.62,-0.345,
5185,-0.61,-0.33,
5186,-0.6,-0.34,
5187,-0.59,-0.32,
5188,-0.58,-0.33,
5189,-0.575,-0.32,
5190,-0.565,-0.295,
5191,-0.565,-0.305,
5192,-0.555,-0.295,
5193,-0.545,-0.3,
5194,-0.55,-0.325,
5195,-0.545,-0.325,
5196,-0.545,-0.345,
5197,-0.56,-0.335,
5198,-0.535,-0.33,
5199,-0.54,-0.31,
5200,-0.525,-0.305,
5201,-0.515,-0.29,
5202,-0.51,-0.29,
5203,-0.49,-0.295,
5204,-0.485,-0.3,
5205,-0.47,-0.31,
5206,-0.485,-0.325,
5207,-0.485,-0.315,
5208,-0.485,-0.325,
5209,-0.495,-0.31,
5210,-0.48,-0.31,
5211,-0.49,-0.305,
5212,-0.475,-0.29,
5213,-0.475,-0.29,
5214,-0.465,-0.28,
5215,-0.46,-0.275,
5216,-0.435,-0.28,
5217,-0.445,-0.295,
5218,-0.45,-0.3,
5219,-0.455,-0.315,
5220,-0.445,-0.315,
5221,-0.445,-0.32,
5222,-0.45,-0.315,
5223,-0.435,-0.305,
5224,-0.425,-0.29,
5225,-0.41,-0.295,
5226,-0.385,-0.285,
5227,-0.38,-0.31,
5228,-0.365,-0.305,
5229,-0.35,-0.325,
5230,-0.33,-0.345,
5231,-0.33,-0.36,
5232,-0.33,-0.355,
5233,-0.33,-0.355,
5234,-0.33,-0.355,
5235,-0.335,-0.355,
5236,-0.33,-0.37,
5237,-0.345,-0.36,
5238,-0.345,-0.365,
5239,-0.355,-0.36,
5240,-0.375,-0.37,
5241,-0.4,-0.37,
5242,-0.41,-0.37,
5243,-0.44,-0.38,
5244,-0.455,-0.405,
5245,-0.475,-0.405,
5246,-0.48,-0.415,
5247,-0.48,-0.405,
5248,-0.49,-0.39,
5249,-0.51,-0.375,
5250,-0.505,-0.36,
5251,-0.515,-0.37,
5252,-0.525,-0.37,
5253,-0.535,-0.385,
5254,-0.545,-0.385,
5255,-0.565,-0.4,
5256,-0.565,-0.41,
5257,-0.575,-0.405,
5258,-0.58,-0.395,
5259,-0.575,-0.385,
5260,-0.575,-0.375,
5261,-0.565,-0.365,
5262,-0.56,-0.36,
5263,-0.55,-0.375,
5264,-0.555,-0.375,
5265,-0.565,-0.38,
5266,-0.58,-0.395,
5267,-0.57,-0.395,
5268,-0.57,-0.39,
5269,-0.585,-0.375,
5270,-0.575,-0.38,
5271,-0.565,-0.375,
5272,-0.56,-0.375,
5273,-0.55,-0.38,
5274,-0.55,-0.37,
5275,-0.53,-0.375,
5276,-0.535,-0.38,
5277,-0.535,-0.37,
5278,-0.55,-0.375,
5279,-0.545,-0.385,
5280,-0.545,-0.39,
5281,-0.54,-0.385,
5282,-0.535,-0.395,
5283,-0.525,-0.39,
5284,-0.51,-0.375,
5285,-0.495,-0.36,
5286,-0.49,-0.365,
5287,-0.49,-0.37,
5288,-0.5,-0.375,
5289,-0.495,-0.38,
5290,-0.495,-0.39,
5291,-0.49,-0.4,
5292,-0.505,-0.405,
5293,-0.495,-0.38,
5294,-0.495,-0.38,
5295,-0.495,-0.375,
5296,-0.495,-0.37,
5297,-0.475,-0.37,
5298,-0.48,-0.375,
5299,-0.47,-0.37,
5300,-0.47,-0.39,
5301,-0.475,-0.395,
5302,-0.485,-0.385,
5303,-0.5,-0.39,
5304,-0.495,-0.39,
5305,-0.505,-0.38,
5306,-0.505,-0.385,
5307,-0.5,-0.385,
5308,-0.495,-0.38,
5309,-0.505,-0.38,
5310,-0.495,-0.37,
5311,-0.51,-0.375,
5312,-0.51,-0.385,
5313,-0.515,-0.375,
5314,-0.52,-0.385,
5315,-0.525,-0.405,
5316,-0.525,-0.4,
5317,-0.55,-0.395,
5318,-0.55,-0.395,
5319,-0.54,-0.38,
5320,-0.55,-0.37,
5321,-0.545,-0.36,
5322,-0.54,-0.36,
5323,-0.54,-0.37,
5324,-0.54,-0.385,
5325,-0.54,-0.4,
5326,-0.565,-0.41,
5327,-0.565,-0.395,
5328,-0.57,-0.405,
5329,-0.595,-0.385,
5330,-0.59,-0.4,
5331,-0.595,-0.36,
5332,-0.58,-0.365,
5333,-0.57,-0.365,
5334,-0.555,-0.385,
5335,-0.555,-0.38,
5336,-0.56,-0.385,
5337,-0.57,-0.385,
5338,-0.565,-0.38,
5339,-0.575,-0.39,
5340,-0.585,-0.4,
5341,-0.59,-0.395,
5342,-0.59,-0.4,
5343,-0.59,-0.38,
5344,-0.585,-0.38,
5345,-0.575,-0.37,
5346,-0.575,-0.35,
5347,-0.575,-0.36,
5348,-0.585,-0.365,
5349,-0.58,-0.38,
5350,-0.585,-0.39,
5351,-0.6,-0.39,
5352,-0.605,-0.41,
5353,-0.6,-0.395,
5354,-0.6,-0.4,
5355,-0.605,-0.38,
5356,-0.595,-0.38,
5357,-0.59,-0.355,
5358,-0.59,-0.355,
5359,-0.585,-0.36,
5360,-0.59,-0.37,
5361,-0.59,-0.38,
5362,-0.595,-0.4,
5363,-0.605,-0.395,
5364,-0.605,-0.395,
5365,-0.62,-0.385,
5366,-0.605,-0.395,
5367,-0.61,-0.38,
5368,-0.595,-0.365,
5369,-0.59,-0.375,
5370,-0.59,-0.36,
5371,-0.58,-0.36,
5372,-0.59,-0.355,
5373,-0.585,-0.35,
5374,-0.6,-0.38,
5375,-0.605,-0.39,
5376,-0.605,-0.395,
5377,-0.615,-0.385,
5378,-0.6,-0.385,
5379,-0.61,-0.385,
5380,-0.595,-0.36,
5381,-0.59,-0.355,
5382,-0.57,-0.345,
5383,-0.565,-0.335,
5384,-0.555,-0.36,
5385,-0.545,-0.365,
5386,-0.545,-0.39,
5387,-0.54,-0.39,
5388,-0.535,-0.395,
5389,-0.54,-0.375,
5390,-0.53,-0.36,
5391,-0.5,-0.325,
5392,-0.49,-0.315,
5393,-0.47,-0.305,
5394,-0.445,-0.295,
5395,-0.425,-0.305,
5396,-0.43,-0.33,
5397,-0.435,-0.36,
5398,-0.455,-0.375,
5399,-0.465,-0.4,
5400,-0.495,-0.43,
5401,-0.51,-0.435,
5402,-0.505,-0.425,
5403,-0.495,-0.425,
5404,-0.49,-0.415,
5405,-0.49,-0.39,
5406,-0.5,-0.375,
5407,-0.5,-0.37,
5408,-0.525,-0.365,
5409,-0.535,-0.365,
5410,-0.56,-0.37,
5411,-0.57,-0.385,
5412,-0.585,-0.385,
5413,-0.605,-0.39,
5414,-0.61,-0.4,
5415,-0.615,-0.385,
5416,-0.6,-0.38,
5417,-0.59,-0.36,
5418,-0.59,-0.35,
5419,-0.57,-0.36,
5420,-0.575,-0.365,
5421,-0.565,-0.385,
5422,-0.57,-0.4,
5423,-0.555,-0.405,
5424,-0.555,-0.4,
5425,-0.535,-0.39,
5426,-0.51,-0.375,
5427,-0.475,-0.37,
5428,-0.385,-0.335,
5429,-0.26,-0.295,
5430,-0.055,-0.245,
5431,0.25,-0.215,
5432,0.615,-0.17,
5433,1.025,-0.16,
5434,1.35,-0.215,N
5435,1.55,-0.32,
5436,1.57,-0.47,
5437,1.38,-0.645,
5438,0.93,-0.855,
5439,0.29,-1.045,
5440,-0.35,-1.18,
5441,-0.99,-1.23,
5442,-1.41,-1.2,
5443,-1.44,-1.11,
5444,-1.26,-0.975,
5445,-0.995,-0.875,
5446,-0.795,-0.78,
5447,-0.685,-0.7,
5448,-0.675,-0.635,
5449,-0.71,-0.58,
5450,-0.755,-0.53,
5451,-0.77,-0.495,
5452,-0.77,-0.46,
5453,-0.735,-0.415,
5454,-0.7,-0.39,
5455,-0.655,-0.38,
5456,-0.66,-0.37,
5457,-0.675,-0.38,
5458,-0.695,-0.38,
5459,-0.72,-0.38,
5460,-0.735,-0.375,
5461,-0.735,-0.35,
5462,-0.745,-0.35,
5463,-0.735,-0.335,
5464,-0.73,-0.33,
5465,-0.72,-0.335,
5466,-0.695,-0.325,
5467,-0.695,-0.33,
5468,-0.705,-0.33,
5469,-0.69,-0.335,
5470,-0.715,-0.33,
5471,-0.705,-0.33,
5472,-0.71,-0.33,
5473,-0.705,-0.315,
5474,-0.705,-0.32,
5475,-0.695,-0.32,
5476,-0.68,-0.315,
5477,-0.665,-0.31,
5478,-0.66,-0.31,
5479,-0.655,-0.31,
5480,-0.65,-0.295,
5481,-0.655,-0.305,
5482,-0.655,-0.315,
5483,-0.645,-0.32,
5484,-0.655,-0.33,
5485,-0.66,-0.325,
5486,-0.65,-0.325,
5487,-0.63,-0.305,
5488,-0.635,-0.285,
5489,-0.63,-0.28,
5490,-0.615,-0.275,
5491,-0.595,-0.285,
5492,-0.58,-0.29,
5493,-0.575,-0.315,
5494,-0.57,-0.315,
5495,-0.575,-0.315,
5496,-0.575,-0.315,
5497,-0.575,-0.305,
5498,-0.575,-0.3,
5499,-0.56,-0.285,
5500,-0.555,-0.285,
5501,-0.55,-0.285,
5502,-0.535,-0.28,
5503,-0.54,-0.29,
5504,-0.535,-0.285,
5505,-0.535,-0.3,
5506,-0.535,-0.285,
5507,-0.515,-0.29,
5508,-0.515,-0.295,
5509,-0.51,-0.305,
5510,-0.5,-0.295,
5511,-0.49,-0.285,
5512,-0.49,-0.275,
5513,-0.475,-0.27,
5514,-0.465,-0.255,
5515,-0.45,-0.25,
5516,-0.45,-0.265,
5517,-0.445,-0.285,
5518,-0.45,-0.29,
5519,-0.45,-0.3,
5520,-0.45,-0.305,
5521,-0.455,-0.295,
5522,-0.46,-0.285,
5523,-0.445,-0.27,
5524,-0.44,-0.255,
5525,-0.435,-0.26,
5526,-0.42,-0.255,
5527,-0.405,-0.265,
5528,-0.41,-0.27,
5529,-0.405,-0.295,
5530,-0.405,-0.295,
5531,-0.405,-0.295,
5532,-0.415,-0.29,
5533,-0.41,-0.29,
5534,-0.385,-0.29,
5535,-0.365,-0.29,
5536,-0.35,-0.285,
5537,-0.35,-0.285,
5538,-0.33,-0.275,
5539,-0.32,-0.285,
5540,-0.3,-0.295,
5541,-0.285,-0.31,
5542,-0.275,-0.32,
5543,-0.27,-0.335,
5544,-0.285,-0.35,
5545,-0.29,-0.35,
5546,-0.285,-0.35,
5547,-0.29,-0.355,
5548,-0.285,-0.34,
5549,-0.3,-0.34,
5550,-0.305,-0.335,
5551,-0.32,-0.345,
5552,-0.335,-0.35,
5553,-0.34,-0.385,
5554,-0.365,-0.38,
5555,-0.395,-0.4,
5556,-0.435,-0.395,
5557,-0.465,-0.395,
5558,-0.47,-0.385,
5559,-0.475,-0.385,
5560,-0.48,-0.37,
5561,-0.48,-0.365,
5562,-0.49,-0.355,
5563,-0.5,-0.37,
5564,-0.51,-0.36,
5565,-0.51,-0.375,
5566,-0.525,-0.38,
5567,-0.54,-0.385,
5568,-0.555,-0.39,
5569,-0.555,-0.395,
5570,-0.57,-0.405,
5571,-0.565,-0.38,
5572,-0.555,-0.375,
5573,-0.55,-0.37,
5574,-0.545,-0.35,
5575,-0.555,-0.35,
5576,-0.545,-0.36,
5577,-0.545,-0.38,
5578,-0.555,-0.38,
5579,-0.55,-0.38,
5580,-0.55,-0.405,
5581,-0.555,-0.4,
5582,-0.555,-0.39,
5583,-0.56,-0.37,
5584,-0.545,-0.36,
5585,-0.53,-0.35,
5586,-0.51,-0.35,
5587,-0.515,-0.365,
5588,-0.515,-0.375,
5589,-0.515,-0.365,
5590,-0.51,-0.37,
5591,-0.515,-0.365,
5592,-0.52,-0.38,
5593,-0.515,-0.385,
5594,-0.5,-0.38,
5595,-0.5,-0.375,
5596,-0.495,-0.37,
5597,-0.49,-0.355,
5598,-0.49,-0.345,
5599,-0.485,-0.35,
5600,-0.49,-0.35,
5601,-0.49,-0.355,
5602,-0.48,-0.365,
5603,-0.48,-0.385,
5604,-0.475,-0.39,
5605,-0.49,-0.39,
5606,-0.485,-0.38,
5607,-0.495,-0.37,
5608,-0.485,-0.36,
5609,-0.47,-0.345,
5610,-0.475,-0.345,
5611,-0.465,-0.355,
5612,-0.465,-0.36,
5613,-0.48,-0.365,
5614,-0.475,-0.38,
5615,-0.495,-0.385,
5616,-0.5,-0.375,
5617,-0.5,-0.37,
5618,-0.49,-0.365,
5619,-0.5,-0.375,
5620,-0.485,-0.375,
5621,-0.495,-0.365,
5622,-0.485,-0.355,
5623,-0.485,-0.355,
5624,-0.515,-0.355,
5625,-0.52,-0.37,
5626,-0.525,-0.37,
5627,-0.535,-0.37,
5628,-0.54,-0.38,
5629,-0.555,-0.385,
5630,-0.55,-0.39,
5631,-0.545,-0.38,
5632,-0.545,-0.38,
5633,-0.54,-0.37,
5634,-0.53,-0.35,
5635,-0.535,-0.36,
5636,-0.545,-0.36,
5637,-0.54,-0.38,
5638,-0.545,-0.385,
5639,-0.55,-0.4,
5640,-0.565,-0.39,
5641,-0.57,-0.385,
5642,-0.58,-0.375,
5643,-0.585,-0.37,
5644,-0.575,-0.375,
5645,-0.575,-0.36,
5646,-0.575,-0.365,
5647,-0.58,-0.365,
5648,-0.58,-0.375,
5649,-0.565,-0.37,
5650,-0.57,-0.37,
5651,-0.59,-0.38,
5652,-0.605,-0.385,
5653,-0.59,-0.39,
5654,-0.585,-0.395,
5655,-0.585,-0.385,
5656,-0.57,-0.38,
5657,-0.575,-0.37,
5658,-0.57,-0.345,
5659,-0.56,-0.37,
5660,-0.57,-0.365,
5661,-0.585,-0.375,
5662,-0.585,-0.39,
5663,-0.59,-0.39,
5664,-0.59,-0.4,
5665,-0.6,-0.4,
5666,-0.59,-0.395,
5667,-0.595,-0.375,
5668,-0.595,-0.375,
5669,-0.585,-0.37,
5670,-0.58,-0.36,
5671,-0.58,-0.36,
5672,-0.585,-0.37,
5673,-0.58,-0.395,
5674,-0.59,-0.39,
5675,-0.59,-0.395,
5676,-0.595,-0.38,
5677,-0.605,-0.385,
5678,-0.615,-0.395,
5679,-0.615,-0.38,
5680,-0.6,-0.38,
5681,-0.595,-0.375,
5682,-0.59,-0.375,
5683,-0.57,-0.375,
5684,-0.575,-0.36,
5685,-0.585,-0.37,
5686,-0.585,-0.355,
5687,-0.585,-0.385,
5688,-0.585,-0.39,
5689,-0.585,-0.385,
5690,-0.575,-0.39,
5691,-0.57,-0.375,
5692,-0.56,-0.385,
5693,-0.555,-0.37,
5694,-0.53,-0.345,
5695,-0.52,-0.35,
5696,-0.515,-0.37,
5697,-0.51,-0.365,
5698,-0.5,-0.345,
5699,-0.49,-0.345,
5700,-0.48,-0.33,
5701,-0.48,-0.32,
5702,-0.46,-0.315,
5703,-0.455,-0.315,
5704,-0.44,-0.32,
5705,-0.435,-0.355,
5706,-0.425,-0.37,
5707,-0.435,-0.415,
5708,-0.455,-0.43,
5709,-0.48,-0.435,
5710,-0.5,-0.425,
5711,-0.505,-0.43,
5712,-0.505,-0.425,
5713,-0.51,-0.415,
5714,-0.51,-0.405,
5715,-0.52,-0.4,
5716,-0.515,-0.4,
5717,-0.53,-0.385,
5718,-0.55,-0.36,
5719,-0.57,-0.365,
5720,-0.58,-0.365,
5721,-0.595,-0.385,
5722,-0.605,-0.395,
5723,-0.595,-0.41,
5724,-0.6,-0.41,
5725,-0.61,-0.415,
5726,-0.6,-0.405,
5727,-0.595,-0.395,
5728,-0.595,-0.38,
5729,-0.575,-0.375,
5730,-0.555,-0.365,
5731,-0.535,-0.385,
5732,-0.52,-0.385,
5733,-0.485,-0.39,
5734,-0.435,-0.385,
5735,-0.335,-0.355,
5736,-0.2,-0.325,
5737,0.025,-0.265,
5738,0.335,-0.21,
5739,0.71,-0.175,
5740,1.085,-0.185,
5741,1.375,-0.225,N
5742,1.515,-0.34,
5743,1.47,-0.5,
5744,1.215,-0.695,
5745,0.725,-0.895,
5746,0.085,-1.075,
5747,-0.555,-1.21,
5748,-1.155,-1.25,
5749,-1.375,-1.185,
5750,-1.335,-1.065,
5751,-1.13,-0.915,
5752,-0.9,-0.785,
5753,-0.74,-0.67,
5754,-0.67,-0.58,
5755,-0.66,-0.535,
5756,-0.7,-0.515,
5757,-0.71,-0.495,
5758,-0.72,-0.485,
5759,-0.72,-0.455,
5760,-0.715,-0.435,
5761,-0.705,-0.405,
5762,-0.695,-0.38,
5763,-0.68,-0.375,
5764,-0.685,-0.355,
5765,-0.69,-0.355,
5766,-0.705,-0.34,
5767,-0.695,-0.34,
5768,-0.7,-0.355,
5769,-0.71,-0.345,
5770,-0.715,-0.36,
5771,-0.715,-0.34,
5772,-0.715,-0.345,
5773,-0.715,-0.335,
5774,-0.71,-0.335,
5775,-0.7,-0.33,
5776,-0.685,-0.33,
5777,-0.67,-0.32,
5778,-0.69,-0.31,
5779,-0.67,-0.305,
5780,-0.67,-0.315,
5781,-0.655,-0.315,
5782,-0.67,-0.33,
5783,-0.67,-0.345,
5784,-0.66,-0.34,
5785,-0.655,-0.345,
5786,-0.655,-0.325,
5787,-0.63,-0.315,
5788,-0.635,-0.305,
5789,-0.61,-0.3,
5790,-0.61,-0.29,
5791,-0.59,-0.305,
5792,-0.605,-0.31,
5793,-0.605,-0.325,
5794,-0.61,-0.32,
5795,-0.615,-0.335,
5796,-0.61,-0.32,
5797,-0.595,-0.315,
5798,-0.575,-0.31,
5799,-0.575,-0.31,
5800,-0.55,-0.3,
5801,-0.56,-0.3,
5802,-0.55,-0.29,
5803,-0.545,-0.3,
5804,-0.545,-0.295,
5805,-0.545,-0.295,
5806,-0.54,-0.3,
5807,-0.525,-0.32,
5808,-0.53,-0.32,
5809,-0.53,-0.325,
5810,-0.525,-0.315,
5811,-0.515,-0.3,
5812,-0.515,-0.28,
5813,-0.485,-0.28,
5814,-0.48,-0.265,
5815,-0.475,-0.28,
5816,-0.465,-0.285,
5817,-0.46,-0.295,
5818,-0.47,-0.305,
5819,-0.475,-0.32,
5820,-0.47,-0.32,
5821,-0.475,-0.31,
5822,-0.47,-0.285,
5823,-0.455,-0.275,
5824,-0.445,-0.285,
5825,-0.43,-0.275,
5826,-0.435,-0.275,
5827,-0.425,-0.28,
5828,-0.425,-0.295,
5829,-0.415,-0.29,
5830,-0.43,-0.295,
5831,-0.435,-0.305,
5832,-0.445,-0.305,
5833,-0.435,-0.3,
5834,-0.42,-0.31,
5835,-0.42,-0.3,
5836,-0.41,-0.3,
5837,-0.405,-0.275,
5838,-0.385,-0.28,
5839,-0.375,-0.27,
5840,-0.37,-0.285,
5841,-0.35,-0.3,
5842,-0.35,-0.315,
5843,-0.34,-0.34,
5844,-0.325,-0.36,
5845,-0.32,-0.35,
5846,-0.31,-0.33,
5847,-0.295,-0.34,
5848,-0.285,-0.335,
5849,-0.29,-0.325,
5850,-0.275,-0.33,
5851,-0.28,-0.345,
5852,-0.295,-0.365,
5853,-0.32,-0.37,
5854,-0.33,-0.38,
5855,-0.36,-0.375,
5856,-0.38,-0.385,
5857,-0.4,-0.39,
5858,-0.4,-0.385,
5859,-0.42,-0.385,
5860,-0.425,-0.385,
5861,-0.43,-0.375,
5862,-0.43,-0.37,
5863,-0.455,-0.375,
5864,-0.48,-0.37,
5865,-0.485,-0.37,
5866,-0.485,-0.385,
5867,-0.5,-0.39,
5868,-0.52,-0.4,
5869,-0.54,-0.4,
5870,-0.535,-0.4,
5871,-0.525,-0.395,
5872,-0.535,-0.385,
5873,-0.525,-0.365,
5874,-0.525,-0.36,
5875,-0.515,-0.36,
5876,-0.525,-0.375,
5877,-0.525,-0.38,
5878,-0.53,-0.4,
5879,-0.55,-0.4,
5880,-0.555,-0.39,
5881,-0.565,-0.395,
5882,-0.55,-0.39,
5883,-0.54,-0.385,
5884,-0.52,-0.38,
5885,-0.52,-0.38,
5886,-0.505,-0.37,
5887,-0.5,-0.37,
5888,-0.5,-0.37,
5889,-0.505,-0.37,
5890,-0.51,-0.39,
5891,-0.515,-0.395,
5892,-0.5,-0.4,
5893,-0.5,-0.4,
5894,-0.5,-0.405,
5895,-0.49,-0.39,
5896,-0.485,-0.39,
5897,-0.465,-0.365,
5898,-0.46,-0.35,
5899,-0.45,-0.37,
5900,-0.44,-0.37,
5901,-0.44,-0.385,
5902,-0.45,-0.39,
5903,-0.46,-0.4,
5904,-0.47,-0.395,
5905,-0.47,-0.4,
5906,-0.48,-0.39,
5907,-0.47,-0.39,
5908,-0.455,-0.39,
5909,-0.45,-0.385,
5910,-0.45,-0.37,
5911,-0.435,-0.365,
5912,-0.44,-0.38,
5913,-0.44,-0.375,
5914,-0.445,-0.395,
5915,-0.465,-0.4,
5916,-0.475,-0.4,
5917,-0.475,-0.41,
5918,-0.48,-0.405,
5919,-0.49,-0.4,
5920,-0.48,-0.395,
5921,-0.475,-0.385,
5922,-0.47,-0.365,
5923,-0.465,-0.375,
5924,-0.465,-0.385,
5925,-0.46,-0.385,
5926,-0.475,-0.4,
5927,-0.485,-0.4,
5928,-0.5,-0.41,
5929,-0.51,-0.405,
5930,-0.515,-0.4,
5931,-0.51,-0.395,
5932,-0.505,-0.38,
5933,-0.505,-0.39,
5934,-0.51,-0.38,
5935,-0.505,-0.38,
5936,-0.52,-0.38,
5937,-0.51,-0.39,
5938,-0.51,-0.39,
5939,-0.53,-0.39,
5940,-0.54,-0.41,
5941,-0.54,-0.4,
5942,-0.54,-0.41,
5943,-0.555,-0.4,
5944,-0.55,-0.385,
5945,-0.545,-0.385,
5946,-0.545,-0.365,
5947,-0.525,-0.38,
5948,-0.525,-0.385,
5949,-0.535,-0.395,
5950,-0.545,-0.4,
5951,-0.555,-0.415,
5952,-0.57,-0.41,
5953,-0.57,-0.415,
5954,-0.575,-0.4,
5955,-0.575,-0.395,
5956,-0.56,-0.39,
5957,-0.555,-0.38,
5958,-0.555,-0.385,
5959,-0.555,-0.385,
5960,-0.55,-0.39,
5961,-0.56,-0.39,
5962,-0.57,-0.405,
5963,-0.57,-0.395,
5964,-0.565,-0.405,
5965,-0.575,-0.4,
5966,-0.585,-0.405,
5967,-0.58,-0.395,
5968,-0.58,-0.375,
5969,-0.575,-0.375,
5970,-0.57,-0.365,
5971,-0.555,-0.365,
5972,-0.56,-0.39,
5973,-0.55,-0.4,
5974,-0.575,-0.395,
5975,-0.58,-0.41,
5976,-0.575,-0.4,
5977,-0.58,-0.4,
5978,-0.605,-0.4,
5979,-0.59,-0.395,
5980,-0.58,-0.39,
5981,-0.575,-0.38,
5982,-0.565,-0.375,
5983,-0.56,-0.38,
5984,-0.55,-0.37,
5985,-0.56,-0.385,
5986,-0.555,-0.4,
5987,-0.55,-0.405,
5988,-0.55,-0.41,
5989,-0.54,-0.395,
5990,-0.54,-0.4,
5991,-0.52,-0.375,
5992,-0.52,-0.355,
5993,-0.505,-0.345,
5994,-0.485,-0.33,
5995,-0.47,-0.335,
5996,-0.46,-0.335,
5997,-0.45,-0.345,
5998,-0.44,-0.36,
5999,-0.435,-0.37,
6000,-0.44,-0.37,
6001,-0.44,-0.385,
6002,-0.45,-0.4,
6003,-0.465,-0.4,
6004,-0.465,-0.41,
6005,-0.475,-0.42,
6006,-0.475,-0.42,
6007,-0.465,-0.415,
6008,-0.48,-0.425,
6009,-0.495,-0.415,
6010,-0.505,-0.415,
6011,-0.53,-0.42,
6012,-0.565,-0.425,
6013,-0.55,-0.415,
6014,-0.575,-0.415,
6015,-0.565,-0.405,
6016,-0.57,-0.4,
6017,-0.57,-0.395,
6018,-0.57,-0.385,
6019,-0.56,-0.395,
6020,-0.55,-0.4,
6021,-0.54,-0.41,
6022,-0.54,-0.43,
6023,-0.545,-0.425,
6024,-0.525,-0.43,
6025,-0.495,-0.42,
6026,-0.45,-0.4,
6027,-0.395,-0.395,
6028,-0.285,-0.37,
6029,-0.15,-0.335,
6030,0.045,-0.305,
6031,0.295,-0.275,
6032,0.595,-0.255,
6033,0.905,-0.265,
6034,1.175,-0.295,N
6035,1.33,-0.37,
6036,1.345,-0.465,
6037,1.215,-0.595,
6038,0.895,-0.73,
6039,0.405,-0.87,
6040,-0.23,-0.985,
6041,-0.81,-1.045,
6042,-1.225,-1.045,
6043,-1.365,-0.995,
6044,-1.305,-0.92,
6045,-1.11,-0.825,
6046,-0.92,-0.755,
6047,-0.8,-0.7,
6048,-0.735,-0.64,
6049,-0.735,-0.595,
6050,-0.75,-0.545,
6051,-0.765,-0.505,
6052,-0.76,-0.465,
6053,-0.73,-0.445,
6054,-0.705,-0.425,
6055,-0.65,-0.41,
6056,-0.645,-0.405,
6057,-0.655,-0.405,
6058,-0.67,-0.415,
6059,-0.695,-0.39,
6060,-0.715,-0.405,
6061,-0.73,-0.405,
6062,-0.72,-0.385,
6063,-0.715,-0.37,
6064,-0.71,-0.375,
6065,-0.7,-0.365,
6066,-0.695,-0.35,
6067,-0.67,-0.36,
6068,-0.665,-0.36,
6069,-0.68,-0.35,
6070,-0.67,-0.355,
6071,-0.665,-0.365,
6072,-0.675,-0.37,
6073,-0.67,-0.37,
6074,-0.66,-0.365,
6075,-0.65,-0.365,
6076,-0.65,-0.345,
6077,-0.64,-0.335,
6078,-0.635,-0.33,
6079,-0.62,-0.32,
6080,-0.625,-0.325,
6081,-0.62,-0.335,
6082,-0.625,-0.35,
6083,-0.63,-0.365,
6084,-0.63,-0.365,
6085,-0.62,-0.355,
6086,-0.62,-0.35,
6087,-0.61,-0.34,
6088,-0.6,-0.33,
6089,-0.585,-0.34,
6090,-0.58,-0.34,
6091,-0.555,-0.335,
6092,-0.56,-0.34,
6093,-0.56,-0.34,
6094,-0.575,-0.33,
6095,-0.575,-0.34,
6096,-0.575,-0.345,
6097,-0.565,-0.355,
6098,-0.555,-0.35,
6099,-0.545,-0.335,
6100,-0.535,-0.33,
6101,-0.52,-0.32,
6102,-0.505,-0.31,
6103,-0.48,-0.315,
6104,-0.5,-0.32,
6105,-0.475,-0.33,
6106,-0.5,-0.34,
6107,-0.49,-0.345,
6108,-0.495,-0.345,
6109,-0.495,-0.35,
6110,-0.49,-0.335,
6111,-0.495,-0.335,
6112,-0.475,-0.335,
6113,-0.46,-0.315,
6114,-0.445,-0.31,
6115,-0.435,-0.315,
6116,-0.445,-0.305,
6117,-0.445,-0.32,
6118,-0.45,-0.305,
6119,-0.465,-0.315,
6120,-0.455,-0.335,
6121,-0.45,-0.335,
6122,-0.45,-0.325,
6123,-0.45,-0.32,
6124,-0.445,-0.335,
6125,-0.435,-0.31,
6126,-0.425,-0.305,
6127,-0.43,-0.31,
6128,-0.42,-0.305,
6129,-0.42,-0.305,
6130,-0.41,-0.32,
6131,-0.425,-0.33,
6132,-0.425,-0.345,
6133,-0.415,-0.34,
6134,-0.405,-0.34,
6135,-0.405,-0.335,
6136,-0.385,-0.33,
6137,-0.36,-0.325,
6138,-0.335,-0.33,
6139,-0.31,-0.34,
6140,-0.305,-0.34,
6141,-0.305,-0.355,
6142,-0.305,-0.36,
6143,-0.31,-0.365,
6144,-0.32,-0.355,
6145,-0.33,-0.35,
6146,-0.35,-0.35,
6147,-0.34,-0.35,
6148,-0.355,-0.355,
6149,-0.375,-0.355,
6150,-0.36,-0.37,
6151,-0.37,-0.37,
6152,-0.39,-0.38,
6153,-0.405,-0.37,
6154,-0.445,-0.385,
6155,-0.455,-0.395,
6156,-0.47,-0.41,
6157,-0.495,-0.415,
6158,-0.495,-0.41,
6159,-0.505,-0.415,
6160,-0.51,-0.395,
6161,-0.52,-0.395,
6162,-0.525,-0.395,
6163,-0.53,-0.385,
6164,-0.535,-0.405,
6165,-0.55,-0.4,
6166,-0.555,-0.405,
6167,-0.555,-0.415,
6168,-0.575,-0.425,
6169,-0.58,-0.42,
6170,-0.575,-0.42,
6171,-0.575,-0.415,
6172,-0.56,-0.405,
6173,-0.56,-0.395,
6174,-0.54,-0.395,
6175,-0.535,-0.405,
6176,-0.545,-0.4,
6177,-0.54,-0.405,
6178,-0.555,-0.405,
6179,-0.565,-0.405,
6180,-0.55,-0.415,
6181,-0.555,-0.415,
6182,-0.555,-0.42,
6183,-0.55,-0.41,
6184,-0.555,-0.405,
6185,-0.545,-0.4,
6186,-0.535,-0.385,
6187,-0.51,-0.385,
6188,-0.505,-0.39,
6189,-0.5,-0.395,
6190,-0.49,-0.405,
6191,-0.49,-0.415,
6192,-0.49,-0.42,
6193,-0.495,-0.405,
6194,-0.5,-0.4,
6195,-0.495,-0.39,
6196,-0.485,-0.39,
6197,-0.485,-0.39,
6198,-0.475,-0.38,
6199,-0.465,-0.395,
6200,-0.475,-0.395,
6201,-0.47,-0.41,
6202,-0.47,-0.41,
6203,-0.47,-0.41,
6204,-0.475,-0.405,
6205,-0.475,-0.415,
6206,-0.495,-0.405,
6207,-0.5,-0.4,
6208,-0.475,-0.405,
6209,-0.46,-0.41,
6210,-0.465,-0.4,
6211,-0.455,-0.4,
6212,-0.455,-0.395,
6213,-0.47,-0.405,
6214,-0.485,-0.415,
6215,-0.48,-0.415,
6216,-0.495,-0.42,
6217,-0.5,-0.42,
6218,-0.505,-0.415,
6219,-0.5,-0.42,
6220,-0.495,-0.4,
6221,-0.51,-0.4,
6222,-0.495,-0.385,
6223,-0.505,-0.385,
6224,-0.505,-0.4,
6225,-0.515,-0.4,
6226,-0.525,-0.415,
6227,-0.525,-0.425,
6228,-0.535,-0.42,
6229,-0.55,-0.425,
6230,-0.575,-0.41,
6231,-0.57,-0.4,
6232,-0.56,-0.405,
6233,-0.56,-0.4,
6234,-0.54,-0.4,
6235,-0.54,-0.405,
6236,-0.55,-0.415,
6237,-0.555,-0.405,
6238,-0.55,-0.41,
6239,-0.575,-0.415,
6240,-0.58,-0.425,
6241,-0.605,-0.41,
6242,-0.59,-0.415,
6243,-0.59,-0.42,
6244,-0.59,-0.415,
6245,-0.59,-0.395,
6246,-0.59,-0.39,
6247,-0.575,-0.395,
6248,-0.595,-0.4,
6249,-0.59,-0.405,
6250,-0.585,-0.42,
6251,-0.575,-0.43,
6252,-0.595,-0.425,
6253,-0.595,-0.415,
6254,-0.6,-0.41,
6255,-0.615,-0.4,
6256,-0.615,-0.395,
6257,-0.61,-0.395,
6258,-0.59,-0.39,
6259,-0.58,-0.405,
6260,-0.59,-0.41,
6261,-0.585,-0.415,
6262,-0.595,-0.415,
6263,-0.605,-0.42,
6264,-0.615,-0.425,
6265,-0.62,-0.405,
6266,-0.61,-0.415,
6267,-0.6,-0.41,
6268,-0.595,-0.405,
6269,-0.595,-0.4,
6270,-0.59,-0.395,
6271,-0.59,-0.39,
6272,-0.59,-0.395,
6273,-0.595,-0.4,
6274,-0.605,-0.42,
6275,-0.63,-0.425,
6276,-0.62,-0.425,
6277,-0.63,-0.425,
6278,-0.62,-0.415,
6279,-0.62,-0.41,
6280,-0.615,-0.395,
6281,-0.605,-0.39,
6282,-0.585,-0.39,
6283,-0.575,-0.4,
6284,-0.57,-0.41,
6285,-0.575,-0.405,
6286,-0.58,-0.415,
6287,-0.585,-0.415,
6288,-0.6,-0.42,
6289,-0.6,-0.415,
6290,-0.61,-0.4,
6291,-0.595,-0.4,
6292,-0.575,-0.39,
6293,-0.565,-0.38,
6294,-0.55,-0.385,
6295,-0.52,-0.38,
6296,-0.52,-0.39,
6297,-0.51,-0.385,
6298,-0.505,-0.385,
6299,-0.5,-0.375,
6300,-0.485,-0.375,
6301,-0.485,-0.38,
6302,-0.465,-0.37,
6303,-0.46,-0.385,
6304,-0.47,-0.38,
6305,-0.465,-0.385,
6306,-0.47,-0.395,
6307,-0.475,-0.405,
6308,-0.485,-0.425,
6309,-0.5,-0.435,
6310,-0.51,-0.445,
6311,-0.525,-0.455,
6312,-0.52,-0.455,
6313,-0.54,-0.445,
6314,-0.55,-0.425,
6315,-0.565,-0.41,
6316,-0.56,-0.405,
6317,-0.575,-0.39,
6318,-0.57,-0.395,
6319,-0.575,-0.395,
6320,-0.59,-0.415,
6321,-0.59,-0.415,
6322,-0.58,-0.43,
6323,-0.6,-0.435,
6324,-0.595,-0.43,
6325,-0.6,-0.43,
6326,-0.59,-0.425,
6327,-0.57,-0.425,
6328,-0.54,-0.41,
6329,-0.52,-0.415,
6330,-0.49,-0.395,
6331,-0.43,-0.38,
6332,-0.36,-0.37,
6333,-0.27,-0.365,
6334,-0.135,-0.35,
6335,0.065,-0.34,
6336,0.305,-0.3,
6337,0.595,-0.285,
6338,0.905,-0.27,
6339,1.165,-0.295,
6340,1.325,-0.335,N
6341,1.375,-0.44,
6342,1.25,-0.555,
6343,0.945,-0.7,
6344,0.435,-0.855,
6345,-0.205,-1.01,
6346,-0.815,-1.095,
6347,-1.235,-1.11,
6348,-1.385,-1.055,
6349,-1.325,-0.96,
6350,-1.16,-0.855,
6351,-0.975,-0.75,
6352,-0.83,-0.665,
6353,-0.76,-0.6,
6354,-0.745,-0.555,
6355,-0.75,-0.515,
6356,-0.755,-0.495,
6357,-0.755,-0.47,
6358,-0.725,-0.46,
6359,-0.705,-0.455,
6360,-0.705,-0.45,
6361,-0.7,-0.445,
6362,-0.72,-0.425,
6363,-0.715,-0.42,
6364,-0.725,-0.405,
6365,-0.71,-0.385,
6366,-0.715,-0.365,
6367,-0.71,-0.375,
6368,-0.715,-0.375,
6369,-0.72,-0.365,
6370,-0.725,-0.385,
6371,-0.72,-0.39,
6372,-0.72,-0.405,
6373,-0.72,-0.4,
6374,-0.715,-0.385,
6375,-0.705,-0.385,
6376,-0.68,-0.375,
6377,-0.675,-0.35,
6378,-0.66,-0.35,
6379,-0.65,-0.35,
6380,-0.655,-0.37,
6381,-0.665,-0.365,
6382,-0.665,-0.365,
6383,-0.675,-0.37,
6384,-0.67,-0.37,
6385,-0.675,-0.37,
6386,-0.66,-0.37,
6387,-0.65,-0.36,
6388,-0.645,-0.365,
6389,-0.64,-0.35,
6390,-0.61,-0.35,
6391,-0.605,-0.34,
6392,-0.605,-0.33,
6393,-0.59,-0.34,
6394,-0.585,-0.355,
6395,-0.585,-0.365,
6396,-0.59,-0.37,
6397,-0.59,-0.38,
6398,-0.59,-0.36,
6399,-0.59,-0.35,
6400,-0.58,-0.34,
6401,-0.58,-0.335,
6402,-0.565,-0.33,
6403,-0.545,-0.335,
6404,-0.535,-0.345,
6405,-0.52,-0.345,
6406,-0.53,-0.345,
6407,-0.55,-0.35,
6408,-0.53,-0.35,
6409,-0.52,-0.35,
6410,-0.525,-0.335,
6411,-0.515,-0.355,
6412,-0.505,-0.34,
6413,-0.485,-0.34,
6414,-0.485,-0.33,
6415,-0.475,-0.315,
6416,-0.465,-0.32,
6417,-0.475,-0.325,
6418,-0.48,-0.32,
6419,-0.485,-0.335,
6420,-0.48,-0.35,
