,MLII,V1,symbol
0,-0.285,0.05,
1,-0.285,0.05,
2,-0.285,0.05,
3,-0.285,0.05,
4,-0.285,0.05,
5,-0.285,0.05,
6,-0.285,0.05,
7,-0.285,0.05,
8,-0.29,0.05,
9,-0.28,0.05,
10,-0.3,0.055,
11,-0.305,0.035,
12,-0.32,0.015,
13,-0.325,0.035,
14,-0.315,0.055,
15,-0.285,0.075,
16,-0.285,0.065,
17,-0.31,0.05,
18,-0.32,0.035,
19,-0.34,0.05,
20,-0.325,0.075,
21,-0.31,0.08,
22,-0.315,0.08,
23,-0.325,0.07,
24,-0.335,0.065,
25,-0.335,0.065,
26,-0.305,0.085,
27,-0.305,0.095,
28,-0.305,0.085,+
29,-0.31,0.08,
30,-0.325,0.07,
31,-0.325,0.075,
32,-0.32,0.085,
33,-0.31,0.09,
34,-0.295,0.085,
35,-0.305,0.08,
36,-0.315,0.06,
37,-0.33,0.07,
38,-0.335,0.08,
39,-0.295,0.1,
40,-0.3,0.085,
41,-0.32,0.065,
42,-0.33,0.055,
43,-0.345,0.06,
44,-0.34,0.08,
45,-0.335,0.09,
46,-0.325,0.07,
47,-0.335,0.055,
48,-0.34,0.04,
49,-0.355,0.045,
50,-0.33,0.05,
51,-0.315,0.05,
52,-0.305,0.05,
53,-0.305,0.04,
54,-0.33,0.025,
55,-0.325,0.02,
56,-0.31,0.03,
57,-0.3,0.045,
58,-0.29,0.035,
59,-0.31,0.025,
60,-0.32,-0.005,
61,-0.325,0.01,
62,-0.32,0.02,
63,-0.29,0.03,
64,-0.29,0.02,
65,-0.295,0.005,
66,-0.33,-0.01,
67,-0.315,-0.01,
68,-0.29,0.0,
69,-0.27,0.005,
70,-0.27,-0.02,
71,-0.28,-0.03,
72,-0.29,-0.05,
73,-0.295,-0.055,
74,-0.275,-0.06,
75,-0.265,-0.045,
76,-0.255,-0.05,
77,-0.26,-0.065,
78,-0.27,-0.085,
79,-0.275,-0.1,
80,-0.275,-0.1,
81,-0.235,-0.075,
82,-0.235,-0.085,
83,-0.235,-0.095,
84,-0.25,-0.105,
85,-0.24,-0.105,
86,-0.225,-0.105,
87,-0.21,-0.115,
88,-0.2,-0.11,
89,-0.2,-0.125,
90,-0.195,-0.135,
91,-0.2,-0.145,
92,-0.175,-0.145,
93,-0.16,-0.125,
94,-0.155,-0.125,
95,-0.175,-0.135,
96,-0.15,-0.13,
97,-0.16,-0.13,
98,-0.14,-0.11,
99,-0.12,-0.105,
100,-0.11,-0.115,
101,-0.12,-0.115,
102,-0.14,-0.11,
103,-0.14,-0.1,
104,-0.125,-0.055,
105,-0.11,-0.035,
106,-0.12,-0.02,
107,-0.14,-0.025,
108,-0.15,-0.005,
109,-0.155,0.01,
110,-0.145,0.04,
111,-0.14,0.07,
112,-0.14,0.08,
113,-0.185,0.08,
114,-0.185,0.08,
115,-0.2,0.095,
116,-0.185,0.095,
117,-0.17,0.11,
118,-0.175,0.1,
119,-0.21,0.08,
120,-0.22,0.065,
121,-0.23,0.075,
122,-0.215,0.085,
123,-0.2,0.1,
124,-0.21,0.085,
125,-0.225,0.07,
126,-0.245,0.065,
127,-0.225,0.07,
128,-0.23,0.09,
129,-0.22,0.11,
130,-0.215,0.095,
131,-0.225,0.08,
132,-0.245,0.065,
133,-0.245,0.08,
134,-0.215,0.075,
135,-0.21,0.095,
136,-0.21,0.085,
137,-0.21,0.09,
138,-0.225,0.085,
139,-0.22,0.09,
140,-0.215,0.105,
141,-0.21,0.11,
142,-0.21,0.085,
143,-0.215,0.09,
144,-0.23,0.075,
145,-0.225,0.08,
146,-0.22,0.09,
147,-0.205,0.1,
148,-0.2,0.1,
149,-0.21,0.085,
150,-0.21,0.075,
151,-0.215,0.08,
152,-0.21,0.09,
153,-0.175,0.105,
154,-0.17,0.08,
155,-0.175,0.06,
156,-0.205,0.075,
157,-0.215,0.075,
158,-0.21,0.075,
159,-0.18,0.07,
160,-0.175,0.055,
161,-0.18,0.05,
162,-0.195,0.045,
163,-0.19,0.055,
164,-0.205,0.055,
165,-0.19,0.05,
166,-0.205,0.03,
167,-0.195,0.015,
168,-0.195,0.005,
169,-0.2,0.005,
170,-0.195,0.01,
171,-0.185,0.03,
172,-0.185,0.025,
173,-0.19,0.03,
174,-0.205,0.015,
175,-0.205,0.03,
176,-0.205,0.04,
177,-0.19,0.05,
178,-0.2,0.045,
179,-0.215,0.035,
180,-0.225,0.02,
181,-0.235,0.045,
182,-0.225,0.065,
183,-0.215,0.08,
184,-0.205,0.07,
185,-0.2,0.045,
186,-0.21,0.035,
187,-0.21,0.045,
188,-0.205,0.07,
189,-0.21,0.09,
190,-0.2,0.085,
191,-0.215,0.08,
192,-0.22,0.06,
193,-0.225,0.065,
194,-0.215,0.07,
195,-0.225,0.09,
196,-0.205,0.085,
197,-0.22,0.07,
198,-0.22,0.07,
199,-0.23,0.08,
200,-0.22,0.11,
201,-0.21,0.12,
202,-0.2,0.12,
203,-0.215,0.11,
204,-0.215,0.105,
205,-0.21,0.12,
206,-0.19,0.125,
207,-0.185,0.135,
208,-0.17,0.115,
209,-0.15,0.09,
210,-0.11,0.055,
211,-0.045,0.03,
212,0.035,0.02,
213,0.15,0.03,
214,0.295,0.025,
215,0.445,-0.005,
216,0.64,-0.055,
217,0.855,-0.085,
218,1.08,-0.105,
219,1.28,-0.095,
220,1.415,-0.05,N
221,1.445,0.025,
222,1.355,0.085,
223,1.13,0.09,
224,0.815,0.11,
225,0.48,0.15,
226,0.13,0.21,
227,-0.19,0.26,
228,-0.395,0.26,
229,-0.415,0.245,
230,-0.36,0.215,
231,-0.285,0.175,
232,-0.255,0.115,
233,-0.265,0.075,
234,-0.285,0.045,
235,-0.29,0.06,
236,-0.265,0.07,
237,-0.25,0.09,
238,-0.29,0.095,
239,-0.285,0.085,
240,-0.31,0.085,
241,-0.315,0.1,
242,-0.305,0.115,
243,-0.295,0.11,
244,-0.325,0.08,
245,-0.32,0.085,
246,-0.335,0.075,
247,-0.335,0.085,
248,-0.325,0.095,
249,-0.315,0.105,
250,-0.325,0.09,
251,-0.335,0.095,
252,-0.36,0.09,
253,-0.375,0.11,
254,-0.37,0.11,
255,-0.325,0.13,
256,-0.315,0.12,
257,-0.32,0.095,
258,-0.32,0.075,
259,-0.335,0.075,
260,-0.345,0.085,
261,-0.31,0.1,
262,-0.315,0.095,
263,-0.32,0.08,
264,-0.32,0.065,
265,-0.345,0.075,
266,-0.33,0.1,
267,-0.32,0.105,
268,-0.31,0.1,
269,-0.32,0.07,
270,-0.335,0.07,
271,-0.325,0.065,
272,-0.315,0.065,
273,-0.295,0.085,
274,-0.3,0.075,
275,-0.3,0.07,
276,-0.305,0.045,
277,-0.28,0.04,
278,-0.27,0.06,
279,-0.265,0.075,
280,-0.27,0.06,
281,-0.27,0.05,
282,-0.28,0.02,
283,-0.275,0.025,
284,-0.25,0.03,
285,-0.24,0.035,
286,-0.225,0.02,
287,-0.24,0.005,
288,-0.24,0.0,
289,-0.245,-0.005,
290,-0.24,0.01,
291,-0.22,0.01,
292,-0.215,-0.005,
293,-0.23,-0.01,
294,-0.235,-0.045,
295,-0.24,-0.03,
296,-0.215,-0.04,
297,-0.21,-0.03,
298,-0.19,-0.035,
299,-0.19,-0.06,
300,-0.2,-0.085,
301,-0.185,-0.075,
302,-0.185,-0.07,
303,-0.16,-0.06,
304,-0.16,-0.065,
305,-0.15,-0.09,
306,-0.175,-0.095,
307,-0.155,-0.095,
308,-0.14,-0.09,
309,-0.115,-0.075,
310,-0.11,-0.075,
311,-0.12,-0.095,
312,-0.115,-0.1,
313,-0.105,-0.105,
314,-0.09,-0.085,
315,-0.075,-0.08,
316,-0.075,-0.075,
317,-0.095,-0.1,
318,-0.12,-0.09,
319,-0.12,-0.085,
320,-0.105,-0.045,
321,-0.105,-0.05,
322,-0.115,-0.045,
323,-0.12,-0.06,
324,-0.145,-0.06,
325,-0.145,-0.025,
326,-0.145,0.0,
327,-0.145,0.025,
328,-0.17,0.03,
329,-0.185,0.015,
330,-0.215,0.03,
331,-0.215,0.04,
332,-0.215,0.075,
333,-0.195,0.085,
334,-0.19,0.095,
335,-0.23,0.1,
336,-0.24,0.095,
337,-0.22,0.11,
338,-0.225,0.13,
339,-0.23,0.13,
340,-0.215,0.125,
341,-0.23,0.11,
342,-0.245,0.11,
343,-0.255,0.12,
344,-0.26,0.14,
345,-0.245,0.15,
346,-0.225,0.145,
347,-0.24,0.135,
348,-0.25,0.12,
349,-0.26,0.125,
350,-0.245,0.135,
351,-0.215,0.135,
352,-0.215,0.125,
353,-0.21,0.11,
354,-0.225,0.1,
355,-0.225,0.12,
356,-0.215,0.14,
357,-0.205,0.15,
358,-0.2,0.12,
359,-0.22,0.11,
360,-0.225,0.095,
361,-0.22,0.11,
362,-0.225,0.125,
363,-0.22,0.135,
364,-0.2,0.115,
365,-0.205,0.1,
366,-0.215,0.1,
367,-0.225,0.105,
368,-0.215,0.105,
369,-0.2,0.12,
370,-0.215,0.11,
371,-0.23,0.08,
372,-0.26,0.065,
373,-0.26,0.075,
374,-0.225,0.085,
375,-0.225,0.095,
376,-0.22,0.085,
377,-0.23,0.075,
378,-0.23,0.06,
379,-0.23,0.075,
380,-0.22,0.09,
381,-0.21,0.1,
382,-0.21,0.1,
383,-0.23,0.08,
384,-0.23,0.065,
385,-0.235,0.075,
386,-0.22,0.085,
387,-0.195,0.105,
388,-0.185,0.095,
389,-0.2,0.095,
390,-0.225,0.1,
391,-0.21,0.09,
392,-0.215,0.09,
393,-0.185,0.09,
394,-0.16,0.095,
395,-0.175,0.08,
396,-0.2,0.09,
397,-0.195,0.11,
398,-0.185,0.11,
399,-0.165,0.115,
400,-0.18,0.105,
401,-0.175,0.085,
402,-0.175,0.08,
403,-0.185,0.105,
404,-0.175,0.115,
405,-0.175,0.115,
406,-0.175,0.105,
407,-0.185,0.09,
408,-0.205,0.075,
409,-0.2,0.085,
410,-0.2,0.105,
411,-0.2,0.12,
412,-0.185,0.105,
413,-0.19,0.09,
414,-0.21,0.075,
415,-0.21,0.09,
416,-0.195,0.1,
417,-0.185,0.115,
418,-0.175,0.095,
419,-0.195,0.08,
420,-0.22,0.085,
421,-0.2,0.08,
422,-0.215,0.1,
423,-0.18,0.095,
424,-0.18,0.085,
425,-0.205,0.09,
426,-0.205,0.085,
427,-0.21,0.08,
428,-0.185,0.095,
429,-0.165,0.11,
430,-0.145,0.09,
431,-0.125,0.06,
432,-0.1,0.045,
433,-0.04,0.05,
434,0.05,0.05,
435,0.165,0.06,
436,0.29,0.045,
437,0.44,0.02,
438,0.61,-0.02,
439,0.81,-0.07,
440,1.03,-0.1,
441,1.235,-0.08,
442,1.375,-0.07,N
443,1.435,0.005,
444,1.38,0.07,
445,1.185,0.11,
446,0.915,0.13,
447,0.615,0.165,
448,0.3,0.205,
449,-0.015,0.225,
450,-0.235,0.24,
451,-0.325,0.24,
452,-0.305,0.245,
453,-0.235,0.205,
454,-0.2,0.15,
455,-0.19,0.11,
456,-0.185,0.095,
457,-0.19,0.1,
458,-0.19,0.105,
459,-0.2,0.105,
460,-0.205,0.11,
461,-0.225,0.11,
462,-0.28,0.09,
463,-0.25,0.085,
464,-0.255,0.1,
465,-0.245,0.105,
466,-0.26,0.115,
467,-0.28,0.09,
468,-0.295,0.07,
469,-0.295,0.08,
470,-0.285,0.1,
471,-0.28,0.1,
472,-0.26,0.105,
473,-0.285,0.075,
474,-0.3,0.08,
475,-0.305,0.095,
476,-0.29,0.105,
477,-0.27,0.095,
478,-0.27,0.085,
479,-0.28,0.08,
480,-0.3,0.075,
481,-0.31,0.075,
482,-0.3,0.07,
483,-0.27,0.08,
484,-0.27,0.075,
485,-0.285,0.07,
486,-0.295,0.07,
487,-0.295,0.07,
488,-0.28,0.08,
489,-0.26,0.08,
490,-0.26,0.075,
491,-0.26,0.065,
492,-0.27,0.06,
493,-0.275,0.075,
494,-0.265,0.085,
495,-0.245,0.095,
496,-0.235,0.08,
497,-0.255,0.08,
498,-0.255,0.07,
499,-0.255,0.09,
500,-0.225,0.085,
501,-0.2,0.105,
502,-0.2,0.1,
503,-0.205,0.085,
504,-0.22,0.085,
505,-0.22,0.08,
506,-0.21,0.095,
507,-0.215,0.09,
508,-0.21,0.095,
509,-0.18,0.075,
510,-0.2,0.055,
511,-0.205,0.045,
512,-0.195,0.055,
513,-0.175,0.07,
514,-0.165,0.05,
515,-0.18,0.035,
516,-0.165,0.025,
517,-0.16,0.02,
518,-0.145,0.03,
519,-0.155,0.025,
520,-0.145,0.01,
521,-0.145,-0.02,
522,-0.16,-0.03,
523,-0.15,-0.035,
524,-0.15,-0.04,
525,-0.14,-0.04,
526,-0.13,-0.04,
527,-0.155,-0.055,
528,-0.155,-0.07,
529,-0.13,-0.075,
530,-0.12,-0.07,
531,-0.095,-0.06,
532,-0.1,-0.06,
533,-0.105,-0.1,
534,-0.11,-0.11,
535,-0.12,-0.105,
536,-0.1,-0.11,
537,-0.06,-0.09,
538,-0.055,-0.105,
539,-0.055,-0.1,
540,-0.06,-0.105,
541,-0.055,-0.095,
542,-0.04,-0.065,
543,-0.02,-0.05,
544,-0.015,-0.055,
545,-0.025,-0.05,
546,-0.04,-0.04,
547,-0.055,-0.035,
548,-0.04,0.0,
549,-0.02,0.005,
550,-0.04,0.01,
551,-0.04,0.0,
552,-0.05,0.01,
553,-0.07,0.045,
554,-0.06,0.07,
555,-0.065,0.075,
556,-0.07,0.075,
557,-0.085,0.065,
558,-0.105,0.065,
559,-0.12,0.085,
560,-0.125,0.12,
561,-0.115,0.14,
562,-0.135,0.145,
563,-0.165,0.135,
564,-0.19,0.13,
565,-0.19,0.135,
566,-0.17,0.14,
567,-0.165,0.14,
568,-0.18,0.14,
569,-0.2,0.11,
570,-0.21,0.115,
571,-0.225,0.11,
572,-0.21,0.12,
573,-0.175,0.145,
574,-0.18,0.135,
575,-0.2,0.115,
576,-0.205,0.115,
577,-0.18,0.135,
578,-0.13,0.14,
579,-0.105,0.14,
580,-0.08,0.145,
581,-0.065,0.14,
582,-0.06,0.14,
583,-0.03,0.17,
584,0.005,0.185,
585,0.045,0.19,
586,0.085,0.19,
587,0.14,0.165,
588,0.205,0.135,
589,0.27,0.075,
590,0.34,-0.005,
591,0.415,-0.06,
592,0.5,-0.125,
593,0.575,-0.21,
594,0.64,-0.285,
595,0.71,-0.375,
596,0.79,-0.45,
597,0.885,-0.55,
598,0.975,-0.675,
599,1.06,-0.79,
600,1.13,-0.875,
601,1.18,-0.94,
602,1.22,-0.98,
603,1.215,-0.995,V
604,1.195,-1.015,
605,1.15,-1.04,
606,1.105,-1.07,
607,1.03,-1.085,
608,0.97,-1.075,
609,0.88,-1.065,
610,0.755,-1.06,
611,0.61,-1.05,
612,0.47,-0.995,
613,0.37,-0.93,
614,0.275,-0.85,
615,0.22,-0.76,
616,0.17,-0.7,
617,0.135,-0.62,
618,0.12,-0.565,
619,0.105,-0.48,
620,0.09,-0.415,
621,0.115,-0.35,
622,0.145,-0.285,
623,0.19,-0.235,
624,0.25,-0.195,
625,0.34,-0.145,
626,0.37,-0.105,
627,0.335,-0.065,
628,0.185,-0.035,
629,-0.02,0.015,
630,-0.22,0.05,
631,-0.32,0.145,
632,-0.37,0.225,
633,-0.39,0.285,
634,-0.425,0.325,
635,-0.445,0.335,
636,-0.5,0.335,
637,-0.515,0.355,
638,-0.505,0.375,
639,-0.505,0.4,
640,-0.535,0.4,
641,-0.575,0.4,
642,-0.605,0.4,
643,-0.605,0.435,
644,-0.59,0.45,
645,-0.585,0.47,
646,-0.615,0.445,
647,-0.63,0.43,
648,-0.655,0.45,
649,-0.665,0.455,
650,-0.65,0.48,
651,-0.63,0.485,
652,-0.645,0.48,
653,-0.665,0.47,
654,-0.67,0.47,
655,-0.7,0.495,
656,-0.67,0.525,
657,-0.675,0.54,
658,-0.68,0.55,
659,-0.685,0.54,
660,-0.7,0.54,
661,-0.69,0.565,
662,-0.71,0.585,
663,-0.705,0.625,
664,-0.705,0.625,
665,-0.715,0.63,
666,-0.715,0.625,
667,-0.72,0.65,
668,-0.715,0.66,
669,-0.705,0.685,
670,-0.69,0.69,
671,-0.71,0.695,
672,-0.725,0.7,
673,-0.725,0.735,
674,-0.715,0.77,
675,-0.7,0.795,
676,-0.695,0.79,
677,-0.73,0.795,
678,-0.74,0.795,
679,-0.715,0.81,
680,-0.685,0.83,
681,-0.66,0.84,
682,-0.65,0.83,
683,-0.65,0.815,
684,-0.67,0.81,
685,-0.645,0.835,
686,-0.63,0.845,
687,-0.605,0.845,
688,-0.595,0.835,
689,-0.6,0.815,
690,-0.63,0.78,
691,-0.605,0.79,
692,-0.57,0.79,
693,-0.535,0.785,
694,-0.52,0.75,
695,-0.515,0.71,
696,-0.525,0.68,
697,-0.505,0.68,
698,-0.475,0.665,
699,-0.44,0.65,
700,-0.43,0.62,
701,-0.42,0.585,
702,-0.43,0.555,
703,-0.41,0.535,
704,-0.385,0.535,
705,-0.355,0.51,
706,-0.34,0.465,
707,-0.34,0.425,
708,-0.355,0.415,
709,-0.34,0.39,
710,-0.32,0.385,
711,-0.31,0.37,
712,-0.295,0.34,
713,-0.285,0.31,
714,-0.315,0.295,
715,-0.305,0.29,
716,-0.305,0.295,
717,-0.275,0.29,
718,-0.285,0.275,
719,-0.28,0.235,
720,-0.29,0.205,
721,-0.285,0.17,
722,-0.275,0.17,
723,-0.235,0.16,
724,-0.245,0.155,
725,-0.255,0.155,
726,-0.28,0.14,
727,-0.28,0.135,
728,-0.285,0.155,
729,-0.26,0.155,
730,-0.26,0.13,
731,-0.26,0.125,
732,-0.255,0.13,
733,-0.25,0.125,
734,-0.235,0.135,
735,-0.225,0.145,
736,-0.22,0.135,
737,-0.225,0.13,
738,-0.235,0.12,
739,-0.235,0.125,
740,-0.21,0.135,
741,-0.2,0.145,
742,-0.215,0.14,
743,-0.215,0.13,
744,-0.25,0.13,
745,-0.24,0.125,
746,-0.23,0.13,
747,-0.225,0.14,
748,-0.225,0.135,
749,-0.235,0.13,
750,-0.265,0.125,
751,-0.26,0.135,
752,-0.23,0.15,
753,-0.225,0.165,
754,-0.22,0.14,
755,-0.22,0.14,
756,-0.24,0.13,
757,-0.225,0.14,
758,-0.225,0.165,
759,-0.195,0.16,
760,-0.2,0.145,
761,-0.215,0.125,
762,-0.235,0.12,
763,-0.24,0.13,
764,-0.235,0.13,
765,-0.205,0.16,
766,-0.195,0.145,
767,-0.2,0.12,
768,-0.21,0.11,
769,-0.21,0.12,
770,-0.215,0.135,
771,-0.22,0.155,
772,-0.205,0.15,
773,-0.205,0.12,
774,-0.215,0.12,
775,-0.215,0.135,
776,-0.21,0.13,
777,-0.21,0.145,
778,-0.215,0.135,
779,-0.21,0.13,
780,-0.215,0.125,
781,-0.21,0.135,
782,-0.205,0.145,
783,-0.185,0.145,
784,-0.185,0.13,
785,-0.2,0.12,
786,-0.225,0.12,
787,-0.23,0.13,
788,-0.205,0.13,
789,-0.185,0.135,
790,-0.18,0.13,
791,-0.185,0.125,
792,-0.205,0.12,
793,-0.205,0.12,
794,-0.21,0.135,
795,-0.195,0.14,
796,-0.205,0.135,
797,-0.195,0.12,
798,-0.22,0.12,
799,-0.23,0.13,
800,-0.225,0.145,
801,-0.215,0.14,
802,-0.21,0.135,
803,-0.21,0.13,
804,-0.215,0.14,
805,-0.225,0.145,
806,-0.21,0.15,
807,-0.2,0.145,
808,-0.195,0.14,
809,-0.21,0.11,
810,-0.23,0.085,
811,-0.22,0.105,
812,-0.205,0.11,
813,-0.19,0.145,
814,-0.195,0.135,
815,-0.2,0.125,
816,-0.225,0.115,
817,-0.215,0.12,
818,-0.21,0.12,
819,-0.185,0.135,
820,-0.19,0.125,
821,-0.2,0.12,
822,-0.205,0.125,
823,-0.205,0.12,
824,-0.205,0.14,
825,-0.195,0.145,
826,-0.2,0.145,
827,-0.215,0.13,
828,-0.205,0.135,
829,-0.215,0.135,
830,-0.2,0.145,
831,-0.185,0.155,
832,-0.175,0.145,
833,-0.195,0.135,
834,-0.21,0.13,
835,-0.23,0.14,
836,-0.2,0.14,
837,-0.195,0.145,
838,-0.185,0.13,
839,-0.19,0.12,
840,-0.215,0.12,
841,-0.215,0.125,
842,-0.205,0.145,
843,-0.195,0.145,
844,-0.205,0.145,
845,-0.235,0.13,
846,-0.235,0.12,
847,-0.24,0.13,
848,-0.22,0.14,
849,-0.2,0.145,
850,-0.21,0.145,
851,-0.23,0.14,
852,-0.24,0.125,
853,-0.235,0.125,
854,-0.23,0.12,
855,-0.2,0.13,
856,-0.195,0.115,
857,-0.215,0.115,
858,-0.22,0.095,
859,-0.23,0.11,
860,-0.21,0.12,
861,-0.19,0.135,
862,-0.195,0.125,
863,-0.215,0.115,
864,-0.225,0.115,
865,-0.225,0.12,
866,-0.185,0.135,
867,-0.19,0.14,
868,-0.18,0.135,
869,-0.185,0.12,
870,-0.21,0.115,
871,-0.2,0.125,
872,-0.19,0.135,
873,-0.165,0.155,
874,-0.18,0.135,
875,-0.19,0.12,
876,-0.205,0.11,
877,-0.21,0.13,
878,-0.18,0.13,
879,-0.17,0.145,
880,-0.18,0.14,
881,-0.185,0.135,
882,-0.195,0.13,
883,-0.205,0.135,
884,-0.21,0.15,
885,-0.185,0.155,
886,-0.18,0.14,
887,-0.2,0.135,
888,-0.215,0.13,
889,-0.215,0.135,
890,-0.185,0.155,
891,-0.16,0.155,
892,-0.165,0.14,
893,-0.17,0.135,
894,-0.165,0.135,
895,-0.18,0.135,
896,-0.16,0.155,
897,-0.145,0.155,
898,-0.135,0.16,
899,-0.145,0.12,
900,-0.155,0.13,
901,-0.16,0.135,
902,-0.145,0.135,
903,-0.12,0.15,
904,-0.125,0.15,
905,-0.13,0.13,
906,-0.13,0.105,
907,-0.135,0.125,
908,-0.13,0.135,
909,-0.115,0.135,
910,-0.095,0.135,
911,-0.09,0.105,
912,-0.07,0.085,
913,-0.02,0.09,
914,0.045,0.095,
915,0.135,0.09,
916,0.22,0.07,
917,0.335,0.05,
918,0.46,0.015,
919,0.615,0.0,
920,0.78,-0.035,
921,0.97,-0.065,
922,1.145,-0.09,
923,1.275,-0.08,
924,1.375,-0.025,N
925,1.395,0.075,
926,1.3,0.155,
927,1.13,0.165,
928,0.855,0.16,
929,0.565,0.155,
930,0.26,0.2,
931,-0.005,0.26,
932,-0.195,0.305,
933,-0.28,0.34,
934,-0.28,0.32,
935,-0.24,0.275,
936,-0.215,0.225,
937,-0.21,0.205,
938,-0.17,0.185,
939,-0.17,0.175,
940,-0.175,0.165,
941,-0.205,0.145,
942,-0.215,0.145,
943,-0.205,0.15,
944,-0.215,0.16,
945,-0.205,0.15,
946,-0.225,0.12,
947,-0.24,0.095,
948,-0.255,0.085,
949,-0.27,0.08,
950,-0.27,0.1,
951,-0.245,0.11,
952,-0.25,0.095,
953,-0.26,0.075,
954,-0.28,0.09,
955,-0.28,0.105,
956,-0.27,0.11,
957,-0.27,0.115,
958,-0.265,0.11,
959,-0.29,0.085,
960,-0.305,0.085,
961,-0.295,0.09,
962,-0.28,0.085,
963,-0.255,0.09,
964,-0.265,0.085,
965,-0.275,0.08,
966,-0.295,0.085,
967,-0.29,0.105,
968,-0.285,0.11,
969,-0.27,0.11,
970,-0.265,0.105,
971,-0.27,0.095,
972,-0.28,0.075,
973,-0.28,0.095,
974,-0.27,0.105,
975,-0.255,0.135,
976,-0.255,0.12,
977,-0.265,0.105,
978,-0.285,0.115,
979,-0.27,0.115,
980,-0.25,0.125,
981,-0.235,0.125,
982,-0.235,0.125,
983,-0.235,0.115,
984,-0.25,0.1,
985,-0.245,0.125,
986,-0.22,0.135,
987,-0.205,0.15,
988,-0.205,0.11,
989,-0.205,0.115,
990,-0.2,0.105,
991,-0.215,0.12,
992,-0.205,0.145,
993,-0.19,0.145,
994,-0.185,0.14,
995,-0.2,0.12,
996,-0.2,0.11,
997,-0.22,0.115,
998,-0.18,0.125,
999,-0.165,0.1,
1000,-0.175,0.075,
1001,-0.175,0.055,
1002,-0.18,0.06,
1003,-0.17,0.055,
1004,-0.145,0.055,
1005,-0.16,0.03,
1006,-0.15,0.005,
1007,-0.175,-0.01,
1008,-0.16,-0.005,
1009,-0.145,0.01,
1010,-0.13,0.0,
1011,-0.135,-0.01,
1012,-0.15,-0.03,
1013,-0.16,-0.035,
1014,-0.165,-0.03,
1015,-0.15,-0.03,
1016,-0.14,-0.02,
1017,-0.125,-0.025,
1018,-0.13,-0.05,
1019,-0.14,-0.045,
1020,-0.115,-0.02,
1021,-0.095,-0.02,
1022,-0.08,-0.02,
1023,-0.055,-0.03,
1024,-0.05,-0.055,
1025,-0.06,-0.065,
1026,-0.03,-0.05,
1027,-0.005,-0.04,
1028,0.01,-0.045,
1029,0.02,-0.06,
1030,0.025,-0.085,
1031,0.015,-0.08,
1032,0.025,-0.065,
1033,0.035,-0.035,
1034,0.06,0.0,
1035,0.07,-0.015,
1036,0.055,-0.02,
1037,0.035,-0.02,
1038,0.025,-0.02,
1039,0.04,-0.005,
1040,0.055,0.01,
1041,0.025,0.02,
1042,0.005,0.015,
1043,-0.005,0.01,
1044,-0.005,0.035,
1045,0.0,0.05,
1046,0.005,0.065,
1047,0.0,0.07,
1048,-0.02,0.055,
1049,-0.05,0.055,
1050,-0.065,0.07,
1051,-0.055,0.08,
1052,-0.065,0.105,
1053,-0.08,0.095,
1054,-0.095,0.09,
1055,-0.11,0.09,
1056,-0.11,0.105,
1057,-0.105,0.11,
1058,-0.095,0.125,
1059,-0.105,0.12,
1060,-0.12,0.105,
1061,-0.125,0.1,
1062,-0.135,0.1,
1063,-0.125,0.125,
1064,-0.115,0.125,
1065,-0.125,0.125,
1066,-0.145,0.11,
1067,-0.145,0.12,
1068,-0.15,0.135,
1069,-0.15,0.145,
1070,-0.13,0.155,
1071,-0.135,0.14,
1072,-0.145,0.135,
1073,-0.145,0.13,
1074,-0.145,0.14,
1075,-0.125,0.16,
1076,-0.105,0.165,
1077,-0.115,0.15,
1078,-0.12,0.145,
1079,-0.125,0.135,
1080,-0.135,0.15,
1081,-0.11,0.16,
1082,-0.09,0.165,
1083,-0.09,0.15,
1084,-0.105,0.125,
1085,-0.13,0.125,
1086,-0.13,0.135,
1087,-0.095,0.15,
1088,-0.085,0.145,
1089,-0.095,0.13,
1090,-0.115,0.12,
1091,-0.11,0.125,
1092,-0.11,0.12,
1093,-0.1,0.13,
1094,-0.095,0.135,
1095,-0.115,0.125,
1096,-0.105,0.1,
1097,-0.12,0.095,
1098,-0.125,0.11,
1099,-0.11,0.14,
1100,-0.105,0.125,
1101,-0.115,0.115,
1102,-0.12,0.08,
1103,-0.13,0.07,
1104,-0.12,0.08,
1105,-0.135,0.095,
1106,-0.1,0.09,
1107,-0.125,0.085,
1108,-0.14,0.075,
1109,-0.14,0.08,
1110,-0.145,0.095,
1111,-0.115,0.1,
1112,-0.115,0.105,
1113,-0.12,0.08,
1114,-0.14,0.065,
1115,-0.175,0.06,
1116,-0.18,0.09,
1117,-0.175,0.095,
1118,-0.15,0.105,
1119,-0.15,0.105,
1120,-0.145,0.1,
1121,-0.145,0.115,
1122,-0.15,0.12,
1123,-0.145,0.115,
1124,-0.14,0.11,
1125,-0.14,0.1,
1126,-0.16,0.09,
1127,-0.185,0.095,
1128,-0.175,0.105,
1129,-0.15,0.125,
1130,-0.135,0.13,
1131,-0.14,0.11,
1132,-0.17,0.105,
1133,-0.17,0.105,
1134,-0.165,0.125,
1135,-0.155,0.135,
1136,-0.145,0.14,
1137,-0.145,0.12,
1138,-0.16,0.13,
1139,-0.165,0.12,
1140,-0.16,0.125,
1141,-0.15,0.145,
1142,-0.125,0.15,
1143,-0.13,0.125,
1144,-0.16,0.125,
1145,-0.15,0.12,
1146,-0.155,0.135,
1147,-0.155,0.145,
1148,-0.155,0.145,
1149,-0.16,0.135,
1150,-0.15,0.13,
1151,-0.155,0.125,
1152,-0.15,0.15,
1153,-0.15,0.165,
1154,-0.135,0.17,
1155,-0.145,0.15,
1156,-0.165,0.13,
1157,-0.18,0.115,
1158,-0.19,0.135,
1159,-0.185,0.145,
1160,-0.155,0.14,
1161,-0.165,0.135,
1162,-0.165,0.115,
1163,-0.2,0.115,
1164,-0.205,0.12,
1165,-0.175,0.125,
1166,-0.165,0.125,
1167,-0.155,0.1,
1168,-0.17,0.095,
1169,-0.175,0.095,
1170,-0.195,0.105,
1171,-0.165,0.11,
1172,-0.165,0.12,
1173,-0.155,0.115,
1174,-0.165,0.105,
1175,-0.21,0.09,
1176,-0.195,0.095,
1177,-0.16,0.105,
1178,-0.15,0.13,
1179,-0.165,0.12,
1180,-0.165,0.115,
1181,-0.175,0.1,
1182,-0.165,0.125,
1183,-0.145,0.12,
1184,-0.125,0.13,
1185,-0.125,0.12,
1186,-0.15,0.11,
1187,-0.16,0.1,
1188,-0.175,0.125,
1189,-0.145,0.135,
1190,-0.135,0.14,
1191,-0.13,0.14,
1192,-0.14,0.125,
1193,-0.165,0.11,
1194,-0.17,0.115,
1195,-0.17,0.125,
1196,-0.155,0.15,
1197,-0.145,0.145,
1198,-0.15,0.12,
1199,-0.16,0.105,
1200,-0.155,0.135,
1201,-0.125,0.135,
1202,-0.115,0.155,
1203,-0.125,0.15,
1204,-0.135,0.14,
1205,-0.155,0.14,
1206,-0.155,0.16,
1207,-0.135,0.17,
1208,-0.13,0.17,
1209,-0.135,0.15,
1210,-0.155,0.135,
1211,-0.155,0.135,
1212,-0.16,0.145,
1213,-0.14,0.155,
1214,-0.135,0.16,
1215,-0.13,0.155,
1216,-0.135,0.135,
1217,-0.13,0.12,
1218,-0.135,0.13,
1219,-0.145,0.14,
1220,-0.11,0.145,
1221,-0.125,0.13,
1222,-0.13,0.12,
1223,-0.145,0.105,
1224,-0.13,0.13,
1225,-0.09,0.135,
1226,-0.05,0.12,
1227,-0.065,0.105,
1228,-0.065,0.075,
1229,-0.05,0.06,
1230,-0.005,0.075,
1231,0.07,0.08,
1232,0.165,0.07,
1233,0.255,0.05,
1234,0.36,0.02,
1235,0.485,0.0,
1236,0.63,-0.025,
1237,0.79,-0.045,
1238,0.965,-0.055,
1239,1.135,-0.06,
1240,1.275,-0.04,
1241,1.385,0.01,N
1242,1.425,0.1,
1243,1.385,0.17,
1244,1.26,0.205,
1245,1.025,0.2,
1246,0.745,0.18,
1247,0.495,0.215,
1248,0.245,0.275,
1249,0.005,0.315,
1250,-0.17,0.35,
1251,-0.265,0.355,
1252,-0.275,0.335,
1253,-0.25,0.29,
1254,-0.2,0.25,
1255,-0.17,0.245,
1256,-0.15,0.22,
1257,-0.15,0.195,
1258,-0.155,0.15,
1259,-0.165,0.12,
1260,-0.16,0.115,
1261,-0.18,0.115,
1262,-0.17,0.095,
1263,-0.19,0.08,
1264,-0.215,0.07,
1265,-0.225,0.06,
1266,-0.225,0.095,
1267,-0.215,0.105,
1268,-0.195,0.11,
1269,-0.2,0.1,
1270,-0.215,0.085,
1271,-0.205,0.095,
1272,-0.205,0.095,
1273,-0.2,0.115,
1274,-0.185,0.105,
1275,-0.185,0.115,
1276,-0.205,0.1,
1277,-0.21,0.11,
1278,-0.22,0.13,
1279,-0.21,0.14,
1280,-0.21,0.135,
1281,-0.21,0.11,
1282,-0.235,0.09,
1283,-0.245,0.1,
1284,-0.235,0.115,
1285,-0.22,0.125,
1286,-0.19,0.13,
1287,-0.19,0.12,
1288,-0.195,0.12,
1289,-0.215,0.11,
1290,-0.23,0.12,
1291,-0.215,0.13,
1292,-0.21,0.14,
1293,-0.21,0.135,
1294,-0.22,0.095,
1295,-0.23,0.105,
1296,-0.23,0.105,
1297,-0.215,0.125,
1298,-0.195,0.14,
1299,-0.2,0.13,
1300,-0.2,0.13,
1301,-0.215,0.125,
1302,-0.2,0.125,
1303,-0.185,0.12,
1304,-0.19,0.115,
1305,-0.2,0.115,
1306,-0.205,0.105,
1307,-0.225,0.105,
1308,-0.22,0.115,
1309,-0.205,0.115,
1310,-0.2,0.125,
1311,-0.2,0.11,
1312,-0.22,0.095,
1313,-0.22,0.06,
1314,-0.2,0.06,
1315,-0.17,0.065,
1316,-0.15,0.07,
1317,-0.145,0.06,
1318,-0.155,0.04,
1319,-0.17,0.045,
1320,-0.16,0.045,
1321,-0.135,0.065,
1322,-0.125,0.06,
1323,-0.115,0.04,
1324,-0.125,0.04,
1325,-0.145,0.035,
1326,-0.13,0.03,
1327,-0.13,0.04,
1328,-0.115,0.045,
1329,-0.105,0.025,
1330,-0.1,0.015,
1331,-0.115,0.01,
1332,-0.11,0.02,
1333,-0.1,0.015,
1334,-0.09,0.005,
1335,-0.08,-0.015,
1336,-0.09,-0.015,
1337,-0.08,-0.01,
1338,-0.08,0.005,
1339,-0.065,0.01,
1340,-0.06,0.01,
1341,-0.065,-0.01,
1342,-0.075,-0.015,
1343,-0.08,-0.045,
1344,-0.065,-0.025,
1345,-0.065,-0.005,
1346,-0.045,0.0,
1347,-0.04,-0.02,
1348,-0.045,-0.035,
1349,-0.055,-0.055,
1350,-0.055,-0.04,
1351,-0.04,-0.025,
1352,-0.035,-0.035,
1353,-0.04,-0.04,
1354,-0.05,-0.035,
1355,-0.04,-0.04,
1356,-0.035,-0.035,
1357,-0.015,-0.035,
1358,0.0,-0.015,
1359,-0.005,-0.035,
1360,-0.035,-0.045,
1361,-0.05,-0.04,
1362,-0.045,-0.04,
1363,-0.03,-0.02,
1364,-0.025,-0.015,
1365,-0.035,-0.03,
1366,-0.035,-0.035,
1367,-0.065,-0.025,
1368,-0.065,0.01,
1369,-0.065,0.025,
1370,-0.055,0.035,
1371,-0.08,0.055,
1372,-0.095,0.035,
1373,-0.115,0.045,
1374,-0.1,0.055,
1375,-0.09,0.095,
1376,-0.085,0.11,
1377,-0.085,0.11,
1378,-0.11,0.125,
1379,-0.13,0.125,
1380,-0.14,0.14,
1381,-0.125,0.165,
1382,-0.11,0.185,
1383,-0.115,0.16,
1384,-0.125,0.135,
1385,-0.145,0.145,
1386,-0.15,0.175,
1387,-0.14,0.195,
1388,-0.125,0.195,
1389,-0.12,0.2,
1390,-0.14,0.19,
1391,-0.15,0.2,
1392,-0.165,0.215,
1393,-0.14,0.215,
1394,-0.125,0.22,
1395,-0.13,0.21,
1396,-0.13,0.21,
1397,-0.125,0.2,
1398,-0.105,0.22,
1399,-0.075,0.21,
1400,-0.06,0.21,
1401,-0.08,0.205,
1402,-0.08,0.205,
1403,-0.08,0.195,
1404,-0.055,0.195,
1405,-0.02,0.215,
1406,0.015,0.225,
1407,0.035,0.2,
1408,0.055,0.205,
1409,0.04,0.21,
1410,0.04,0.23,
1411,0.08,0.23,
1412,0.135,0.23,
1413,0.175,0.21,
1414,0.225,0.17,
1415,0.265,0.11,
1416,0.335,0.02,
1417,0.42,-0.045,
1418,0.495,-0.11,
1419,0.56,-0.19,
1420,0.62,-0.27,
1421,0.67,-0.35,
1422,0.735,-0.41,
1423,0.825,-0.49,
1424,0.91,-0.59,
1425,0.98,-0.69,
1426,1.03,-0.78,
1427,1.065,-0.855,
1428,1.12,-0.89,
1429,1.125,-0.915,
1430,1.115,-0.915,V
1431,1.1,-0.915,
1432,1.085,-0.91,
1433,1.065,-0.905,
1434,1.015,-0.905,
1435,0.97,-0.89,
1436,0.91,-0.875,
1437,0.81,-0.87,
1438,0.69,-0.85,
1439,0.56,-0.805,
1440,0.445,-0.74,
1441,0.345,-0.665,
1442,0.28,-0.615,
1443,0.225,-0.555,
1444,0.175,-0.505,
1445,0.135,-0.455,
1446,0.135,-0.405,
1447,0.13,-0.355,
1448,0.145,-0.29,
1449,0.15,-0.24,
1450,0.145,-0.21,
1451,0.18,-0.17,
1452,0.235,-0.115,
1453,0.305,-0.085,
1454,0.365,-0.065,
1455,0.315,-0.06,
1456,0.2,-0.06,
1457,0.04,-0.03,
1458,-0.12,0.025,
1459,-0.25,0.09,
1460,-0.305,0.145,
1461,-0.36,0.2,
1462,-0.385,0.24,
1463,-0.415,0.285,
1464,-0.445,0.3,
1465,-0.47,0.32,
1466,-0.465,0.345,
1467,-0.485,0.355,
1468,-0.51,0.36,
1469,-0.54,0.37,
1470,-0.57,0.38,
1471,-0.56,0.41,
1472,-0.56,0.42,
1473,-0.575,0.41,
1474,-0.585,0.405,
1475,-0.595,0.395,
1476,-0.615,0.42,
1477,-0.605,0.46,
1478,-0.6,0.48,
1479,-0.605,0.48,
1480,-0.615,0.47,
1481,-0.62,0.47,
1482,-0.62,0.495,
1483,-0.64,0.52,
1484,-0.64,0.545,
1485,-0.635,0.555,
1486,-0.645,0.53,
1487,-0.675,0.54,
1488,-0.66,0.55,
1489,-0.645,0.57,
1490,-0.625,0.575,
1491,-0.635,0.575,
1492,-0.655,0.58,
1493,-0.66,0.585,
1494,-0.685,0.625,
1495,-0.675,0.635,
1496,-0.665,0.635,
1497,-0.675,0.635,
1498,-0.695,0.635,
1499,-0.705,0.645,
1500,-0.72,0.675,
1501,-0.72,0.69,
1502,-0.71,0.71,
1503,-0.705,0.695,
1504,-0.74,0.705,
1505,-0.75,0.7,
1506,-0.745,0.72,
1507,-0.745,0.745,
1508,-0.725,0.745,
1509,-0.725,0.755,
1510,-0.73,0.755,
1511,-0.73,0.765,
1512,-0.735,0.79,
1513,-0.715,0.8,
1514,-0.705,0.79,
1515,-0.73,0.8,
1516,-0.735,0.795,
1517,-0.725,0.795,
1518,-0.73,0.81,
1519,-0.715,0.81,
1520,-0.67,0.815,
1521,-0.675,0.815,
1522,-0.67,0.8,
1523,-0.665,0.79,
1524,-0.65,0.8,
1525,-0.625,0.77,
1526,-0.615,0.78,
1527,-0.61,0.76,
1528,-0.61,0.73,
1529,-0.595,0.71,
1530,-0.57,0.7,
1531,-0.54,0.69,
1532,-0.52,0.66,
1533,-0.51,0.645,
1534,-0.495,0.595,
1535,-0.48,0.58,
1536,-0.48,0.56,
1537,-0.445,0.555,
1538,-0.405,0.53,
1539,-0.4,0.49,
1540,-0.415,0.43,
1541,-0.405,0.43,
1542,-0.365,0.415,
1543,-0.35,0.395,
1544,-0.325,0.385,
1545,-0.31,0.36,
1546,-0.315,0.335,
1547,-0.335,0.305,
1548,-0.33,0.3,
1549,-0.31,0.305,
1550,-0.27,0.295,
1551,-0.255,0.26,
1552,-0.265,0.24,
1553,-0.29,0.225,
1554,-0.285,0.23,
1555,-0.255,0.23,
1556,-0.24,0.225,
1557,-0.25,0.22,
1558,-0.25,0.195,
1559,-0.255,0.17,
1560,-0.255,0.18,
1561,-0.255,0.19,
1562,-0.25,0.2,
1563,-0.235,0.185,
1564,-0.25,0.155,
1565,-0.255,0.155,
1566,-0.25,0.165,
1567,-0.24,0.18,
1568,-0.225,0.185,
1569,-0.23,0.175,
1570,-0.26,0.165,
1571,-0.25,0.165,
1572,-0.245,0.175,
1573,-0.245,0.19,
1574,-0.22,0.19,
1575,-0.22,0.17,
1576,-0.24,0.165,
1577,-0.255,0.155,
1578,-0.23,0.16,
1579,-0.215,0.18,
1580,-0.195,0.165,
1581,-0.21,0.14,
1582,-0.205,0.125,
1583,-0.205,0.11,
1584,-0.21,0.125,
1585,-0.205,0.155,
1586,-0.195,0.16,
1587,-0.2,0.155,
1588,-0.215,0.13,
1589,-0.235,0.125,
1590,-0.235,0.13,
1591,-0.225,0.14,
1592,-0.21,0.16,
1593,-0.205,0.15,
1594,-0.2,0.14,
1595,-0.225,0.13,
1596,-0.24,0.155,
1597,-0.22,0.165,
1598,-0.205,0.175,
1599,-0.2,0.16,
1600,-0.21,0.135,
1601,-0.23,0.14,
1602,-0.215,0.145,
1603,-0.21,0.16,
1604,-0.18,0.175,
1605,-0.195,0.17,
1606,-0.23,0.15,
1607,-0.24,0.16,
1608,-0.225,0.17,
1609,-0.21,0.18,
1610,-0.2,0.19,
1611,-0.22,0.18,
1612,-0.24,0.165,
1613,-0.235,0.165,
1614,-0.23,0.195,
1615,-0.225,0.185,
1616,-0.215,0.18,
1617,-0.23,0.18,
1618,-0.235,0.17,
1619,-0.24,0.16,
1620,-0.24,0.155,
1621,-0.235,0.15,
1622,-0.235,0.145,
1623,-0.25,0.12,
1624,-0.255,0.115,
1625,-0.26,0.095,
1626,-0.245,0.11,
1627,-0.225,0.135,
1628,-0.2,0.13,
1629,-0.215,0.115,
1630,-0.225,0.095,
1631,-0.235,0.085,
1632,-0.225,0.11,
1633,-0.21,0.12,
1634,-0.205,0.11,
1635,-0.215,0.11,
1636,-0.225,0.105,
1637,-0.235,0.1,
1638,-0.23,0.11,
1639,-0.24,0.12,
1640,-0.215,0.125,
1641,-0.22,0.1,
1642,-0.225,0.07,
1643,-0.23,0.095,
1644,-0.22,0.105,
1645,-0.215,0.125,
1646,-0.19,0.13,
1647,-0.195,0.13,
1648,-0.225,0.11,
1649,-0.245,0.115,
1650,-0.26,0.135,
1651,-0.245,0.155,
1652,-0.215,0.14,
1653,-0.215,0.135,
1654,-0.24,0.12,
1655,-0.28,0.135,
1656,-0.26,0.14,
1657,-0.25,0.16,
1658,-0.24,0.155,
1659,-0.24,0.145,
1660,-0.235,0.145,
1661,-0.24,0.145,
1662,-0.235,0.15,
1663,-0.23,0.155,
1664,-0.215,0.155,
1665,-0.215,0.16,
1666,-0.225,0.145,
1667,-0.235,0.14,
1668,-0.23,0.14,
1669,-0.22,0.15,
1670,-0.235,0.15,
1671,-0.24,0.14,
1672,-0.25,0.135,
1673,-0.245,0.135,
1674,-0.23,0.14,
1675,-0.225,0.16,
1676,-0.21,0.16,
1677,-0.22,0.165,
1678,-0.235,0.14,
1679,-0.245,0.135,
1680,-0.245,0.15,
1681,-0.23,0.15,
1682,-0.22,0.135,
1683,-0.23,0.135,
1684,-0.25,0.12,
1685,-0.24,0.12,
1686,-0.245,0.125,
1687,-0.225,0.125,
1688,-0.19,0.14,
1689,-0.195,0.135,
1690,-0.205,0.115,
1691,-0.23,0.115,
1692,-0.225,0.125,
1693,-0.225,0.135,
1694,-0.19,0.13,
1695,-0.2,0.14,
1696,-0.225,0.11,
1697,-0.235,0.12,
1698,-0.235,0.12,
1699,-0.22,0.125,
1700,-0.24,0.13,
1701,-0.25,0.13,
1702,-0.265,0.115,
1703,-0.265,0.14,
1704,-0.245,0.145,
1705,-0.23,0.155,
1706,-0.215,0.15,
1707,-0.225,0.125,
1708,-0.24,0.1,
1709,-0.24,0.11,
1710,-0.25,0.11,
1711,-0.23,0.125,
1712,-0.215,0.12,
1713,-0.215,0.125,
1714,-0.23,0.105,
1715,-0.24,0.12,
1716,-0.245,0.125,
1717,-0.23,0.125,
1718,-0.23,0.11,
1719,-0.21,0.12,
1720,-0.22,0.115,
1721,-0.235,0.12,
1722,-0.235,0.135,
1723,-0.22,0.165,
1724,-0.205,0.14,
1725,-0.225,0.135,
1726,-0.235,0.11,
1727,-0.25,0.115,
1728,-0.26,0.115,
1729,-0.225,0.135,
1730,-0.215,0.135,
1731,-0.235,0.12,
1732,-0.24,0.11,
1733,-0.255,0.105,
1734,-0.245,0.11,
1735,-0.225,0.115,
1736,-0.205,0.115,
1737,-0.21,0.105,
1738,-0.225,0.095,
1739,-0.24,0.105,
1740,-0.225,0.115,
1741,-0.205,0.125,
1742,-0.235,0.125,
1743,-0.255,0.125,
1744,-0.28,0.115,
1745,-0.275,0.11,
1746,-0.235,0.125,
1747,-0.21,0.14,
1748,-0.21,0.15,
1749,-0.215,0.135,
1750,-0.21,0.125,
1751,-0.21,0.125,
1752,-0.21,0.14,
1753,-0.2,0.145,
1754,-0.18,0.145,
1755,-0.19,0.115,
1756,-0.2,0.095,
1757,-0.22,0.09,
1758,-0.23,0.115,
1759,-0.205,0.125,
1760,-0.19,0.115,
1761,-0.21,0.115,
1762,-0.2,0.095,
1763,-0.225,0.11,
1764,-0.22,0.125,
1765,-0.2,0.145,
1766,-0.195,0.15,
1767,-0.195,0.145,
1768,-0.215,0.12,
1769,-0.215,0.125,
1770,-0.215,0.145,
1771,-0.2,0.155,
1772,-0.21,0.14,
1773,-0.205,0.13,
1774,-0.19,0.11,
1775,-0.21,0.125,
1776,-0.205,0.135,
1777,-0.205,0.155,
1778,-0.18,0.15,
1779,-0.19,0.135,
1780,-0.205,0.115,
1781,-0.2,0.13,
1782,-0.2,0.125,
1783,-0.185,0.145,
1784,-0.16,0.145,
1785,-0.165,0.125,
1786,-0.17,0.105,
1787,-0.19,0.095,
1788,-0.19,0.1,
1789,-0.17,0.105,
1790,-0.155,0.095,
1791,-0.15,0.085,
1792,-0.125,0.06,
1793,-0.095,0.045,
1794,-0.025,0.055,
1795,0.045,0.05,
1796,0.135,0.05,
1797,0.245,0.04,
1798,0.34,0.025,
1799,0.48,0.015,
1800,0.67,-0.03,
1801,0.855,-0.05,
1802,1.03,-0.065,
1803,1.19,-0.08,
1804,1.285,-0.065,N
1805,1.335,-0.005,
1806,1.275,0.08,
1807,1.13,0.12,
1808,0.905,0.105,
1809,0.635,0.11,
1810,0.37,0.14,
1811,0.09,0.175,
1812,-0.135,0.215,
1813,-0.27,0.225,
1814,-0.29,0.235,
1815,-0.26,0.2,
1816,-0.23,0.155,
1817,-0.225,0.12,
1818,-0.195,0.11,
1819,-0.2,0.11,
1820,-0.21,0.115,
1821,-0.2,0.11,
1822,-0.225,0.095,
1823,-0.23,0.085,
1824,-0.22,0.095,
1825,-0.22,0.12,
1826,-0.23,0.13,
1827,-0.25,0.125,
1828,-0.285,0.12,
1829,-0.275,0.115,
1830,-0.275,0.115,
1831,-0.26,0.135,
1832,-0.26,0.13,
1833,-0.275,0.12,
1834,-0.29,0.095,
1835,-0.295,0.11,
1836,-0.29,0.12,
1837,-0.275,0.14,
1838,-0.265,0.14,
1839,-0.265,0.13,
1840,-0.285,0.115,
1841,-0.3,0.12,
1842,-0.29,0.155,
1843,-0.28,0.16,
1844,-0.27,0.155,
1845,-0.265,0.13,
1846,-0.275,0.115,
1847,-0.315,0.12,
1848,-0.33,0.135,
1849,-0.305,0.165,
1850,-0.29,0.165,
1851,-0.3,0.15,
1852,-0.31,0.15,
1853,-0.33,0.145,
1854,-0.335,0.155,
1855,-0.295,0.16,
1856,-0.28,0.155,
1857,-0.295,0.14,
1858,-0.3,0.115,
1859,-0.31,0.115,
1860,-0.3,0.12,
1861,-0.285,0.115,
1862,-0.26,0.105,
1863,-0.26,0.085,
1864,-0.285,0.09,
1865,-0.275,0.095,
1866,-0.27,0.12,
1867,-0.255,0.12,
1868,-0.245,0.125,
1869,-0.245,0.1,
1870,-0.26,0.095,
1871,-0.275,0.085,
1872,-0.27,0.08,
1873,-0.26,0.105,
1874,-0.245,0.11,
1875,-0.23,0.095,
1876,-0.235,0.07,
1877,-0.245,0.075,
1878,-0.23,0.09,
1879,-0.24,0.095,
1880,-0.195,0.09,
1881,-0.205,0.075,
1882,-0.205,0.07,
1883,-0.21,0.075,
1884,-0.195,0.07,
1885,-0.165,0.075,
1886,-0.14,0.08,
1887,-0.145,0.065,
1888,-0.15,0.055,
1889,-0.16,0.03,
1890,-0.165,0.04,
1891,-0.145,0.035,
1892,-0.13,0.045,
1893,-0.13,0.02,
1894,-0.145,0.005,
1895,-0.135,0.005,
1896,-0.12,0.01,
1897,-0.11,0.01,
1898,-0.09,0.0,
1899,-0.095,-0.02,
1900,-0.11,-0.04,
1901,-0.1,-0.04,
1902,-0.085,-0.04,
1903,-0.075,-0.04,
1904,-0.075,-0.04,
1905,-0.065,-0.05,
1906,-0.07,-0.06,
1907,-0.07,-0.055,
1908,-0.065,-0.06,
1909,-0.035,-0.055,
1910,-0.015,-0.05,
1911,-0.02,-0.08,
1912,-0.025,-0.085,
1913,-0.025,-0.09,
1914,-0.03,-0.06,
1915,-0.015,-0.04,
1916,0.015,-0.035,
1917,0.02,-0.05,
1918,-0.005,-0.05,
1919,-0.01,-0.02,
1920,-0.025,0.005,
1921,-0.025,0.03,
1922,-0.03,0.035,
1923,-0.04,0.03,
1924,-0.05,0.02,
1925,-0.07,0.05,
1926,-0.08,0.08,
1927,-0.075,0.095,
1928,-0.06,0.09,
1929,-0.075,0.09,
1930,-0.1,0.075,
1931,-0.12,0.1,
1932,-0.13,0.125,
1933,-0.125,0.145,
1934,-0.115,0.14,
1935,-0.135,0.135,
1936,-0.155,0.12,
1937,-0.175,0.125,
1938,-0.175,0.14,
1939,-0.155,0.16,
1940,-0.15,0.155,
1941,-0.155,0.15,
1942,-0.16,0.135,
1943,-0.17,0.13,
1944,-0.175,0.15,
1945,-0.17,0.17,
1946,-0.155,0.18,
1947,-0.175,0.165,
1948,-0.18,0.155,
1949,-0.19,0.13,
1950,-0.195,0.12,
1951,-0.185,0.12,
1952,-0.165,0.125,
1953,-0.165,0.11,
1954,-0.195,0.095,
1955,-0.195,0.1,
1956,-0.19,0.105,
1957,-0.17,0.115,
1958,-0.155,0.1,
1959,-0.175,0.095,
1960,-0.185,0.085,
1961,-0.175,0.075,
1962,-0.17,0.09,
1963,-0.155,0.095,
1964,-0.14,0.09,
1965,-0.135,0.085,
1966,-0.155,0.075,
1967,-0.16,0.085,
1968,-0.14,0.085,
1969,-0.14,0.09,
1970,-0.145,0.1,
1971,-0.145,0.095,
1972,-0.165,0.08,
1973,-0.165,0.09,
1974,-0.175,0.105,
1975,-0.16,0.11,
1976,-0.135,0.105,
1977,-0.12,0.09,
1978,-0.145,0.085,
1979,-0.15,0.095,
1980,-0.13,0.09,
1981,-0.13,0.115,
1982,-0.1,0.115,
1983,-0.11,0.115,
1984,-0.125,0.09,
1985,-0.14,0.095,
1986,-0.15,0.095,
1987,-0.13,0.115,
1988,-0.15,0.1,
1989,-0.16,0.1,
1990,-0.18,0.085,
1991,-0.18,0.09,
1992,-0.18,0.1,
1993,-0.16,0.11,
1994,-0.15,0.105,
1995,-0.16,0.095,
1996,-0.155,0.085,
1997,-0.165,0.095,
1998,-0.16,0.095,
1999,-0.165,0.11,
2000,-0.15,0.115,
2001,-0.16,0.12,
2002,-0.165,0.095,
2003,-0.185,0.085,
2004,-0.17,0.085,
2005,-0.16,0.115,
2006,-0.15,0.105,
2007,-0.16,0.11,
2008,-0.185,0.085,
2009,-0.19,0.095,
2010,-0.21,0.095,
2011,-0.19,0.105,
2012,-0.18,0.115,
2013,-0.17,0.105,
2014,-0.185,0.095,
2015,-0.2,0.1,
2016,-0.185,0.1,
2017,-0.17,0.115,
2018,-0.17,0.11,
2019,-0.175,0.09,
2020,-0.18,0.095,
2021,-0.2,0.1,
2022,-0.175,0.105,
2023,-0.165,0.125,
2024,-0.15,0.11,
2025,-0.155,0.09,
2026,-0.16,0.08,
2027,-0.185,0.095,
2028,-0.185,0.11,
2029,-0.165,0.13,
2030,-0.16,0.12,
2031,-0.155,0.105,
2032,-0.16,0.08,
2033,-0.18,0.09,
2034,-0.165,0.11,
2035,-0.17,0.115,
2036,-0.155,0.105,
2037,-0.17,0.105,
2038,-0.19,0.105,
2039,-0.195,0.115,
2040,-0.19,0.135,
2041,-0.17,0.125,
2042,-0.15,0.13,
2043,-0.14,0.11,
2044,-0.16,0.095,
2045,-0.19,0.1,
2046,-0.2,0.105,
2047,-0.185,0.12,
2048,-0.155,0.13,
2049,-0.15,0.11,
2050,-0.155,0.09,
2051,-0.175,0.085,
2052,-0.155,0.09,
2053,-0.105,0.095,
2054,-0.03,0.085,
2055,0.03,0.06,
2056,0.105,0.05,
2057,0.2,0.035,
2058,0.3,0.045,
2059,0.46,0.035,
2060,0.645,-0.005,
2061,0.835,-0.055,
2062,1.0,-0.1,
2063,1.165,-0.085,
2064,1.295,-0.05,N
2065,1.335,0.045,
2066,1.25,0.14,
2067,1.01,0.175,
2068,0.7,0.145,
2069,0.355,0.17,
2070,0.055,0.245,
2071,-0.2,0.32,
2072,-0.34,0.365,
2073,-0.375,0.355,
2074,-0.325,0.32,
2075,-0.29,0.26,
2076,-0.25,0.205,
2077,-0.2,0.165,
2078,-0.17,0.14,
2079,-0.18,0.085,
2080,-0.205,0.08,
2081,-0.225,0.085,
2082,-0.22,0.08,
2083,-0.21,0.1,
2084,-0.22,0.1,
2085,-0.235,0.1,
2086,-0.25,0.09,
2087,-0.265,0.1,
2088,-0.265,0.12,
2089,-0.26,0.13,
2090,-0.245,0.13,
2091,-0.24,0.11,
2092,-0.25,0.1,
2093,-0.265,0.1,
2094,-0.265,0.11,
2095,-0.27,0.13,
2096,-0.26,0.115,
2097,-0.285,0.125,
2098,-0.29,0.115,
2099,-0.285,0.105,
2100,-0.28,0.11,
2101,-0.265,0.115,
2102,-0.26,0.1,
2103,-0.255,0.09,
2104,-0.285,0.08,
2105,-0.29,0.09,
2106,-0.305,0.11,
2107,-0.3,0.135,
2108,-0.28,0.12,
2109,-0.28,0.11,
2110,-0.295,0.1,
2111,-0.285,0.095,
2112,-0.27,0.12,
2113,-0.26,0.125,
2114,-0.25,0.11,
2115,-0.255,0.095,
2116,-0.26,0.09,
2117,-0.25,0.085,
2118,-0.245,0.065,
2119,-0.24,0.095,
2120,-0.215,0.085,
2121,-0.22,0.07,
2122,-0.25,0.055,
2123,-0.23,0.065,
2124,-0.23,0.07,
2125,-0.215,0.07,
2126,-0.205,0.075,
2127,-0.215,0.06,
2128,-0.22,0.05,
2129,-0.235,0.035,
2130,-0.235,0.03,
2131,-0.215,0.04,
2132,-0.19,0.025,
2133,-0.17,0.02,
2134,-0.17,0.005,
2135,-0.185,0.005,
2136,-0.205,0.015,
2137,-0.205,0.03,
2138,-0.175,0.04,
2139,-0.165,0.02,
2140,-0.16,-0.005,
2141,-0.16,-0.04,
2142,-0.16,-0.03,
2143,-0.135,-0.005,
2144,-0.125,-0.01,
2145,-0.125,-0.02,
2146,-0.12,-0.05,
2147,-0.11,-0.06,
2148,-0.115,-0.055,
2149,-0.095,-0.045,
2150,-0.075,-0.06,
2151,-0.075,-0.065,
2152,-0.11,-0.09,
2153,-0.12,-0.09,
2154,-0.105,-0.08,
2155,-0.065,-0.075,
2156,-0.06,-0.09,
2157,-0.07,-0.09,
2158,-0.065,-0.095,
2159,-0.09,-0.1,
2160,-0.085,-0.095,
2161,-0.06,-0.1,
2162,-0.04,-0.09,
2163,-0.04,-0.095,
2164,-0.065,-0.105,
2165,-0.07,-0.105,
2166,-0.055,-0.09,
2167,-0.065,-0.075,
2168,-0.05,-0.065,
2169,-0.045,-0.05,
2170,-0.06,-0.05,
2171,-0.09,-0.04,
2172,-0.095,-0.015,
2173,-0.095,0.02,
2174,-0.1,0.015,
2175,-0.115,0.035,
2176,-0.13,0.025,
2177,-0.155,0.03,
2178,-0.155,0.055,
2179,-0.14,0.08,
2180,-0.145,0.085,
2181,-0.14,0.075,
2182,-0.16,0.085,
2183,-0.18,0.1,
2184,-0.19,0.105,
2185,-0.185,0.125,
2186,-0.185,0.145,
2187,-0.19,0.14,
2188,-0.21,0.13,
2189,-0.215,0.14,
2190,-0.2,0.16,
2191,-0.2,0.195,
2192,-0.2,0.2,
2193,-0.205,0.205,
2194,-0.23,0.195,
2195,-0.23,0.19,
2196,-0.215,0.185,
2197,-0.21,0.19,
2198,-0.195,0.2,
2199,-0.185,0.195,
2200,-0.2,0.185,
2201,-0.205,0.185,
2202,-0.23,0.205,
2203,-0.215,0.215,
2204,-0.2,0.205,
2205,-0.19,0.19,
2206,-0.185,0.165,
2207,-0.19,0.17,
2208,-0.17,0.185,
2209,-0.17,0.185,
2210,-0.16,0.175,
2211,-0.175,0.165,
2212,-0.185,0.15,
2213,-0.185,0.16,
2214,-0.175,0.17,
2215,-0.175,0.175,
2216,-0.145,0.18,
2217,-0.175,0.14,
2218,-0.185,0.13,
2219,-0.2,0.13,
2220,-0.215,0.13,
2221,-0.175,0.16,
2222,-0.17,0.14,
2223,-0.175,0.125,
2224,-0.18,0.1,
2225,-0.19,0.085,
2226,-0.195,0.11,
2227,-0.19,0.115,
2228,-0.19,0.12,
2229,-0.2,0.11,
2230,-0.195,0.105,
2231,-0.205,0.115,
2232,-0.195,0.12,
2233,-0.175,0.12,
2234,-0.16,0.105,
2235,-0.17,0.1,
2236,-0.205,0.085,
2237,-0.195,0.1,
2238,-0.21,0.12,
2239,-0.185,0.14,
2240,-0.17,0.13,
2241,-0.185,0.125,
2242,-0.205,0.1,
2243,-0.215,0.105,
2244,-0.19,0.125,
2245,-0.175,0.15,
2246,-0.165,0.15,
2247,-0.175,0.155,
2248,-0.185,0.13,
2249,-0.185,0.15,
2250,-0.185,0.16,
2251,-0.19,0.175,
2252,-0.165,0.145,
2253,-0.18,0.12,
2254,-0.2,0.12,
2255,-0.225,0.125,
2256,-0.205,0.14,
2257,-0.19,0.165,
2258,-0.18,0.145,
2259,-0.18,0.155,
2260,-0.185,0.135,
2261,-0.19,0.14,
2262,-0.205,0.15,
2263,-0.18,0.145,
2264,-0.19,0.145,
2265,-0.19,0.125,
2266,-0.215,0.12,
2267,-0.235,0.135,
2268,-0.215,0.135,
2269,-0.195,0.145,
2270,-0.17,0.14,
2271,-0.18,0.13,
2272,-0.19,0.115,
2273,-0.205,0.12,
2274,-0.21,0.13,
2275,-0.19,0.15,
2276,-0.185,0.145,
2277,-0.21,0.13,
2278,-0.22,0.125,
2279,-0.23,0.13,
2280,-0.235,0.145,
2281,-0.215,0.16,
2282,-0.19,0.17,
2283,-0.215,0.15,
2284,-0.235,0.125,
2285,-0.22,0.12,
2286,-0.21,0.135,
2287,-0.205,0.155,
2288,-0.2,0.15,
2289,-0.185,0.12,
2290,-0.2,0.09,
2291,-0.21,0.105,
2292,-0.22,0.135,
2293,-0.21,0.155,
2294,-0.2,0.16,
2295,-0.2,0.155,
2296,-0.185,0.13,
2297,-0.21,0.14,
2298,-0.21,0.145,
2299,-0.205,0.155,
2300,-0.185,0.155,
2301,-0.195,0.155,
2302,-0.19,0.15,
2303,-0.2,0.15,
2304,-0.205,0.155,
2305,-0.205,0.15,
2306,-0.2,0.155,
2307,-0.19,0.14,
2308,-0.2,0.12,
2309,-0.195,0.12,
2310,-0.2,0.12,
2311,-0.195,0.145,
2312,-0.195,0.14,
2313,-0.2,0.15,
2314,-0.22,0.145,
2315,-0.2,0.135,
2316,-0.18,0.14,
2317,-0.175,0.16,
2318,-0.16,0.16,
2319,-0.18,0.155,
2320,-0.195,0.135,
2321,-0.205,0.145,
2322,-0.2,0.155,
2323,-0.175,0.165,
2324,-0.145,0.145,
2325,-0.16,0.14,
2326,-0.17,0.13,
2327,-0.19,0.13,
2328,-0.185,0.14,
2329,-0.16,0.14,
2330,-0.165,0.14,
2331,-0.17,0.12,
2332,-0.18,0.13,
2333,-0.185,0.135,
2334,-0.165,0.14,
2335,-0.145,0.16,
2336,-0.135,0.145,
2337,-0.145,0.115,
2338,-0.165,0.115,
2339,-0.15,0.115,
2340,-0.17,0.135,
2341,-0.155,0.14,
2342,-0.165,0.135,
2343,-0.145,0.105,
2344,-0.145,0.08,
2345,-0.115,0.075,
2346,-0.045,0.075,
2347,0.04,0.09,
2348,0.13,0.07,
2349,0.215,0.06,
2350,0.32,0.02,
2351,0.455,0.01,
2352,0.625,-0.01,
2353,0.82,-0.035,
2354,1.035,-0.055,
2355,1.215,-0.06,
2356,1.34,-0.035,N
2357,1.4,0.05,
2358,1.35,0.15,
2359,1.195,0.195,
2360,0.935,0.185,
2361,0.64,0.17,
2362,0.325,0.195,
2363,0.01,0.26,
2364,-0.245,0.325,
2365,-0.355,0.365,
2366,-0.35,0.355,
2367,-0.275,0.31,
2368,-0.265,0.23,
2369,-0.245,0.195,
2370,-0.225,0.17,
2371,-0.2,0.165,
2372,-0.185,0.145,
2373,-0.22,0.13,
2374,-0.23,0.13,
2375,-0.24,0.13,
2376,-0.25,0.14,
2377,-0.23,0.145,
2378,-0.23,0.145,
2379,-0.26,0.115,
2380,-0.265,0.115,
2381,-0.295,0.13,
2382,-0.27,0.13,
2383,-0.26,0.15,
2384,-0.25,0.145,
2385,-0.265,0.125,
2386,-0.28,0.1,
2387,-0.28,0.105,
2388,-0.29,0.1,
2389,-0.26,0.105,
2390,-0.245,0.11,
2391,-0.27,0.11,
2392,-0.275,0.105,
2393,-0.29,0.1,
2394,-0.27,0.09,
2395,-0.26,0.11,
2396,-0.245,0.1,
2397,-0.25,0.1,
2398,-0.26,0.1,
2399,-0.265,0.11,
2400,-0.27,0.125,
2401,-0.255,0.135,
2402,-0.26,0.13,
2403,-0.265,0.13,
2404,-0.275,0.125,
2405,-0.285,0.11,
2406,-0.295,0.115,
2407,-0.28,0.13,
2408,-0.25,0.125,
2409,-0.24,0.11,
2410,-0.24,0.09,
2411,-0.265,0.08,
2412,-0.26,0.1,
2413,-0.245,0.125,
2414,-0.23,0.115,
2415,-0.235,0.115,
2416,-0.24,0.105,
2417,-0.235,0.105,
2418,-0.23,0.115,
2419,-0.235,0.12,
2420,-0.22,0.1,
2421,-0.2,0.095,
2422,-0.215,0.075,
2423,-0.235,0.095,
2424,-0.22,0.1,
2425,-0.215,0.105,
2426,-0.195,0.08,
2427,-0.2,0.06,
2428,-0.215,0.045,
2429,-0.225,0.05,
2430,-0.19,0.05,
2431,-0.15,0.045,
2432,-0.12,0.035,
2433,-0.125,0.0,
2434,-0.14,-0.025,
2435,-0.14,-0.025,
2436,-0.135,-0.015,
2437,-0.11,-0.01,
2438,-0.08,-0.02,
2439,-0.095,-0.04,
2440,-0.1,-0.07,
2441,-0.1,-0.07,
2442,-0.095,-0.07,
2443,-0.07,-0.06,
2444,-0.045,-0.07,
2445,-0.05,-0.085,
2446,-0.09,-0.1,
2447,-0.065,-0.085,
2448,-0.06,-0.08,
2449,-0.05,-0.075,
2450,-0.04,-0.095,
2451,-0.03,-0.095,
2452,-0.04,-0.085,
2453,-0.055,-0.1,
2454,-0.035,-0.075,
2455,-0.04,-0.06,
2456,-0.015,-0.075,
2457,-0.03,-0.075,
2458,-0.045,-0.09,
2459,-0.05,-0.07,
2460,-0.04,-0.045,
2461,-0.04,-0.025,
2462,-0.045,-0.025,
2463,-0.045,-0.02,
2464,-0.055,-0.025,
2465,-0.07,-0.02,
2466,-0.08,0.0,
2467,-0.08,0.02,
2468,-0.09,0.04,
2469,-0.1,0.035,
2470,-0.125,0.025,
2471,-0.135,0.035,
2472,-0.13,0.065,
2473,-0.105,0.09,
2474,-0.09,0.095,
2475,-0.13,0.08,
2476,-0.165,0.075,
2477,-0.185,0.095,
2478,-0.18,0.12,
2479,-0.17,0.15,
2480,-0.17,0.14,
2481,-0.17,0.13,
2482,-0.18,0.12,
2483,-0.19,0.13,
2484,-0.185,0.145,
2485,-0.195,0.145,
2486,-0.18,0.135,
2487,-0.185,0.125,
2488,-0.195,0.115,
2489,-0.19,0.135,
2490,-0.185,0.14,
2491,-0.165,0.165,
2492,-0.135,0.155,
2493,-0.145,0.155,
2494,-0.145,0.13,
2495,-0.145,0.13,
2496,-0.105,0.14,
2497,-0.055,0.155,
2498,-0.005,0.17,
2499,0.005,0.165,
2500,0.005,0.17,
2501,0.03,0.195,
2502,0.065,0.205,
2503,0.14,0.205,
2504,0.215,0.17,
2505,0.275,0.095,
2506,0.345,-0.005,
2507,0.395,-0.08,
2508,0.47,-0.135,
2509,0.57,-0.205,
2510,0.645,-0.265,
2511,0.705,-0.355,
2512,0.75,-0.43,
2513,0.82,-0.535,
2514,0.915,-0.625,
2515,1.035,-0.71,
2516,1.12,-0.815,
2517,1.16,-0.905,
2518,1.17,-0.965,
2519,1.145,-0.965,
2520,1.125,-0.94,V
2521,1.12,-0.92,
2522,1.105,-0.95,
2523,1.055,-0.985,
2524,0.98,-1.01,
2525,0.89,-1.01,
2526,0.785,-0.99,
2527,0.67,-0.94,
2528,0.555,-0.92,
2529,0.425,-0.89,
2530,0.29,-0.855,
2531,0.17,-0.79,
2532,0.075,-0.72,
2533,0.015,-0.62,
2534,-0.01,-0.56,
2535,-0.025,-0.505,
2536,-0.055,-0.435,
2537,-0.075,-0.38,
2538,-0.085,-0.31,
2539,-0.045,-0.25,
2540,0.025,-0.2,
2541,0.1,-0.15,
2542,0.165,-0.12,
2543,0.215,-0.095,
2544,0.22,-0.065,
2545,0.15,-0.03,
2546,0.025,0.01,
2547,-0.14,0.045,
2548,-0.285,0.085,
2549,-0.35,0.15,
2550,-0.405,0.225,
2551,-0.41,0.285,
2552,-0.425,0.315,
2553,-0.43,0.345,
2554,-0.47,0.345,
2555,-0.505,0.37,
2556,-0.515,0.395,
2557,-0.51,0.415,
2558,-0.5,0.415,
2559,-0.52,0.4,
2560,-0.56,0.395,
2561,-0.58,0.4,
2562,-0.575,0.42,
2563,-0.56,0.44,
2564,-0.56,0.445,
2565,-0.585,0.44,
2566,-0.605,0.425,
2567,-0.615,0.44,
2568,-0.61,0.46,
2569,-0.61,0.49,
2570,-0.605,0.475,
2571,-0.625,0.48,
2572,-0.63,0.48,
2573,-0.66,0.48,
2574,-0.645,0.51,
2575,-0.65,0.52,
2576,-0.64,0.525,
2577,-0.67,0.505,
2578,-0.67,0.505,
2579,-0.695,0.525,
2580,-0.695,0.545,
2581,-0.68,0.56,
2582,-0.665,0.575,
2583,-0.67,0.555,
2584,-0.69,0.545,
2585,-0.71,0.575,
2586,-0.69,0.595,
2587,-0.695,0.63,
2588,-0.69,0.635,
2589,-0.7,0.635,
2590,-0.72,0.64,
2591,-0.725,0.65,
2592,-0.72,0.685,
2593,-0.7,0.71,
2594,-0.69,0.7,
2595,-0.685,0.705,
2596,-0.705,0.715,
2597,-0.705,0.725,
2598,-0.695,0.735,
2599,-0.675,0.77,
2600,-0.67,0.78,
2601,-0.66,0.775,
2602,-0.675,0.775,
2603,-0.65,0.785,
2604,-0.635,0.805,
2605,-0.605,0.825,
2606,-0.6,0.825,
2607,-0.61,0.8,
2608,-0.6,0.79,
2609,-0.6,0.785,
2610,-0.57,0.79,
2611,-0.555,0.8,
2612,-0.525,0.785,
2613,-0.515,0.755,
2614,-0.52,0.74,
2615,-0.515,0.73,
2616,-0.5,0.725,
2617,-0.47,0.715,
2618,-0.435,0.705,
2619,-0.43,0.655,
2620,-0.41,0.64,
2621,-0.4,0.62,
2622,-0.375,0.6,
2623,-0.36,0.59,
2624,-0.35,0.56,
2625,-0.325,0.535,
2626,-0.33,0.49,
2627,-0.335,0.48,
2628,-0.305,0.46,
2629,-0.29,0.45,
2630,-0.28,0.405,
2631,-0.305,0.385,
2632,-0.315,0.355,
2633,-0.315,0.345,
2634,-0.305,0.34,
2635,-0.305,0.335,
2636,-0.29,0.305,
2637,-0.29,0.29,
2638,-0.305,0.26,
2639,-0.315,0.255,
2640,-0.31,0.245,
2641,-0.305,0.255,
2642,-0.295,0.245,
2643,-0.295,0.23,
2644,-0.305,0.21,
2645,-0.335,0.2,
2646,-0.335,0.215,
2647,-0.31,0.21,
2648,-0.32,0.21,
2649,-0.33,0.18,
2650,-0.325,0.185,
2651,-0.32,0.185,
2652,-0.3,0.195,
2653,-0.28,0.205,
2654,-0.28,0.18,
2655,-0.27,0.165,
2656,-0.295,0.15,
2657,-0.29,0.165,
2658,-0.29,0.18,
2659,-0.265,0.21,
2660,-0.255,0.195,
2661,-0.245,0.17,
2662,-0.265,0.14,
2663,-0.27,0.14,
2664,-0.28,0.155,
2665,-0.275,0.165,
2666,-0.255,0.16,
2667,-0.26,0.15,
2668,-0.25,0.13,
2669,-0.26,0.14,
2670,-0.265,0.16,
2671,-0.24,0.165,
2672,-0.235,0.15,
2673,-0.235,0.14,
2674,-0.275,0.135,
2675,-0.285,0.135,
2676,-0.285,0.13,
2677,-0.255,0.155,
2678,-0.23,0.155,
2679,-0.23,0.155,
2680,-0.25,0.135,
2681,-0.265,0.145,
2682,-0.26,0.15,
2683,-0.26,0.155,
2684,-0.255,0.15,
2685,-0.26,0.155,
2686,-0.265,0.14,
2687,-0.265,0.155,
2688,-0.26,0.165,
2689,-0.255,0.19,
2690,-0.235,0.19,
2691,-0.24,0.175,
2692,-0.255,0.165,
2693,-0.26,0.17,
2694,-0.275,0.185,
2695,-0.25,0.19,
2696,-0.245,0.17,
2697,-0.245,0.13,
2698,-0.26,0.12,
2699,-0.265,0.115,
2700,-0.25,0.115,
2701,-0.24,0.125,
2702,-0.245,0.13,
2703,-0.245,0.125,
2704,-0.25,0.115,
2705,-0.275,0.12,
2706,-0.265,0.13,
2707,-0.26,0.155,
2708,-0.255,0.15,
2709,-0.255,0.14,
2710,-0.265,0.145,
2711,-0.275,0.135,
2712,-0.26,0.14,
2713,-0.255,0.155,
2714,-0.24,0.15,
2715,-0.255,0.145,
2716,-0.255,0.145,
2717,-0.255,0.155,
2718,-0.26,0.16,
2719,-0.245,0.17,
2720,-0.24,0.165,
2721,-0.255,0.145,
2722,-0.27,0.145,
2723,-0.28,0.13,
2724,-0.265,0.155,
2725,-0.25,0.17,
2726,-0.24,0.155,
2727,-0.245,0.145,
2728,-0.27,0.14,
2729,-0.265,0.14,
2730,-0.255,0.155,
2731,-0.245,0.155,
2732,-0.235,0.135,
2733,-0.245,0.12,
2734,-0.25,0.135,
2735,-0.27,0.15,
2736,-0.265,0.155,
2737,-0.24,0.18,
2738,-0.235,0.19,
2739,-0.245,0.175,
2740,-0.28,0.16,
2741,-0.265,0.16,
2742,-0.27,0.185,
2743,-0.26,0.2,
2744,-0.245,0.175,
2745,-0.24,0.155,
2746,-0.26,0.135,
2747,-0.265,0.14,
2748,-0.275,0.135,
2749,-0.25,0.135,
2750,-0.25,0.145,
2751,-0.245,0.145,
2752,-0.255,0.135,
2753,-0.255,0.12,
2754,-0.26,0.13,
2755,-0.255,0.15,
2756,-0.25,0.145,
2757,-0.265,0.125,
2758,-0.285,0.105,
2759,-0.3,0.125,
2760,-0.26,0.145,
2761,-0.25,0.165,
2762,-0.24,0.16,
2763,-0.235,0.145,
2764,-0.24,0.145,
2765,-0.25,0.14,
2766,-0.25,0.165,
2767,-0.255,0.175,
2768,-0.245,0.175,
2769,-0.245,0.16,
2770,-0.25,0.155,
2771,-0.255,0.165,
2772,-0.25,0.175,
2773,-0.24,0.185,
2774,-0.23,0.19,
2775,-0.24,0.175,
2776,-0.25,0.17,
2777,-0.255,0.175,
2778,-0.27,0.18,
2779,-0.26,0.19,
2780,-0.245,0.185,
2781,-0.25,0.175,
2782,-0.265,0.17,
2783,-0.275,0.155,
2784,-0.26,0.17,
2785,-0.24,0.19,
2786,-0.23,0.19,
2787,-0.24,0.16,
2788,-0.245,0.135,
2789,-0.265,0.12,
2790,-0.265,0.135,
2791,-0.24,0.145,
2792,-0.23,0.14,
2793,-0.215,0.13,
2794,-0.24,0.115,
2795,-0.245,0.11,
2796,-0.245,0.115,
2797,-0.235,0.14,
2798,-0.215,0.135,
2799,-0.225,0.125,
2800,-0.24,0.1,
2801,-0.255,0.11,
2802,-0.24,0.125,
2803,-0.24,0.145,
2804,-0.215,0.135,
2805,-0.21,0.13,
2806,-0.23,0.105,
2807,-0.235,0.13,
2808,-0.205,0.145,
2809,-0.18,0.14,
2810,-0.18,0.125,
2811,-0.19,0.115,
2812,-0.2,0.1,
2813,-0.19,0.095,
2814,-0.15,0.095,
2815,-0.11,0.105,
2816,-0.03,0.085,
2817,0.035,0.065,
2818,0.1,0.05,
2819,0.225,0.055,
2820,0.39,0.05,
2821,0.57,0.02,
2822,0.775,-0.025,
2823,0.97,-0.075,
2824,1.105,-0.1,
2825,1.235,-0.06,N
2826,1.32,0.06,
2827,1.295,0.155,
2828,1.145,0.205,
2829,0.86,0.205,
2830,0.525,0.21,
2831,0.185,0.245,
2832,-0.105,0.29,
2833,-0.305,0.33,
2834,-0.385,0.32,
2835,-0.37,0.295,
2836,-0.33,0.25,
2837,-0.29,0.2,
2838,-0.26,0.155,
2839,-0.235,0.145,
2840,-0.23,0.12,
2841,-0.275,0.115,
2842,-0.29,0.115,
2843,-0.315,0.11,
2844,-0.285,0.13,
2845,-0.305,0.14,
2846,-0.275,0.135,
2847,-0.3,0.12,
2848,-0.305,0.115,
2849,-0.31,0.13,
2850,-0.315,0.13,
2851,-0.3,0.15,
2852,-0.305,0.145,
2853,-0.31,0.13,
2854,-0.32,0.12,
2855,-0.325,0.125,
2856,-0.305,0.135,
2857,-0.32,0.135,
2858,-0.305,0.145,
2859,-0.325,0.14,
2860,-0.32,0.145,
2861,-0.31,0.15,
2862,-0.3,0.16,
2863,-0.3,0.165,
2864,-0.295,0.16,
2865,-0.315,0.145,
2866,-0.315,0.12,
2867,-0.32,0.105,
2868,-0.32,0.11,
2869,-0.32,0.135,
2870,-0.3,0.13,
2871,-0.31,0.12,
2872,-0.325,0.115,
2873,-0.325,0.11,
2874,-0.32,0.13,
2875,-0.32,0.15,
2876,-0.32,0.14,
2877,-0.315,0.13,
2878,-0.33,0.12,
2879,-0.34,0.125,
2880,-0.32,0.135,
2881,-0.31,0.14,
2882,-0.3,0.15,
2883,-0.3,0.135,
2884,-0.325,0.12,
2885,-0.32,0.11,
2886,-0.3,0.12,
2887,-0.28,0.14,
2888,-0.265,0.13,
2889,-0.275,0.125,
2890,-0.28,0.11,
2891,-0.28,0.12,
2892,-0.275,0.12,
2893,-0.25,0.13,
2894,-0.235,0.105,
2895,-0.24,0.07,
2896,-0.255,0.07,
2897,-0.255,0.075,
2898,-0.26,0.075,
2899,-0.245,0.08,
2900,-0.225,0.065,
2901,-0.21,0.04,
2902,-0.21,0.03,
2903,-0.2,0.035,
2904,-0.175,0.035,
2905,-0.145,0.04,
2906,-0.15,0.02,
2907,-0.145,-0.01,
2908,-0.15,-0.035,
2909,-0.17,-0.025,
2910,-0.175,-0.015,
2911,-0.155,-0.005,
2912,-0.15,-0.015,
2913,-0.17,-0.035,
2914,-0.15,-0.06,
2915,-0.16,-0.045,
2916,-0.155,-0.045,
2917,-0.14,-0.045,
2918,-0.125,-0.05,
2919,-0.11,-0.06,
2920,-0.11,-0.08,
2921,-0.11,-0.075,
2922,-0.095,-0.075,
2923,-0.09,-0.07,
2924,-0.075,-0.08,
2925,-0.09,-0.075,
2926,-0.085,-0.085,
2927,-0.105,-0.065,
2928,-0.105,-0.06,
2929,-0.07,-0.055,
2930,-0.055,-0.08,
2931,-0.06,-0.07,
2932,-0.075,-0.08,
2933,-0.085,-0.055,
2934,-0.085,-0.035,
2935,-0.075,-0.005,
2936,-0.05,0.0,
2937,-0.055,-0.005,
2938,-0.08,0.005,
2939,-0.095,0.015,
2940,-0.105,0.035,
2941,-0.11,0.06,
2942,-0.09,0.065,
2943,-0.115,0.075,
2944,-0.125,0.09,
2945,-0.15,0.095,
2946,-0.145,0.125,
2947,-0.145,0.14,
2948,-0.155,0.14,
2949,-0.18,0.15,
2950,-0.2,0.15,
2951,-0.22,0.135,
2952,-0.215,0.15,
2953,-0.195,0.165,
2954,-0.195,0.165,
2955,-0.21,0.14,
2956,-0.245,0.125,
2957,-0.25,0.14,
2958,-0.245,0.145,
2959,-0.24,0.145,
2960,-0.24,0.135,
2961,-0.25,0.12,
2962,-0.25,0.125,
2963,-0.26,0.135,
2964,-0.25,0.14,
2965,-0.23,0.155,
2966,-0.235,0.16,
2967,-0.23,0.14,
2968,-0.255,0.125,
2969,-0.25,0.125,
2970,-0.25,0.155,
2971,-0.225,0.17,
2972,-0.23,0.17,
2973,-0.22,0.15,
2974,-0.245,0.125,
2975,-0.255,0.135,
2976,-0.25,0.135,
2977,-0.225,0.17,
2978,-0.205,0.155,
2979,-0.21,0.14,
2980,-0.225,0.12,
2981,-0.235,0.125,
2982,-0.22,0.145,
2983,-0.22,0.155,
2984,-0.2,0.15,
2985,-0.215,0.135,
2986,-0.2,0.125,
2987,-0.215,0.135,
2988,-0.2,0.145,
2989,-0.18,0.165,
2990,-0.17,0.175,
2991,-0.17,0.17,
2992,-0.195,0.155,
2993,-0.21,0.15,
2994,-0.215,0.16,
2995,-0.19,0.155,
2996,-0.195,0.13,
2997,-0.205,0.13,
2998,-0.215,0.125,
2999,-0.21,0.13,
3000,-0.195,0.155,
3001,-0.175,0.165,
3002,-0.155,0.15,
3003,-0.165,0.12,
3004,-0.205,0.105,
3005,-0.2,0.105,
3006,-0.195,0.105,
3007,-0.195,0.135,
3008,-0.2,0.12,
3009,-0.2,0.105,
3010,-0.21,0.09,
3011,-0.21,0.09,
3012,-0.21,0.105,
3013,-0.2,0.135,
3014,-0.2,0.125,
3015,-0.22,0.11,
3016,-0.225,0.095,
3017,-0.22,0.115,
3018,-0.215,0.115,
3019,-0.19,0.12,
3020,-0.205,0.12,
3021,-0.215,0.12,
3022,-0.245,0.115,
3023,-0.245,0.11,
3024,-0.23,0.13,
3025,-0.215,0.135,
3026,-0.19,0.13,
3027,-0.19,0.135,
3028,-0.21,0.115,
3029,-0.22,0.125,
3030,-0.23,0.13,
3031,-0.23,0.15,
3032,-0.2,0.155,
3033,-0.195,0.135,
3034,-0.21,0.125,
3035,-0.215,0.115,
3036,-0.205,0.13,
3037,-0.205,0.145,
3038,-0.205,0.14,
3039,-0.205,0.14,
3040,-0.225,0.115,
3041,-0.23,0.13,
3042,-0.225,0.12,
3043,-0.205,0.135,
3044,-0.185,0.135,
3045,-0.195,0.125,
3046,-0.195,0.115,
3047,-0.195,0.105,
3048,-0.185,0.12,
3049,-0.195,0.135,
3050,-0.18,0.105,
3051,-0.18,0.08,
3052,-0.155,0.06,
3053,-0.12,0.055,
3054,-0.04,0.08,
3055,0.035,0.08,
3056,0.13,0.06,
3057,0.235,0.03,
3058,0.39,0.02,
3059,0.545,0.01,
3060,0.76,-0.025,
3061,0.99,-0.035,
3062,1.165,-0.04,
3063,1.32,-0.03,
3064,1.39,0.01,N
3065,1.365,0.115,
3066,1.255,0.18,
3067,1.065,0.21,
3068,0.805,0.19,
3069,0.5,0.175,
3070,0.195,0.205,
3071,-0.11,0.275,
3072,-0.34,0.33,
3073,-0.46,0.365,
3074,-0.465,0.385,
3075,-0.415,0.355,
3076,-0.365,0.31,
3077,-0.335,0.26,
3078,-0.305,0.225,
3079,-0.265,0.22,
3080,-0.265,0.17,
3081,-0.26,0.14,
3082,-0.29,0.12,
3083,-0.285,0.09,
3084,-0.29,0.105,
3085,-0.28,0.12,
3086,-0.28,0.125,
3087,-0.285,0.115,
3088,-0.305,0.115,
3089,-0.31,0.115,
3090,-0.31,0.13,
3091,-0.305,0.14,
3092,-0.295,0.125,
3093,-0.305,0.11,
3094,-0.33,0.12,
3095,-0.345,0.115,
3096,-0.315,0.13,
3097,-0.305,0.13,
3098,-0.31,0.135,
3099,-0.315,0.11,
3100,-0.33,0.095,
3101,-0.34,0.1,
3102,-0.325,0.12,
3103,-0.325,0.125,
3104,-0.3,0.12,
3105,-0.32,0.115,
3106,-0.33,0.1,
3107,-0.34,0.105,
3108,-0.325,0.135,
3109,-0.31,0.145,
3110,-0.315,0.14,
3111,-0.32,0.11,
3112,-0.315,0.09,
3113,-0.335,0.09,
3114,-0.335,0.11,
3115,-0.325,0.11,
3116,-0.31,0.11,
3117,-0.325,0.09,
3118,-0.335,0.08,
3119,-0.325,0.08,
3120,-0.3,0.105,
3121,-0.285,0.12,
3122,-0.295,0.11,
3123,-0.31,0.105,
3124,-0.33,0.085,
3125,-0.315,0.075,
3126,-0.325,0.075,
3127,-0.31,0.085,
3128,-0.285,0.085,
3129,-0.3,0.07,
3130,-0.325,0.06,
3131,-0.325,0.065,
3132,-0.32,0.075,
3133,-0.31,0.07,
3134,-0.295,0.08,
3135,-0.305,0.05,
3136,-0.315,0.04,
3137,-0.295,0.035,
3138,-0.28,0.04,
3139,-0.27,0.05,
3140,-0.245,0.045,
3141,-0.24,0.025,
3142,-0.245,-0.005,
3143,-0.245,0.01,
3144,-0.225,-0.025,
3145,-0.225,-0.03,
3146,-0.22,-0.045,
3147,-0.23,-0.055,
3148,-0.225,-0.065,
3149,-0.215,-0.07,
3150,-0.205,-0.065,
3151,-0.18,-0.04,
3152,-0.175,-0.06,
3153,-0.19,-0.08,
3154,-0.195,-0.1,
3155,-0.185,-0.095,
3156,-0.17,-0.08,
3157,-0.15,-0.09,
3158,-0.14,-0.1,
3159,-0.14,-0.12,
3160,-0.15,-0.115,
3161,-0.15,-0.11,
3162,-0.15,-0.125,
3163,-0.13,-0.105,
3164,-0.125,-0.115,
3165,-0.12,-0.12,
3166,-0.155,-0.125,
3167,-0.135,-0.105,
3168,-0.115,-0.095,
3169,-0.105,-0.055,
3170,-0.11,-0.065,
3171,-0.125,-0.065,
3172,-0.14,-0.075,
3173,-0.15,-0.055,
3174,-0.15,-0.025,
3175,-0.165,0.0,
3176,-0.16,0.005,
3177,-0.17,0.01,
3178,-0.19,0.01,
3179,-0.21,0.035,
3180,-0.2,0.06,
3181,-0.2,0.085,
3182,-0.21,0.09,
3183,-0.235,0.08,
3184,-0.265,0.07,
3185,-0.275,0.09,
3186,-0.245,0.12,
3187,-0.24,0.13,
3188,-0.26,0.135,
3189,-0.265,0.125,
3190,-0.285,0.14,
3191,-0.31,0.16,
3192,-0.305,0.195,
3193,-0.275,0.195,
3194,-0.26,0.195,
3195,-0.27,0.175,
3196,-0.285,0.165,
3197,-0.305,0.175,
3198,-0.31,0.185,
3199,-0.3,0.19,
3200,-0.29,0.19,
3201,-0.3,0.185,
3202,-0.3,0.165,
3203,-0.305,0.175,
3204,-0.295,0.175,
3205,-0.28,0.185,
3206,-0.265,0.18,
3207,-0.29,0.185,
3208,-0.29,0.155,
3209,-0.285,0.165,
3210,-0.28,0.165,
3211,-0.275,0.175,
3212,-0.26,0.17,
3213,-0.27,0.17,
3214,-0.295,0.145,
3215,-0.285,0.155,
3216,-0.275,0.175,
3217,-0.255,0.17,
3218,-0.25,0.175,
3219,-0.26,0.17,
3220,-0.275,0.155,
3221,-0.24,0.155,
3222,-0.245,0.165,
3223,-0.235,0.17,
3224,-0.235,0.16,
3225,-0.24,0.135,
3226,-0.255,0.13,
3227,-0.27,0.14,
3228,-0.255,0.15,
3229,-0.245,0.155,
3230,-0.235,0.15,
3231,-0.24,0.14,
3232,-0.265,0.115,
3233,-0.265,0.125,
3234,-0.255,0.135,
3235,-0.245,0.15,
3236,-0.23,0.145,
3237,-0.245,0.125,
3238,-0.265,0.12,
3239,-0.255,0.12,
3240,-0.245,0.135,
3241,-0.245,0.155,
3242,-0.235,0.155,
3243,-0.255,0.13,
3244,-0.275,0.11,
3245,-0.265,0.13,
3246,-0.265,0.14,
3247,-0.245,0.15,
3248,-0.24,0.135,
3249,-0.25,0.135,
3250,-0.265,0.13,
3251,-0.26,0.145,
3252,-0.265,0.15,
3253,-0.255,0.16,
3254,-0.24,0.15,
3255,-0.26,0.145,
3256,-0.285,0.14,
3257,-0.29,0.145,
3258,-0.285,0.155,
3259,-0.275,0.175,
3260,-0.28,0.165,
3261,-0.27,0.155,
3262,-0.285,0.145,
3263,-0.29,0.15,
3264,-0.265,0.17,
3265,-0.255,0.195,
3266,-0.255,0.18,
3267,-0.265,0.16,
3268,-0.28,0.14,
3269,-0.29,0.155,
3270,-0.295,0.165,
3271,-0.275,0.175,
3272,-0.275,0.175,
3273,-0.295,0.155,
3274,-0.3,0.15,
3275,-0.305,0.145,
3276,-0.29,0.15,
3277,-0.26,0.165,
3278,-0.26,0.14,
3279,-0.285,0.13,
3280,-0.305,0.115,
3281,-0.315,0.125,
3282,-0.295,0.14,
3283,-0.265,0.15,
3284,-0.255,0.14,
3285,-0.27,0.125,
3286,-0.285,0.12,
3287,-0.29,0.125,
3288,-0.295,0.13,
3289,-0.285,0.13,
3290,-0.28,0.125,
3291,-0.29,0.115,
3292,-0.3,0.12,
3293,-0.29,0.135,
3294,-0.285,0.15,
3295,-0.26,0.15,
3296,-0.255,0.14,
3297,-0.275,0.125,
3298,-0.28,0.12,
3299,-0.305,0.135,
3300,-0.28,0.15,
3301,-0.28,0.16,
3302,-0.25,0.16,
3303,-0.26,0.145,
3304,-0.28,0.15,
3305,-0.275,0.155,
3306,-0.29,0.15,
3307,-0.265,0.175,
3308,-0.26,0.17,
3309,-0.27,0.155,
3310,-0.29,0.13,
3311,-0.295,0.15,
3312,-0.275,0.17,
3313,-0.26,0.175,
3314,-0.255,0.18,
3315,-0.26,0.16,
3316,-0.28,0.15,
3317,-0.29,0.145,
3318,-0.28,0.165,
3319,-0.27,0.175,
3320,-0.255,0.18,
3321,-0.275,0.17,
3322,-0.305,0.16,
3323,-0.29,0.155,
3324,-0.28,0.17,
3325,-0.275,0.18,
3326,-0.26,0.17,
3327,-0.29,0.155,
3328,-0.305,0.14,
3329,-0.305,0.145,
3330,-0.285,0.17,
3331,-0.265,0.16,
3332,-0.26,0.165,
3333,-0.275,0.135,
3334,-0.29,0.13,
3335,-0.285,0.14,
3336,-0.29,0.155,
3337,-0.285,0.165,
3338,-0.28,0.15,
3339,-0.285,0.125,
3340,-0.3,0.12,
3341,-0.315,0.125,
3342,-0.29,0.14,
3343,-0.275,0.155,
3344,-0.265,0.14,
3345,-0.27,0.13,
3346,-0.275,0.125,
3347,-0.27,0.135,
3348,-0.27,0.145,
3349,-0.27,0.145,
3350,-0.27,0.145,
3351,-0.265,0.14,
3352,-0.265,0.13,
3353,-0.26,0.14,
3354,-0.265,0.155,
3355,-0.255,0.15,
3356,-0.255,0.165,
3357,-0.255,0.145,
3358,-0.27,0.155,
3359,-0.27,0.16,
3360,-0.26,0.17,
3361,-0.26,0.175,
3362,-0.255,0.16,
3363,-0.265,0.14,
3364,-0.27,0.135,
3365,-0.27,0.15,
3366,-0.255,0.185,
3367,-0.25,0.19,
3368,-0.25,0.165,
3369,-0.245,0.16,
3370,-0.26,0.14,
3371,-0.265,0.145,
3372,-0.265,0.15,
3373,-0.25,0.165,
3374,-0.25,0.165,
3375,-0.25,0.145,
3376,-0.26,0.145,
3377,-0.26,0.145,
3378,-0.25,0.155,
3379,-0.255,0.18,
3380,-0.245,0.17,
3381,-0.25,0.165,
3382,-0.26,0.145,
3383,-0.245,0.125,
3384,-0.24,0.14,
3385,-0.245,0.145,
3386,-0.25,0.15,
3387,-0.25,0.145,
3388,-0.26,0.14,
3389,-0.26,0.14,
3390,-0.245,0.155,
3391,-0.225,0.16,
3392,-0.22,0.155,
3393,-0.225,0.145,
3394,-0.245,0.13,
3395,-0.25,0.15,
3396,-0.24,0.16,
3397,-0.23,0.165,
3398,-0.23,0.165,
3399,-0.245,0.15,
3400,-0.25,0.145,
3401,-0.24,0.15,
3402,-0.225,0.16,
3403,-0.21,0.17,
3404,-0.2,0.15,
3405,-0.22,0.145,
3406,-0.235,0.13,
3407,-0.23,0.155,
3408,-0.235,0.175,
3409,-0.22,0.19,
3410,-0.23,0.175,
3411,-0.225,0.16,
3412,-0.23,0.155,
3413,-0.23,0.16,
3414,-0.235,0.17,
3415,-0.225,0.17,
3416,-0.22,0.16,
3417,-0.22,0.145,
3418,-0.235,0.125,
3419,-0.23,0.14,
3420,-0.195,0.155,
3421,-0.18,0.16,
3422,-0.195,0.15,
3423,-0.22,0.135,
3424,-0.235,0.13,
3425,-0.23,0.125,
3426,-0.215,0.135,
3427,-0.2,0.135,
3428,-0.195,0.135,
3429,-0.185,0.125,
3430,-0.19,0.11,
3431,-0.195,0.115,
3432,-0.2,0.14,
3433,-0.19,0.145,
3434,-0.195,0.125,
3435,-0.2,0.1,
3436,-0.21,0.1,
3437,-0.21,0.125,
3438,-0.205,0.14,
3439,-0.185,0.135,
3440,-0.19,0.13,
3441,-0.185,0.12,
3442,-0.195,0.115,
3443,-0.2,0.105,
3444,-0.195,0.12,
3445,-0.195,0.12,
3446,-0.18,0.125,
3447,-0.2,0.12,
3448,-0.2,0.1,
3449,-0.21,0.11,
3450,-0.2,0.12,
3451,-0.185,0.135,
3452,-0.175,0.135,
3453,-0.175,0.115,
3454,-0.19,0.11,
3455,-0.19,0.11,
3456,-0.18,0.125,
3457,-0.17,0.14,
3458,-0.18,0.14,
3459,-0.21,0.125,
3460,-0.21,0.115,
3461,-0.205,0.115,
3462,-0.195,0.13,
3463,-0.16,0.14,
3464,-0.15,0.135,
3465,-0.17,0.12,
3466,-0.175,0.105,
3467,-0.185,0.115,
3468,-0.185,0.125,
3469,-0.18,0.145,
3470,-0.18,0.14,
3471,-0.19,0.14,
3472,-0.19,0.125,
3473,-0.195,0.135,
3474,-0.18,0.145,
3475,-0.175,0.165,
3476,-0.175,0.145,
3477,-0.17,0.13,
3478,-0.185,0.12,
3479,-0.18,0.13,
3480,-0.18,0.15,
3481,-0.155,0.145,
3482,-0.165,0.135,
3483,-0.17,0.125,
3484,-0.185,0.1,
3485,-0.2,0.11,
3486,-0.175,0.135,
3487,-0.155,0.16,
3488,-0.15,0.165,
3489,-0.135,0.145,
3490,-0.165,0.12,
3491,-0.15,0.125,
3492,-0.155,0.125,
3493,-0.145,0.14,
3494,-0.135,0.135,
3495,-0.15,0.125,
3496,-0.16,0.125,
3497,-0.16,0.14,
3498,-0.155,0.155,
3499,-0.135,0.16,
3500,-0.14,0.15,
3501,-0.14,0.13,
3502,-0.155,0.12,
3503,-0.16,0.12,
3504,-0.135,0.11,
3505,-0.115,0.115,
3506,-0.105,0.12,
3507,-0.13,0.1,
3508,-0.13,0.095,
3509,-0.115,0.1,
3510,-0.11,0.105,
3511,-0.105,0.095,
3512,-0.105,0.085,
3513,-0.09,0.055,
3514,-0.07,0.04,
3515,-0.015,0.035,
3516,0.085,0.025,
3517,0.185,0.03,
3518,0.31,0.015,
3519,0.43,-0.005,
3520,0.555,-0.035,
3521,0.705,-0.07,
3522,0.885,-0.085,
3523,1.045,-0.1,
3524,1.185,-0.115,
3525,1.32,-0.115,N
3526,1.37,-0.07,
3527,1.34,0.005,
3528,1.19,0.07,
3529,0.95,0.105,
3530,0.655,0.1,
3531,0.36,0.125,
3532,0.08,0.155,
3533,-0.135,0.2,
3534,-0.26,0.23,
3535,-0.26,0.21,
3536,-0.235,0.18,
3537,-0.18,0.145,
3538,-0.17,0.11,
3539,-0.16,0.11,
3540,-0.175,0.12,
3541,-0.19,0.125,
3542,-0.17,0.115,
3543,-0.175,0.1,
3544,-0.195,0.085,
3545,-0.205,0.09,
3546,-0.2,0.11,
3547,-0.195,0.125,
3548,-0.205,0.125,
3549,-0.22,0.11,
3550,-0.24,0.105,
3551,-0.24,0.125,
3552,-0.225,0.14,
3553,-0.21,0.145,
3554,-0.21,0.13,
3555,-0.24,0.1,
3556,-0.25,0.095,
3557,-0.245,0.115,
3558,-0.235,0.14,
3559,-0.21,0.155,
3560,-0.205,0.13,
3561,-0.235,0.115,
3562,-0.25,0.11,
3563,-0.255,0.11,
3564,-0.235,0.125,
3565,-0.225,0.125,
3566,-0.23,0.125,
3567,-0.24,0.115,
3568,-0.26,0.1,
3569,-0.25,0.11,
3570,-0.255,0.115,
3571,-0.235,0.14,
3572,-0.225,0.13,
3573,-0.24,0.09,
3574,-0.26,0.09,
3575,-0.26,0.115,
3576,-0.25,0.12,
3577,-0.25,0.155,
3578,-0.235,0.14,
3579,-0.265,0.12,
3580,-0.265,0.105,
3581,-0.245,0.125,
3582,-0.25,0.135,
3583,-0.215,0.14,
3584,-0.225,0.12,
3585,-0.245,0.105,
3586,-0.245,0.12,
3587,-0.235,0.135,
3588,-0.205,0.15,
3589,-0.185,0.145,
3590,-0.17,0.12,
3591,-0.2,0.095,
3592,-0.195,0.08,
3593,-0.2,0.07,
3594,-0.18,0.075,
3595,-0.165,0.09,
3596,-0.16,0.085,
3597,-0.155,0.06,
3598,-0.145,0.055,
3599,-0.145,0.055,
3600,-0.14,0.06,
3601,-0.125,0.06,
3602,-0.125,0.045,
3603,-0.12,0.045,
3604,-0.125,0.025,
3605,-0.115,0.025,
3606,-0.1,0.03,
3607,-0.085,0.05,
3608,-0.065,0.035,
3609,-0.08,0.0,
3610,-0.075,-0.005,
3611,-0.06,0.0,
3612,-0.04,0.005,
3613,-0.02,0.01,
3614,-0.02,0.0,
3615,-0.01,-0.005,
3616,-0.03,-0.025,
3617,-0.035,-0.015,
3618,-0.005,-0.01,
3619,0.01,-0.015,
3620,0.005,-0.025,
3621,-0.005,-0.04,
3622,-0.01,-0.04,
3623,0.0,-0.035,
3624,0.005,-0.025,
3625,0.03,-0.03,
3626,0.025,-0.04,
3627,0.02,-0.045,
3628,0.01,-0.05,
3629,0.0,-0.025,
3630,0.005,-0.03,
3631,0.025,-0.02,
3632,0.04,-0.035,
3633,0.025,-0.04,
3634,0.005,-0.045,
3635,0.0,-0.03,
3636,0.01,-0.015,
3637,0.015,0.0,
3638,0.025,-0.01,
3639,0.0,-0.02,
3640,-0.02,-0.02,
3641,-0.02,-0.025,
3642,-0.025,0.0,
3643,-0.005,0.015,
3644,-0.035,0.015,
3645,-0.05,0.01,
3646,-0.07,0.005,
3647,-0.07,0.04,
3648,-0.06,0.05,
3649,-0.065,0.065,
3650,-0.085,0.07,
3651,-0.09,0.045,
3652,-0.115,0.045,
3653,-0.125,0.055,
3654,-0.12,0.075,
3655,-0.11,0.09,
3656,-0.125,0.085,
3657,-0.135,0.08,
3658,-0.16,0.075,
3659,-0.155,0.085,
3660,-0.135,0.105,
3661,-0.135,0.12,
3662,-0.14,0.125,
3663,-0.15,0.115,
3664,-0.175,0.13,
3665,-0.18,0.13,
3666,-0.165,0.15,
3667,-0.16,0.15,
3668,-0.155,0.155,
3669,-0.16,0.135,
3670,-0.19,0.135,
3671,-0.17,0.145,
3672,-0.16,0.155,
3673,-0.15,0.17,
3674,-0.145,0.16,
3675,-0.165,0.14,
3676,-0.185,0.135,
3677,-0.195,0.145,
3678,-0.19,0.155,
3679,-0.155,0.165,
3680,-0.16,0.14,
3681,-0.19,0.12,
3682,-0.21,0.12,
3683,-0.205,0.14,
3684,-0.195,0.155,
3685,-0.18,0.155,
3686,-0.185,0.145,
3687,-0.18,0.13,
3688,-0.185,0.12,
3689,-0.19,0.115,
3690,-0.175,0.13,
3691,-0.17,0.135,
3692,-0.16,0.125,
3693,-0.16,0.11,
3694,-0.165,0.105,
3695,-0.165,0.11,
3696,-0.16,0.125,
3697,-0.14,0.13,
3698,-0.135,0.12,
3699,-0.14,0.1,
3700,-0.16,0.085,
3701,-0.165,0.11,
3702,-0.16,0.115,
3703,-0.145,0.12,
3704,-0.135,0.12,
3705,-0.14,0.11,
3706,-0.15,0.095,
3707,-0.145,0.1,
3708,-0.125,0.095,
3709,-0.115,0.11,
3710,-0.12,0.105,
3711,-0.135,0.08,
3712,-0.165,0.085,
3713,-0.15,0.1,
3714,-0.15,0.11,
3715,-0.14,0.12,
3716,-0.14,0.115,
3717,-0.15,0.1,
3718,-0.155,0.115,
3719,-0.16,0.12,
3720,-0.145,0.12,
3721,-0.155,0.135,
3722,-0.15,0.12,
3723,-0.16,0.125,
3724,-0.15,0.105,
3725,-0.155,0.105,
3726,-0.15,0.12,
3727,-0.15,0.12,
3728,-0.15,0.105,
3729,-0.155,0.085,
3730,-0.17,0.075,
3731,-0.175,0.08,
3732,-0.16,0.11,
3733,-0.15,0.115,
3734,-0.145,0.12,
3735,-0.155,0.105,
3736,-0.16,0.095,
3737,-0.17,0.09,
3738,-0.165,0.1,
3739,-0.14,0.105,
3740,-0.165,0.1,
3741,-0.175,0.075,
3742,-0.21,0.07,
3743,-0.185,0.07,
3744,-0.19,0.09,
3745,-0.18,0.105,
3746,-0.175,0.1,
3747,-0.18,0.1,
3748,-0.21,0.09,
3749,-0.205,0.09,
3750,-0.205,0.11,
3751,-0.19,0.105,
3752,-0.205,0.1,
3753,-0.215,0.09,
3754,-0.23,0.08,
3755,-0.215,0.095,
3756,-0.205,0.1,
3757,-0.19,0.11,
3758,-0.2,0.1,
3759,-0.205,0.09,
3760,-0.235,0.085,
3761,-0.235,0.08,
3762,-0.225,0.09,
3763,-0.2,0.095,
3764,-0.205,0.1,
3765,-0.2,0.08,
3766,-0.21,0.095,
3767,-0.205,0.095,
3768,-0.215,0.125,
3769,-0.195,0.135,
3770,-0.2,0.125,
3771,-0.185,0.11,
3772,-0.19,0.11,
3773,-0.21,0.11,
3774,-0.195,0.13,
3775,-0.185,0.15,
3776,-0.175,0.15,
3777,-0.18,0.13,
3778,-0.185,0.13,
3779,-0.165,0.135,
3780,-0.15,0.125,
3781,-0.13,0.155,
3782,-0.145,0.15,
3783,-0.145,0.13,
3784,-0.145,0.12,
3785,-0.135,0.115,
3786,-0.075,0.11,
3787,-0.04,0.095,
3788,0.015,0.075,
3789,0.08,0.06,
3790,0.14,0.06,
3791,0.26,0.065,
3792,0.425,0.06,
3793,0.59,0.02,
3794,0.755,-0.03,
3795,0.92,-0.08,
3796,1.065,-0.115,
3797,1.225,-0.095,
3798,1.345,-0.035,N
3799,1.385,0.035,
3800,1.305,0.105,
3801,1.12,0.115,
3802,0.865,0.12,
3803,0.565,0.14,
3804,0.265,0.195,
3805,-0.03,0.255,
3806,-0.275,0.29,
3807,-0.425,0.29,
3808,-0.465,0.285,
3809,-0.395,0.27,
3810,-0.325,0.23,
3811,-0.275,0.2,
3812,-0.265,0.16,
3813,-0.26,0.115,
3814,-0.27,0.085,
3815,-0.29,0.085,
3816,-0.275,0.09,
3817,-0.26,0.115,
3818,-0.26,0.11,
3819,-0.275,0.095,
3820,-0.29,0.085,
3821,-0.285,0.1,
3822,-0.28,0.125,
3823,-0.275,0.125,
3824,-0.29,0.13,
3825,-0.29,0.13,
3826,-0.305,0.105,
3827,-0.305,0.125,
3828,-0.285,0.135,
3829,-0.27,0.15,
3830,-0.26,0.14,
3831,-0.27,0.125,
3832,-0.285,0.115,
3833,-0.28,0.115,
3834,-0.285,0.12,
3835,-0.275,0.125,
3836,-0.3,0.13,
3837,-0.315,0.11,
3838,-0.315,0.1,
3839,-0.315,0.12,
3840,-0.295,0.145,
3841,-0.27,0.145,
3842,-0.27,0.135,
3843,-0.28,0.12,
3844,-0.285,0.125,
3845,-0.285,0.135,
3846,-0.265,0.135,
3847,-0.245,0.135,
3848,-0.255,0.105,
3849,-0.275,0.08,
3850,-0.29,0.075,
3851,-0.285,0.09,
3852,-0.27,0.095,
3853,-0.25,0.11,
3854,-0.255,0.08,
3855,-0.28,0.065,
3856,-0.295,0.055,
3857,-0.295,0.075,
3858,-0.275,0.075,
3859,-0.265,0.085,
3860,-0.265,0.07,
3861,-0.285,0.05,
3862,-0.305,0.035,
3863,-0.295,0.065,
3864,-0.28,0.07,
3865,-0.265,0.07,
3866,-0.255,0.055,
3867,-0.255,0.045,
3868,-0.27,0.02,
3869,-0.26,0.04,
3870,-0.25,0.05,
3871,-0.23,0.06,
3872,-0.225,0.05,
3873,-0.235,0.03,
3874,-0.235,0.035,
3875,-0.22,0.03,
3876,-0.195,0.04,
3877,-0.18,0.035,
3878,-0.19,0.015,
3879,-0.2,0.0,
3880,-0.2,-0.01,
3881,-0.17,-0.005,
3882,-0.155,0.01,
3883,-0.13,0.01,
3884,-0.13,-0.005,
3885,-0.13,-0.025,
3886,-0.145,-0.03,
3887,-0.14,-0.035,
3888,-0.115,-0.035,
3889,-0.105,-0.035,
3890,-0.085,-0.06,
3891,-0.075,-0.075,
3892,-0.075,-0.11,
3893,-0.075,-0.1,
3894,-0.075,-0.09,
3895,-0.045,-0.085,
3896,-0.03,-0.095,
3897,-0.025,-0.11,
3898,-0.035,-0.125,
3899,-0.045,-0.13,
3900,-0.04,-0.125,
3901,-0.04,-0.13,
3902,-0.03,-0.145,
3903,-0.055,-0.145,
3904,-0.08,-0.145,
3905,-0.07,-0.125,
3906,-0.065,-0.11,
3907,-0.055,-0.085,
3908,-0.065,-0.09,
3909,-0.095,-0.085,
3910,-0.105,-0.075,
3911,-0.12,-0.055,
3912,-0.11,-0.035,
3913,-0.115,-0.02,
3914,-0.125,-0.03,
3915,-0.14,-0.02,
3916,-0.16,-0.005,
3917,-0.165,0.015,
3918,-0.15,0.04,
3919,-0.17,0.07,
3920,-0.165,0.065,
3921,-0.205,0.085,
3922,-0.23,0.08,
3923,-0.245,0.09,
3924,-0.24,0.11,
3925,-0.225,0.125,
3926,-0.225,0.12,
3927,-0.26,0.12,
3928,-0.28,0.115,
3929,-0.285,0.12,
3930,-0.28,0.13,
3931,-0.275,0.15,
3932,-0.26,0.16,
3933,-0.28,0.145,
3934,-0.305,0.145,
3935,-0.315,0.15,
3936,-0.305,0.165,
3937,-0.285,0.18,
3938,-0.29,0.175,
3939,-0.3,0.165,
3940,-0.315,0.165,
3941,-0.31,0.165,
3942,-0.29,0.17,
3943,-0.285,0.18,
3944,-0.305,0.18,
3945,-0.295,0.165,
3946,-0.295,0.15,
3947,-0.295,0.165,
3948,-0.29,0.185,
3949,-0.28,0.185,
3950,-0.28,0.185,
3951,-0.285,0.16,
3952,-0.295,0.165,
3953,-0.285,0.175,
3954,-0.265,0.175,
3955,-0.265,0.185,
3956,-0.27,0.165,
3957,-0.285,0.145,
3958,-0.29,0.13,
3959,-0.285,0.16,
3960,-0.265,0.155,
3961,-0.245,0.17,
3962,-0.245,0.16,
3963,-0.26,0.145,
3964,-0.265,0.135,
3965,-0.275,0.14,
3966,-0.245,0.155,
3967,-0.23,0.165,
3968,-0.245,0.15,
3969,-0.255,0.13,
3970,-0.27,0.11,
3971,-0.27,0.11,
3972,-0.255,0.12,
3973,-0.245,0.135,
3974,-0.24,0.125,
3975,-0.245,0.11,
3976,-0.25,0.095,
3977,-0.24,0.125,
3978,-0.235,0.12,
3979,-0.225,0.12,
3980,-0.245,0.11,
3981,-0.255,0.105,
3982,-0.27,0.095,
3983,-0.265,0.105,
3984,-0.24,0.12,
3985,-0.245,0.115,
3986,-0.255,0.11,
3987,-0.275,0.1,
3988,-0.28,0.105,
3989,-0.275,0.105,
3990,-0.245,0.135,
3991,-0.25,0.155,
3992,-0.24,0.135,
3993,-0.255,0.13,
3994,-0.27,0.13,
3995,-0.275,0.135,
3996,-0.265,0.16,
3997,-0.25,0.17,
3998,-0.24,0.175,
3999,-0.265,0.15,
4000,-0.27,0.15,
4001,-0.275,0.15,
4002,-0.275,0.17,
4003,-0.255,0.17,
4004,-0.255,0.165,
4005,-0.265,0.14,
4006,-0.275,0.135,
4007,-0.285,0.145,
4008,-0.29,0.165,
4009,-0.27,0.185,
4010,-0.275,0.15,
4011,-0.285,0.13,
4012,-0.295,0.11,
4013,-0.295,0.13,
4014,-0.295,0.125,
4015,-0.28,0.125,
4016,-0.28,0.115,
4017,-0.285,0.085,
4018,-0.305,0.085,
4019,-0.275,0.085,
4020,-0.275,0.095,
4021,-0.265,0.11,
4022,-0.28,0.105,
4023,-0.29,0.095,
4024,-0.285,0.085,
4025,-0.275,0.095,
4026,-0.265,0.115,
4027,-0.255,0.115,
4028,-0.265,0.11,
4029,-0.27,0.09,
4030,-0.29,0.09,
4031,-0.295,0.11,
4032,-0.28,0.115,
4033,-0.275,0.11,
4034,-0.295,0.1,
4035,-0.3,0.1,
4036,-0.3,0.1,
4037,-0.295,0.125,
4038,-0.295,0.135,
4039,-0.28,0.145,
4040,-0.275,0.125,
4041,-0.29,0.115,
4042,-0.285,0.12,
4043,-0.29,0.125,
4044,-0.29,0.15,
4045,-0.265,0.155,
4046,-0.27,0.16,
4047,-0.28,0.135,
4048,-0.27,0.13,
4049,-0.275,0.135,
4050,-0.27,0.16,
4051,-0.26,0.175,
4052,-0.255,0.16,
4053,-0.265,0.14,
4054,-0.285,0.125,
4055,-0.28,0.145,
4056,-0.27,0.155,
4057,-0.265,0.15,
4058,-0.265,0.14,
4059,-0.27,0.135,
4060,-0.285,0.12,
4061,-0.275,0.145,
4062,-0.265,0.15,
4063,-0.26,0.15,
4064,-0.275,0.135,
4065,-0.285,0.125,
4066,-0.29,0.115,
4067,-0.295,0.12,
4068,-0.285,0.15,
4069,-0.25,0.14,
4070,-0.255,0.12,
4071,-0.27,0.12,
4072,-0.28,0.11,
4073,-0.285,0.115,
4074,-0.275,0.125,
4075,-0.27,0.125,
4076,-0.275,0.11,
4077,-0.27,0.12,
4078,-0.27,0.115,
4079,-0.255,0.11,
4080,-0.25,0.13,
4081,-0.24,0.14,
4082,-0.25,0.135,
4083,-0.255,0.115,
4084,-0.28,0.14,
4085,-0.28,0.135,
4086,-0.275,0.15,
4087,-0.255,0.15,
4088,-0.24,0.13,
4089,-0.26,0.13,
4090,-0.26,0.125,
4091,-0.26,0.125,
4092,-0.255,0.145,
4093,-0.235,0.16,
4094,-0.235,0.125,
4095,-0.25,0.115,
4096,-0.27,0.11,
4097,-0.265,0.14,
4098,-0.25,0.155,
4099,-0.23,0.155,
4100,-0.225,0.155,
4101,-0.24,0.125,
4102,-0.245,0.12,
4103,-0.235,0.135,
4104,-0.215,0.15,
4105,-0.205,0.16,
4106,-0.19,0.15,
4107,-0.21,0.12,
4108,-0.225,0.1,
4109,-0.23,0.11,
4110,-0.22,0.125,
4111,-0.19,0.11,
4112,-0.18,0.1,
4113,-0.195,0.08,
4114,-0.21,0.075,
4115,-0.205,0.075,
4116,-0.17,0.065,
4117,-0.115,0.055,
4118,-0.03,0.04,
4119,0.01,0.03,
4120,0.105,0.015,
4121,0.225,0.025,
4122,0.36,0.02,
4123,0.53,-0.015,
4124,0.715,-0.04,
4125,0.885,-0.105,
4126,1.03,-0.135,
4127,1.21,-0.105,
4128,1.355,-0.065,N
4129,1.425,0.03,
4130,1.36,0.075,
4131,1.185,0.11,
4132,0.905,0.115,
4133,0.615,0.13,
4134,0.35,0.17,
4135,0.09,0.22,
4136,-0.155,0.24,
4137,-0.315,0.235,
4138,-0.385,0.23,
4139,-0.35,0.225,
4140,-0.285,0.195,
4141,-0.215,0.155,
4142,-0.225,0.115,
4143,-0.24,0.1,
4144,-0.275,0.1,
4145,-0.27,0.1,
4146,-0.28,0.1,
4147,-0.26,0.115,
4148,-0.275,0.115,
4149,-0.295,0.1,
4150,-0.305,0.115,
4151,-0.305,0.13,
4152,-0.305,0.14,
4153,-0.305,0.14,
4154,-0.305,0.125,
4155,-0.315,0.115,
4156,-0.325,0.11,
4157,-0.34,0.125,
4158,-0.32,0.135,
4159,-0.325,0.135,
4160,-0.315,0.105,
4161,-0.33,0.1,
4162,-0.335,0.09,
4163,-0.34,0.12,
4164,-0.345,0.135,
4165,-0.32,0.14,
4166,-0.31,0.12,
4167,-0.325,0.105,
4168,-0.335,0.11,
4169,-0.35,0.105,
4170,-0.34,0.125,
4171,-0.325,0.125,
4172,-0.315,0.125,
4173,-0.315,0.11,
4174,-0.34,0.11,
4175,-0.345,0.13,
4176,-0.32,0.14,
4177,-0.31,0.14,
4178,-0.325,0.13,
4179,-0.34,0.105,
4180,-0.375,0.105,
4181,-0.35,0.13,
4182,-0.33,0.125,
4183,-0.295,0.135,
4184,-0.315,0.12,
4185,-0.335,0.1,
4186,-0.345,0.095,
4187,-0.345,0.105,
4188,-0.335,0.115,
4189,-0.305,0.115,
4190,-0.31,0.105,
4191,-0.31,0.09,
4192,-0.325,0.095,
4193,-0.315,0.12,
4194,-0.31,0.125,
4195,-0.285,0.13,
4196,-0.285,0.115,
4197,-0.275,0.09,
4198,-0.285,0.08,
4199,-0.285,0.085,
4200,-0.255,0.09,
4201,-0.235,0.095,
4202,-0.225,0.09,
4203,-0.215,0.07,
4204,-0.21,0.065,
4205,-0.21,0.065,
4206,-0.19,0.07,
4207,-0.165,0.055,
4208,-0.16,0.045,
4209,-0.185,0.015,
4210,-0.175,0.015,
4211,-0.18,0.02,
4212,-0.15,0.025,
4213,-0.12,0.02,
4214,-0.11,0.01,
4215,-0.12,-0.025,
4216,-0.135,-0.04,
4217,-0.135,-0.025,
4218,-0.115,-0.015,
4219,-0.095,-0.025,
4220,-0.105,-0.045,
4221,-0.115,-0.065,
4222,-0.11,-0.07,
4223,-0.135,-0.075,
4224,-0.095,-0.05,
4225,-0.09,-0.055,
4226,-0.085,-0.065,
4227,-0.105,-0.085,
4228,-0.1,-0.09,
4229,-0.115,-0.08,
4230,-0.105,-0.08,
4231,-0.09,-0.085,
4232,-0.09,-0.1,
4233,-0.1,-0.1,
4234,-0.11,-0.11,
4235,-0.11,-0.11,
4236,-0.1,-0.095,
4237,-0.105,-0.08,
4238,-0.12,-0.08,
4239,-0.13,-0.085,
4240,-0.155,-0.08,
4241,-0.16,-0.04,
4242,-0.155,-0.005,
4243,-0.13,0.005,
4244,-0.14,0.015,
4245,-0.16,0.02,
4246,-0.18,0.035,
4247,-0.2,0.05,
4248,-0.18,0.075,
4249,-0.165,0.095,
4250,-0.195,0.075,
4251,-0.2,0.08,
4252,-0.235,0.08,
4253,-0.24,0.1,
4254,-0.24,0.125,
4255,-0.225,0.125,
4256,-0.235,0.12,
4257,-0.255,0.095,
4258,-0.275,0.1,
4259,-0.275,0.13,
4260,-0.265,0.145,
4261,-0.26,0.135,
4262,-0.275,0.125,
4263,-0.285,0.105,
4264,-0.3,0.105,
4265,-0.305,0.125,
4266,-0.32,0.15,
4267,-0.295,0.15,
4268,-0.31,0.145,
4269,-0.325,0.13,
4270,-0.335,0.13,
4271,-0.355,0.13,
4272,-0.34,0.13,
4273,-0.33,0.155,
4274,-0.31,0.155,
4275,-0.31,0.145,
4276,-0.335,0.135,
4277,-0.36,0.13,
4278,-0.355,0.155,
4279,-0.33,0.155,
4280,-0.32,0.14,
4281,-0.32,0.135,
4282,-0.36,0.145,
4283,-0.36,0.14,
4284,-0.325,0.17,
4285,-0.305,0.17,
4286,-0.31,0.155,
4287,-0.32,0.14,
4288,-0.34,0.13,
4289,-0.325,0.15,
4290,-0.32,0.165,
4291,-0.31,0.175,
4292,-0.31,0.17,
4293,-0.325,0.155,
4294,-0.325,0.145,
4295,-0.31,0.16,
4296,-0.31,0.175,
4297,-0.275,0.185,
4298,-0.27,0.165,
4299,-0.27,0.15,
4300,-0.275,0.145,
4301,-0.265,0.16,
4302,-0.26,0.175,
4303,-0.25,0.185,
4304,-0.245,0.17,
4305,-0.265,0.145,
4306,-0.285,0.13,
4307,-0.265,0.15,
4308,-0.25,0.16,
4309,-0.245,0.165,
4310,-0.27,0.15,
4311,-0.305,0.135,
4312,-0.295,0.135,
4313,-0.28,0.145,
4314,-0.265,0.15,
4315,-0.25,0.14,
4316,-0.29,0.125,
4317,-0.305,0.12,
4318,-0.3,0.12,
4319,-0.285,0.135,
4320,-0.275,0.15,
4321,-0.265,0.145,
4322,-0.265,0.13,
4323,-0.28,0.11,
4324,-0.295,0.115,
4325,-0.295,0.12,
4326,-0.285,0.145,
4327,-0.3,0.135,
4328,-0.31,0.125,
4329,-0.32,0.13,
4330,-0.315,0.12,
4331,-0.31,0.13,
4332,-0.3,0.15,
4333,-0.275,0.155,
4334,-0.28,0.155,
4335,-0.29,0.13,
4336,-0.325,0.13,
4337,-0.33,0.135,
4338,-0.315,0.16,
4339,-0.3,0.16,
4340,-0.32,0.15,
4341,-0.33,0.14,
4342,-0.34,0.145,
4343,-0.33,0.15,
4344,-0.295,0.175,
4345,-0.28,0.17,
4346,-0.285,0.165,
4347,-0.285,0.135,
4348,-0.295,0.14,
4349,-0.3,0.15,
4350,-0.28,0.175,
4351,-0.275,0.165,
4352,-0.285,0.17,
4353,-0.295,0.15,
4354,-0.3,0.145,
4355,-0.3,0.17,
4356,-0.295,0.17,
4357,-0.29,0.15,
4358,-0.29,0.14,
4359,-0.315,0.125,
4360,-0.315,0.135,
4361,-0.31,0.15,
4362,-0.305,0.14,
4363,-0.295,0.135,
4364,-0.305,0.13,
4365,-0.32,0.12,
4366,-0.33,0.13,
4367,-0.32,0.14,
4368,-0.305,0.14,
4369,-0.295,0.135,
4370,-0.285,0.12,
4371,-0.31,0.135,
4372,-0.335,0.135,
4373,-0.34,0.135,
4374,-0.325,0.14,
4375,-0.32,0.15,
4376,-0.305,0.14,
4377,-0.31,0.15,
4378,-0.325,0.155,
4379,-0.34,0.155,
4380,-0.34,0.155,
4381,-0.32,0.145,
4382,-0.31,0.13,
4383,-0.32,0.13,
4384,-0.32,0.14,
4385,-0.32,0.14,
4386,-0.305,0.175,
4387,-0.29,0.17,
4388,-0.285,0.155,
4389,-0.295,0.16,
4390,-0.32,0.15,
4391,-0.325,0.16,
4392,-0.315,0.175,
4393,-0.3,0.18,
4394,-0.295,0.155,
4395,-0.295,0.155,
4396,-0.31,0.155,
4397,-0.31,0.155,
4398,-0.295,0.18,
4399,-0.27,0.185,
4400,-0.3,0.165,
4401,-0.3,0.145,
4402,-0.3,0.15,
4403,-0.3,0.145,
4404,-0.29,0.155,
4405,-0.26,0.165,
4406,-0.265,0.155,
4407,-0.285,0.155,
4408,-0.305,0.15,
4409,-0.305,0.165,
4410,-0.29,0.165,
4411,-0.285,0.16,
4412,-0.29,0.155,
4413,-0.31,0.145,
4414,-0.315,0.155,
4415,-0.305,0.16,
4416,-0.295,0.16,
4417,-0.275,0.17,
4418,-0.28,0.175,
4419,-0.3,0.16,
4420,-0.315,0.155,
4421,-0.32,0.16,
4422,-0.32,0.165,
4423,-0.305,0.17,
4424,-0.3,0.165,
4425,-0.325,0.14,
4426,-0.345,0.135,
4427,-0.33,0.155,
4428,-0.3,0.165,
4429,-0.28,0.16,
4430,-0.29,0.16,
4431,-0.31,0.145,
4432,-0.31,0.145,
4433,-0.325,0.155,
4434,-0.29,0.165,
4435,-0.28,0.165,
4436,-0.28,0.155,
4437,-0.3,0.15,
4438,-0.33,0.145,
4439,-0.34,0.16,
4440,-0.315,0.175,
4441,-0.28,0.18,
4442,-0.29,0.16,
4443,-0.305,0.14,
4444,-0.32,0.145,
4445,-0.305,0.17,
4446,-0.305,0.19,
4447,-0.275,0.175,
4448,-0.295,0.17,
4449,-0.3,0.145,
4450,-0.3,0.145,
4451,-0.295,0.15,
4452,-0.28,0.175,
4453,-0.27,0.155,
4454,-0.265,0.15,
4455,-0.275,0.135,
4456,-0.29,0.14,
4457,-0.27,0.145,
4458,-0.255,0.16,
4459,-0.23,0.145,
4460,-0.24,0.155,
4461,-0.255,0.135,
4462,-0.28,0.14,
4463,-0.285,0.145,
4464,-0.275,0.16,
4465,-0.245,0.155,
4466,-0.255,0.145,
4467,-0.28,0.13,
4468,-0.265,0.145,
4469,-0.25,0.145,
4470,-0.24,0.15,
4471,-0.225,0.155,
4472,-0.23,0.155,
4473,-0.225,0.135,
4474,-0.25,0.13,
4475,-0.245,0.135,
4476,-0.23,0.155,
4477,-0.2,0.135,
4478,-0.195,0.12,
4479,-0.155,0.085,
4480,-0.075,0.075,
4481,-0.005,0.08,
4482,0.15,0.095,
4483,0.3,0.085,
4484,0.485,0.03,
4485,0.68,-0.03,
4486,0.875,-0.09,
4487,1.065,-0.08,
4488,1.24,-0.055,
4489,1.355,0.005,N
4490,1.35,0.07,
4491,1.21,0.145,
4492,0.94,0.16,
4493,0.62,0.17,
4494,0.33,0.22,
4495,0.025,0.275,
4496,-0.255,0.31,
4497,-0.44,0.305,
4498,-0.48,0.32,
4499,-0.405,0.325,
4500,-0.355,0.29,
4501,-0.28,0.265,
4502,-0.275,0.23,
4503,-0.3,0.205,
4504,-0.32,0.2,
4505,-0.32,0.225,
4506,-0.305,0.255,
4507,-0.275,0.27,
4508,-0.28,0.235,
4509,-0.29,0.18,
4510,-0.335,0.145,
4511,-0.32,0.105,
4512,-0.305,0.1,
4513,-0.295,0.1,
4514,-0.29,0.105,
4515,-0.33,0.095,
4516,-0.345,0.09,
4517,-0.345,0.115,
4518,-0.335,0.115,
4519,-0.32,0.11,
4520,-0.345,0.095,
4521,-0.36,0.09,
4522,-0.385,0.1,
4523,-0.365,0.105,
4524,-0.345,0.12,
4525,-0.34,0.12,
4526,-0.37,0.11,
4527,-0.38,0.1,
4528,-0.405,0.085,
4529,-0.38,0.105,
4530,-0.385,0.12,
4531,-0.35,0.13,
4532,-0.36,0.125,
4533,-0.365,0.105,
4534,-0.38,0.1,
4535,-0.38,0.115,
4536,-0.375,0.125,
4537,-0.36,0.13,
4538,-0.34,0.105,
4539,-0.365,0.11,
4540,-0.37,0.12,
4541,-0.355,0.135,
4542,-0.34,0.165,
4543,-0.31,0.165,
4544,-0.32,0.155,
4545,-0.33,0.14,
4546,-0.33,0.15,
4547,-0.315,0.16,
4548,-0.3,0.16,
4549,-0.29,0.17,
4550,-0.305,0.16,
4551,-0.335,0.135,
4552,-0.35,0.135,
4553,-0.31,0.135,
4554,-0.295,0.15,
4555,-0.255,0.15,
4556,-0.255,0.14,
4557,-0.255,0.12,
4558,-0.27,0.095,
4559,-0.26,0.095,
4560,-0.255,0.105,
4561,-0.215,0.095,
4562,-0.215,0.085,
4563,-0.225,0.065,
4564,-0.225,0.05,
4565,-0.21,0.065,
4566,-0.195,0.05,
4567,-0.2,0.035,
4568,-0.205,0.01,
4569,-0.205,0.0,
4570,-0.195,-0.03,
4571,-0.185,-0.02,
4572,-0.175,-0.01,
4573,-0.17,-0.03,
4574,-0.155,-0.045,
4575,-0.165,-0.065,
4576,-0.16,-0.08,
4577,-0.175,-0.09,
4578,-0.155,-0.09,
4579,-0.135,-0.095,
4580,-0.13,-0.105,
4581,-0.135,-0.135,
4582,-0.14,-0.13,
4583,-0.125,-0.12,
4584,-0.11,-0.1,
4585,-0.11,-0.11,
4586,-0.1,-0.105,
4587,-0.11,-0.12,
4588,-0.125,-0.115,
4589,-0.125,-0.1,
4590,-0.115,-0.095,
4591,-0.115,-0.08,
4592,-0.11,-0.075,
4593,-0.11,-0.085,
4594,-0.12,-0.075,
4595,-0.125,-0.055,
4596,-0.105,-0.03,
4597,-0.095,-0.01,
4598,-0.095,-0.01,
4599,-0.13,-0.01,
4600,-0.15,0.0,
4601,-0.17,0.02,
4602,-0.145,0.04,
4603,-0.14,0.045,
4604,-0.155,0.06,
4605,-0.19,0.06,
4606,-0.225,0.07,
4607,-0.22,0.095,
4608,-0.215,0.12,
4609,-0.21,0.11,
4610,-0.215,0.105,
4611,-0.245,0.1,
4612,-0.27,0.1,
4613,-0.275,0.13,
4614,-0.285,0.155,
4615,-0.275,0.16,
4616,-0.29,0.14,
4617,-0.31,0.125,
4618,-0.325,0.12,
4619,-0.305,0.13,
4620,-0.305,0.145,
4621,-0.285,0.15,
4622,-0.3,0.125,
4623,-0.32,0.11,
4624,-0.345,0.14,
4625,-0.335,0.135,
4626,-0.31,0.145,
4627,-0.295,0.145,
4628,-0.29,0.135,
4629,-0.305,0.135,
4630,-0.31,0.135,
4631,-0.305,0.16,
4632,-0.3,0.165,
4633,-0.295,0.16,
4634,-0.295,0.145,
4635,-0.29,0.14,
4636,-0.32,0.135,
4637,-0.32,0.16,
4638,-0.305,0.175,
4639,-0.275,0.185,
4640,-0.29,0.175,
4641,-0.305,0.17,
4642,-0.29,0.175,
4643,-0.29,0.18,
4644,-0.26,0.185,
4645,-0.26,0.19,
4646,-0.26,0.195,
4647,-0.27,0.175,
4648,-0.285,0.185,
4649,-0.265,0.19,
4650,-0.245,0.2,
4651,-0.23,0.2,
4652,-0.235,0.17,
4653,-0.26,0.155,
4654,-0.26,0.145,
4655,-0.265,0.16,
4656,-0.27,0.175,
4657,-0.24,0.18,
4658,-0.26,0.155,
4659,-0.26,0.15,
4660,-0.275,0.145,
4661,-0.27,0.14,
4662,-0.23,0.15,
4663,-0.22,0.125,
4664,-0.225,0.13,
4665,-0.235,0.105,
4666,-0.255,0.11,
4667,-0.255,0.125,
4668,-0.25,0.145,
4669,-0.23,0.155,
4670,-0.235,0.145,
4671,-0.245,0.14,
4672,-0.265,0.12,
4673,-0.265,0.145,
4674,-0.24,0.14,
4675,-0.22,0.16,
4676,-0.215,0.145,
4677,-0.23,0.12,
4678,-0.25,0.135,
4679,-0.255,0.15,
4680,-0.235,0.165,
4681,-0.22,0.16,
4682,-0.22,0.12,
4683,-0.245,0.11,
4684,-0.275,0.115,
4685,-0.265,0.12,
4686,-0.255,0.14,
4687,-0.24,0.15,
4688,-0.235,0.125,
4689,-0.245,0.11,
4690,-0.265,0.095,
4691,-0.255,0.115,
4692,-0.24,0.135,
4693,-0.23,0.135,
4694,-0.245,0.115,
4695,-0.27,0.095,
4696,-0.265,0.115,
4697,-0.27,0.135,
4698,-0.25,0.155,
4699,-0.235,0.15,
4700,-0.235,0.125,
4701,-0.26,0.11,
4702,-0.28,0.115,
4703,-0.27,0.13,
4704,-0.265,0.145,
4705,-0.265,0.145,
4706,-0.26,0.13,
4707,-0.265,0.125,
4708,-0.265,0.13,
4709,-0.26,0.145,
4710,-0.255,0.165,
4711,-0.23,0.165,
4712,-0.235,0.155,
4713,-0.25,0.145,
4714,-0.27,0.125,
4715,-0.265,0.155,
4716,-0.23,0.16,
4717,-0.24,0.155,
4718,-0.25,0.16,
4719,-0.26,0.15,
4720,-0.27,0.16,
4721,-0.26,0.165,
4722,-0.245,0.16,
4723,-0.215,0.16,
4724,-0.23,0.16,
4725,-0.245,0.135,
4726,-0.255,0.13,
4727,-0.25,0.16,
4728,-0.235,0.17,
4729,-0.225,0.165,
4730,-0.23,0.16,
4731,-0.235,0.15,
4732,-0.245,0.14,
4733,-0.235,0.145,
4734,-0.24,0.155,
4735,-0.255,0.145,
4736,-0.255,0.135,
4737,-0.265,0.105,
4738,-0.26,0.105,
4739,-0.25,0.115,
4740,-0.24,0.125,
4741,-0.23,0.135,
4742,-0.255,0.12,
4743,-0.25,0.11,
4744,-0.265,0.1,
4745,-0.245,0.11,
4746,-0.245,0.12,
4747,-0.245,0.11,
4748,-0.235,0.1,
4749,-0.26,0.08,
4750,-0.265,0.08,
4751,-0.265,0.1,
4752,-0.265,0.115,
4753,-0.26,0.12,
4754,-0.25,0.13,
4755,-0.26,0.12,
4756,-0.245,0.12,
4757,-0.255,0.14,
4758,-0.24,0.135,
4759,-0.23,0.135,
4760,-0.25,0.115,
4761,-0.265,0.105,
4762,-0.27,0.11,
4763,-0.275,0.14,
4764,-0.255,0.17,
4765,-0.225,0.175,
4766,-0.23,0.155,
4767,-0.26,0.135,
4768,-0.27,0.135,
4769,-0.26,0.15,
4770,-0.24,0.165,
4771,-0.22,0.155,
4772,-0.23,0.145,
4773,-0.235,0.13,
4774,-0.25,0.16,
4775,-0.235,0.17,
4776,-0.225,0.195,
4777,-0.21,0.185,
4778,-0.21,0.185,
4779,-0.235,0.15,
4780,-0.255,0.135,
4781,-0.25,0.125,
4782,-0.22,0.125,
4783,-0.185,0.115,
4784,-0.185,0.105,
4785,-0.2,0.105,
4786,-0.22,0.1,
4787,-0.215,0.115,
4788,-0.22,0.135,
4789,-0.2,0.13,
4790,-0.2,0.125,
4791,-0.23,0.095,
4792,-0.25,0.095,
4793,-0.24,0.105,
4794,-0.21,0.115,
4795,-0.195,0.105,
4796,-0.195,0.125,
4797,-0.21,0.12,
4798,-0.225,0.12,
4799,-0.23,0.135,
4800,-0.235,0.145,
4801,-0.225,0.155,
4802,-0.22,0.145,
4803,-0.225,0.12,
4804,-0.235,0.125,
4805,-0.23,0.135,
4806,-0.205,0.155,
4807,-0.195,0.165,
4808,-0.21,0.155,
4809,-0.22,0.125,
4810,-0.23,0.14,
4811,-0.23,0.145,
4812,-0.2,0.17,
4813,-0.19,0.155,
4814,-0.21,0.13,
4815,-0.225,0.115,
4816,-0.255,0.125,
4817,-0.23,0.13,
4818,-0.185,0.145,
4819,-0.17,0.155,
4820,-0.2,0.155,
4821,-0.205,0.145,
4822,-0.215,0.13,
4823,-0.21,0.135,
4824,-0.2,0.125,
4825,-0.18,0.115,
4826,-0.17,0.07,
4827,-0.16,0.025,
4828,-0.14,0.015,
4829,-0.06,0.0,
4830,0.04,0.01,
4831,0.13,-0.01,
4832,0.235,-0.025,
4833,0.395,-0.05,
4834,0.575,-0.065,
4835,0.785,-0.11,
4836,0.99,-0.11,
4837,1.165,-0.115,
4838,1.285,-0.09,N
4839,1.33,-0.03,
4840,1.275,0.045,
4841,1.095,0.125,
4842,0.835,0.14,
4843,0.535,0.14,
4844,0.195,0.175,
4845,-0.15,0.215,
4846,-0.365,0.27,
4847,-0.41,0.31,
4848,-0.32,0.305,
4849,-0.245,0.245,
4850,-0.21,0.175,
4851,-0.205,0.14,
4852,-0.22,0.14,
4853,-0.24,0.14,
4854,-0.255,0.15,
4855,-0.25,0.15,
4856,-0.265,0.14,
4857,-0.265,0.12,
4858,-0.29,0.115,
4859,-0.28,0.125,
4860,-0.28,0.145,
4861,-0.29,0.13,
4862,-0.295,0.125,
4863,-0.31,0.1,
4864,-0.3,0.105,
4865,-0.3,0.135,
4866,-0.29,0.155,
4867,-0.28,0.14,
4868,-0.3,0.13,
4869,-0.3,0.115,
4870,-0.3,0.105,
4871,-0.31,0.105,
4872,-0.29,0.115,
4873,-0.27,0.105,
4874,-0.265,0.115,
4875,-0.28,0.11,
4876,-0.3,0.11,
4877,-0.285,0.11,
4878,-0.295,0.13,
4879,-0.285,0.14,
4880,-0.3,0.13,
4881,-0.31,0.105,
4882,-0.315,0.095,
4883,-0.31,0.1,
4884,-0.3,0.115,
4885,-0.27,0.135,
4886,-0.27,0.12,
4887,-0.27,0.11,
4888,-0.29,0.1,
4889,-0.29,0.12,
4890,-0.275,0.14,
4891,-0.265,0.15,
4892,-0.285,0.15,
4893,-0.305,0.13,
4894,-0.305,0.1,
4895,-0.305,0.095,
4896,-0.275,0.105,
4897,-0.26,0.095,
4898,-0.26,0.075,
4899,-0.27,0.06,
4900,-0.265,0.055,
4901,-0.265,0.055,
4902,-0.255,0.075,
4903,-0.24,0.07,
4904,-0.235,0.055,
4905,-0.24,0.035,
4906,-0.225,0.05,
4907,-0.215,0.05,
4908,-0.175,0.06,
4909,-0.185,0.035,
4910,-0.185,0.015,
4911,-0.175,0.0,
4912,-0.18,0.01,
4913,-0.18,0.025,
4914,-0.155,0.02,
4915,-0.125,0.01,
4916,-0.115,-0.015,
4917,-0.115,-0.035,
4918,-0.125,-0.035,
4919,-0.085,-0.035,
4920,-0.06,-0.015,
4921,-0.045,-0.035,
4922,-0.04,-0.05,
4923,-0.03,-0.07,
4924,-0.025,-0.07,
4925,-0.025,-0.07,
4926,-0.005,-0.08,
4927,0.02,-0.09,
4928,0.01,-0.105,
4929,-0.005,-0.12,
4930,-0.005,-0.11,
4931,-0.01,-0.095,
4932,0.01,-0.09,
4933,0.015,-0.09,
4934,0.005,-0.095,
4935,0.01,-0.1,
4936,-0.005,-0.1,
4937,-0.025,-0.07,
4938,-0.02,-0.045,
4939,-0.025,-0.04,
4940,-0.04,-0.035,
4941,-0.06,-0.055,
4942,-0.09,-0.055,
4943,-0.085,-0.025,
4944,-0.09,-0.01,
4945,-0.08,-0.005,
4946,-0.11,0.03,
4947,-0.12,0.03,
4948,-0.115,0.055,
4949,-0.135,0.045,
4950,-0.135,0.065,
4951,-0.15,0.07,
4952,-0.17,0.085,
4953,-0.205,0.1,
4954,-0.22,0.1,
4955,-0.235,0.125,
4956,-0.2,0.15,
4957,-0.2,0.145,
4958,-0.185,0.12,
4959,-0.2,0.11,
4960,-0.23,0.125,
4961,-0.23,0.145,
4962,-0.22,0.18,
4963,-0.21,0.165,
4964,-0.235,0.14,
4965,-0.24,0.12,
4966,-0.25,0.13,
4967,-0.245,0.135,
4968,-0.22,0.155,
4969,-0.225,0.165,
4970,-0.235,0.155,
4971,-0.255,0.14,
4972,-0.275,0.145,
4973,-0.28,0.165,
4974,-0.26,0.185,
4975,-0.24,0.175,
4976,-0.255,0.16,
4977,-0.26,0.14,
4978,-0.27,0.145,
4979,-0.275,0.15,
4980,-0.28,0.18,
4981,-0.275,0.185,
4982,-0.26,0.19,
4983,-0.26,0.185,
4984,-0.245,0.185,
4985,-0.24,0.185,
4986,-0.245,0.18,
4987,-0.245,0.175,
4988,-0.255,0.15,
4989,-0.255,0.135,
4990,-0.275,0.115,
4991,-0.285,0.15,
4992,-0.25,0.18,
4993,-0.21,0.19,
4994,-0.22,0.17,
4995,-0.24,0.15,
4996,-0.27,0.16,
4997,-0.27,0.165,
4998,-0.25,0.185,
4999,-0.24,0.17,
5000,-0.23,0.165,
5001,-0.255,0.15,
5002,-0.24,0.145,
5003,-0.23,0.165,
5004,-0.21,0.175,
5005,-0.2,0.17,
5006,-0.21,0.175,
5007,-0.215,0.175,
5008,-0.225,0.15,
5009,-0.225,0.14,
5010,-0.215,0.145,
5011,-0.195,0.155,
5012,-0.2,0.14,
5013,-0.21,0.13,
5014,-0.22,0.155,
5015,-0.2,0.155,
5016,-0.2,0.18,
5017,-0.18,0.17,
5018,-0.185,0.165,
5019,-0.2,0.155,
5020,-0.225,0.14,
5021,-0.21,0.15,
5022,-0.21,0.14,
5023,-0.195,0.155,
5024,-0.205,0.155,
5025,-0.22,0.135,
5026,-0.235,0.14,
5027,-0.245,0.14,
5028,-0.235,0.15,
5029,-0.205,0.13,
5030,-0.225,0.13,
5031,-0.22,0.105,
5032,-0.245,0.135,
5033,-0.23,0.145,
5034,-0.225,0.16,
5035,-0.21,0.165,
5036,-0.235,0.14,
5037,-0.24,0.12,
5038,-0.24,0.095,
5039,-0.25,0.085,
5040,-0.255,0.115,
5041,-0.26,0.125,
5042,-0.25,0.135,
5043,-0.255,0.115,
5044,-0.25,0.105,
5045,-0.255,0.115,
5046,-0.245,0.14,
5047,-0.245,0.135,
5048,-0.24,0.125,
5049,-0.235,0.11,
5050,-0.25,0.11,
5051,-0.245,0.125,
5052,-0.235,0.135,
5053,-0.225,0.145,
5054,-0.215,0.14,
5055,-0.225,0.135,
5056,-0.235,0.135,
5057,-0.23,0.165,
5058,-0.22,0.175,
5059,-0.21,0.155,
5060,-0.215,0.155,
5061,-0.22,0.145,
5062,-0.235,0.135,
5063,-0.225,0.165,
5064,-0.21,0.175,
5065,-0.195,0.165,
5066,-0.185,0.145,
5067,-0.22,0.125,
5068,-0.22,0.125,
5069,-0.205,0.155,
5070,-0.19,0.175,
5071,-0.185,0.165,
5072,-0.185,0.16,
5073,-0.215,0.15,
5074,-0.21,0.145,
5075,-0.21,0.155,
5076,-0.205,0.175,
5077,-0.21,0.15,
5078,-0.215,0.11,
5079,-0.225,0.095,
5080,-0.2,0.09,
5081,-0.13,0.1,
5082,-0.06,0.1,
5083,0.045,0.085,
5084,0.145,0.085,
5085,0.25,0.06,
5086,0.365,0.025,
5087,0.52,0.015,
5088,0.71,-0.005,
5089,0.91,-0.045,
5090,1.105,-0.06,
5091,1.235,-0.045,
5092,1.355,0.02,N
5093,1.365,0.12,
5094,1.275,0.195,
5095,1.06,0.2,
5096,0.765,0.175,
5097,0.46,0.17,
5098,0.145,0.215,
5099,-0.18,0.32,
5100,-0.395,0.385,
5101,-0.495,0.405,
5102,-0.46,0.385,
5103,-0.4,0.335,
5104,-0.35,0.27,
5105,-0.315,0.2,
5106,-0.28,0.2,
5107,-0.235,0.15,
5108,-0.25,0.12,
5109,-0.28,0.105,
5110,-0.295,0.1,
5111,-0.285,0.1,
5112,-0.28,0.11,
5113,-0.28,0.11,
5114,-0.3,0.105,
5115,-0.325,0.115,
5116,-0.33,0.115,
5117,-0.325,0.13,
5118,-0.315,0.13,
5119,-0.305,0.135,
5120,-0.3,0.13,
5121,-0.325,0.11,
5122,-0.325,0.12,
5123,-0.315,0.125,
5124,-0.32,0.13,
5125,-0.3,0.145,
5126,-0.3,0.135,
5127,-0.315,0.145,
5128,-0.33,0.13,
5129,-0.325,0.125,
5130,-0.31,0.14,
5131,-0.295,0.125,
5132,-0.315,0.125,
5133,-0.33,0.125,
5134,-0.335,0.13,
5135,-0.32,0.135,
5136,-0.31,0.145,
5137,-0.31,0.13,
5138,-0.32,0.12,
5139,-0.345,0.11,
5140,-0.35,0.105,
5141,-0.34,0.125,
5142,-0.31,0.12,
5143,-0.3,0.09,
5144,-0.3,0.07,
5145,-0.32,0.04,
5146,-0.32,0.035,
5147,-0.325,0.045,
5148,-0.285,0.055,
5149,-0.27,0.07,
5150,-0.265,0.07,
5151,-0.29,0.055,
5152,-0.29,0.05,
5153,-0.295,0.065,
5154,-0.26,0.075,
5155,-0.25,0.075,
5156,-0.255,0.065,
5157,-0.255,0.05,
5158,-0.28,0.05,
5159,-0.28,0.065,
5160,-0.245,0.075,
5161,-0.23,0.06,
5162,-0.215,0.045,
5163,-0.215,0.03,
5164,-0.215,0.025,
5165,-0.205,0.035,
5166,-0.19,0.04,
5167,-0.175,0.03,
5168,-0.19,0.03,
5169,-0.205,0.015,
5170,-0.2,-0.015,
5171,-0.16,-0.02,
5172,-0.14,-0.01,
5173,-0.11,-0.015,
5174,-0.11,-0.045,
5175,-0.105,-0.065,
5176,-0.1,-0.08,
5177,-0.08,-0.075,
5178,-0.05,-0.075,
5179,-0.04,-0.09,
5180,-0.045,-0.11,
5181,-0.06,-0.12,
5182,-0.06,-0.12,
5183,-0.04,-0.115,
5184,-0.045,-0.115,
5185,-0.035,-0.15,
5186,-0.03,-0.16,
5187,-0.055,-0.19,
5188,-0.07,-0.175,
5189,-0.07,-0.175,
5190,-0.02,-0.15,
5191,-0.035,-0.14,
5192,-0.04,-0.135,
5193,-0.03,-0.145,
5194,-0.045,-0.145,
5195,-0.055,-0.125,
5196,-0.045,-0.11,
5197,-0.045,-0.105,
5198,-0.085,-0.09,
5199,-0.1,-0.095,
5200,-0.11,-0.065,
5201,-0.12,-0.045,
5202,-0.125,-0.01,
5203,-0.13,0.015,
5204,-0.165,0.02,
5205,-0.19,0.015,
5206,-0.205,0.03,
5207,-0.2,0.04,
5208,-0.21,0.065,
5209,-0.215,0.07,
5210,-0.245,0.08,
5211,-0.27,0.085,
5212,-0.265,0.105,
5213,-0.255,0.115,
5214,-0.25,0.13,
5215,-0.275,0.135,
5216,-0.295,0.135,
5217,-0.32,0.14,
5218,-0.305,0.135,
5219,-0.29,0.15,
5220,-0.28,0.155,
5221,-0.275,0.16,
5222,-0.27,0.155,
5223,-0.27,0.15,
5224,-0.275,0.165,
5225,-0.275,0.19,
5226,-0.27,0.21,
5227,-0.265,0.2,
5228,-0.27,0.17,
5229,-0.285,0.16,
5230,-0.31,0.145,
5231,-0.305,0.155,
5232,-0.295,0.18,
5233,-0.265,0.17,
5234,-0.27,0.14,
5235,-0.285,0.115,
5236,-0.285,0.11,
5237,-0.275,0.135,
5238,-0.27,0.145,
5239,-0.275,0.145,
5240,-0.275,0.12,
5241,-0.275,0.11,
5242,-0.275,0.11,
5243,-0.265,0.115,
5244,-0.25,0.145,
5245,-0.24,0.14,
5246,-0.255,0.12,
5247,-0.26,0.105,
5248,-0.275,0.12,
5249,-0.27,0.145,
5250,-0.26,0.16,
5251,-0.24,0.16,
5252,-0.24,0.135,
5253,-0.245,0.12,
5254,-0.26,0.135,
5255,-0.26,0.15,
5256,-0.26,0.17,
5257,-0.225,0.15,
5258,-0.235,0.14,
5259,-0.23,0.125,
5260,-0.24,0.115,
5261,-0.245,0.135,
5262,-0.245,0.14,
5263,-0.22,0.15,
5264,-0.24,0.14,
5265,-0.25,0.135,
5266,-0.255,0.15,
5267,-0.255,0.16,
5268,-0.235,0.155,
5269,-0.23,0.145,
5270,-0.23,0.115,
5271,-0.25,0.1,
5272,-0.265,0.1,
5273,-0.24,0.125,
5274,-0.24,0.15,
5275,-0.225,0.135,
5276,-0.225,0.12,
5277,-0.25,0.115,
5278,-0.26,0.115,
5279,-0.255,0.14,
5280,-0.26,0.145,
5281,-0.255,0.135,
5282,-0.255,0.14,
5283,-0.255,0.13,
5284,-0.28,0.155,
5285,-0.27,0.16,
5286,-0.245,0.14,
5287,-0.22,0.125,
5288,-0.22,0.07,
5289,-0.255,0.05,
5290,-0.27,0.06,
5291,-0.265,0.09,
5292,-0.245,0.125,
5293,-0.21,0.13,
5294,-0.23,0.105,
5295,-0.24,0.1,
5296,-0.25,0.105,
5297,-0.245,0.115,
5298,-0.23,0.135,
5299,-0.215,0.14,
5300,-0.22,0.13,
5301,-0.25,0.115,
5302,-0.265,0.125,
5303,-0.25,0.13,
5304,-0.245,0.15,
5305,-0.23,0.145,
5306,-0.225,0.15,
5307,-0.25,0.14,
5308,-0.245,0.15,
5309,-0.25,0.17,
5310,-0.24,0.185,
5311,-0.235,0.19,
5312,-0.245,0.19,
5313,-0.25,0.185,
5314,-0.255,0.18,
5315,-0.245,0.185,
5316,-0.245,0.165,
5317,-0.24,0.12,
5318,-0.235,0.085,
5319,-0.25,0.055,
5320,-0.275,0.065,
5321,-0.28,0.075,
5322,-0.265,0.1,
5323,-0.25,0.1,
5324,-0.255,0.1,
5325,-0.27,0.08,
5326,-0.29,0.08,
5327,-0.275,0.095,
5328,-0.265,0.11,
5329,-0.24,0.105,
5330,-0.23,0.1,
5331,-0.23,0.095,
5332,-0.25,0.095,
5333,-0.245,0.115,
5334,-0.235,0.13,
5335,-0.215,0.135,
5336,-0.225,0.115,
5337,-0.245,0.095,
5338,-0.265,0.075,
5339,-0.26,0.095,
5340,-0.235,0.115,
5341,-0.2,0.115,
5342,-0.185,0.085,
5343,-0.165,0.06,
5344,-0.125,0.045,
5345,-0.075,0.05,
5346,0.02,0.06,
5347,0.1,0.05,
5348,0.21,0.04,
5349,0.345,0.025,
5350,0.5,0.005,
5351,0.695,-0.025,
5352,0.915,-0.045,
5353,1.115,-0.05,
5354,1.29,-0.04,
5355,1.4,0.015,N
5356,1.385,0.095,
5357,1.27,0.16,
5358,1.045,0.195,
5359,0.73,0.165,
5360,0.435,0.185,
5361,0.105,0.215,
5362,-0.18,0.255,
5363,-0.37,0.29,
5364,-0.405,0.305,
5365,-0.355,0.29,
5366,-0.305,0.225,
5367,-0.285,0.17,
5368,-0.275,0.145,
5369,-0.275,0.14,
5370,-0.275,0.14,
5371,-0.28,0.125,
5372,-0.3,0.135,
5373,-0.31,0.11,
5374,-0.32,0.095,
5375,-0.3,0.08,
5376,-0.295,0.1,
5377,-0.29,0.115,
5378,-0.33,0.095,
5379,-0.34,0.085,
5380,-0.33,0.085,
5381,-0.33,0.11,
5382,-0.305,0.125,
5383,-0.32,0.12,
5384,-0.315,0.12,
5385,-0.325,0.105,
5386,-0.33,0.115,
5387,-0.33,0.135,
5388,-0.325,0.14,
5389,-0.315,0.145,
5390,-0.325,0.14,
5391,-0.325,0.13,
5392,-0.34,0.125,
5393,-0.315,0.125,
5394,-0.325,0.135,
5395,-0.31,0.125,
5396,-0.345,0.12,
5397,-0.355,0.095,
5398,-0.365,0.105,
5399,-0.355,0.115,
5400,-0.33,0.135,
5401,-0.315,0.135,
5402,-0.32,0.11,
5403,-0.34,0.105,
5404,-0.335,0.105,
5405,-0.335,0.105,
5406,-0.33,0.1,
5407,-0.32,0.11,
5408,-0.32,0.105,
5409,-0.345,0.07,
5410,-0.325,0.06,
5411,-0.31,0.045,
5412,-0.305,0.075,
5413,-0.29,0.075,
5414,-0.31,0.08,
5415,-0.31,0.075,
5416,-0.325,0.08,
5417,-0.335,0.095,
5418,-0.32,0.115,
5419,-0.295,0.1,
5420,-0.31,0.065,
5421,-0.315,0.06,
5422,-0.31,0.05,
5423,-0.305,0.06,
5424,-0.255,0.06,
5425,-0.255,0.065,
5426,-0.26,0.05,
5427,-0.275,0.05,
5428,-0.26,0.06,
5429,-0.245,0.06,
5430,-0.225,0.075,
5431,-0.22,0.05,
5432,-0.205,0.05,
5433,-0.22,0.025,
5434,-0.225,0.025,
5435,-0.205,0.03,
5436,-0.18,0.045,
5437,-0.17,0.025,
5438,-0.155,0.01,
5439,-0.165,-0.005,
5440,-0.16,-0.01,
5441,-0.16,0.005,
5442,-0.13,0.01,
5443,-0.115,0.02,
5444,-0.105,-0.01,
5445,-0.095,-0.045,
5446,-0.12,-0.05,
5447,-0.11,-0.045,
5448,-0.095,-0.045,
5449,-0.075,-0.045,
5450,-0.09,-0.06,
5451,-0.08,-0.08,
5452,-0.08,-0.07,
5453,-0.055,-0.07,
5454,-0.05,-0.055,
5455,-0.03,-0.05,
5456,-0.035,-0.07,
5457,-0.035,-0.1,
5458,-0.045,-0.115,
5459,-0.05,-0.125,
5460,-0.035,-0.12,
5461,-0.05,-0.105,
5462,-0.065,-0.1,
5463,-0.08,-0.1,
5464,-0.105,-0.09,
5465,-0.095,-0.08,
5466,-0.085,-0.055,
5467,-0.08,-0.065,
5468,-0.09,-0.055,
5469,-0.115,-0.06,
5470,-0.155,-0.03,
5471,-0.17,-0.01,
5472,-0.165,0.02,
5473,-0.175,0.02,
5474,-0.185,0.015,
5475,-0.21,0.01,
5476,-0.225,0.035,
5477,-0.235,0.055,
5478,-0.21,0.075,
5479,-0.2,0.085,
5480,-0.205,0.07,
5481,-0.225,0.065,
5482,-0.255,0.085,
5483,-0.25,0.105,
5484,-0.235,0.12,
5485,-0.225,0.11,
5486,-0.245,0.115,
5487,-0.26,0.11,
5488,-0.27,0.115,
5489,-0.25,0.125,
5490,-0.25,0.145,
5491,-0.225,0.135,
5492,-0.255,0.12,
5493,-0.265,0.115,
5494,-0.285,0.145,
5495,-0.28,0.175,
5496,-0.245,0.19,
5497,-0.23,0.195,
5498,-0.235,0.165,
5499,-0.255,0.15,
5500,-0.27,0.15,
5501,-0.265,0.15,
5502,-0.25,0.165,
5503,-0.235,0.165,
5504,-0.25,0.155,
5505,-0.25,0.14,
5506,-0.245,0.135,
5507,-0.225,0.135,
5508,-0.205,0.135,
5509,-0.17,0.13,
5510,-0.17,0.13,
5511,-0.17,0.12,
5512,-0.175,0.135,
5513,-0.125,0.165,
5514,-0.12,0.18,
5515,-0.095,0.175,
5516,-0.095,0.17,
5517,-0.08,0.16,
5518,-0.055,0.155,
5519,0.005,0.155,
5520,0.09,0.14,
5521,0.155,0.075,
5522,0.21,0.02,
5523,0.25,-0.07,
5524,0.295,-0.12,
5525,0.35,-0.165,
5526,0.425,-0.21,
5527,0.49,-0.26,
5528,0.55,-0.325,
5529,0.6,-0.405,
5530,0.66,-0.48,
5531,0.755,-0.58,
5532,0.85,-0.655,
5533,0.94,-0.715,
5534,1.01,-0.78,
5535,1.045,-0.845,
5536,1.055,-0.895,
5537,1.025,-0.895,V
5538,1.035,-0.885,
5539,1.02,-0.87,
5540,1.015,-0.875,
5541,0.985,-0.895,
5542,0.93,-0.875,
5543,0.855,-0.835,
5544,0.78,-0.8,
5545,0.675,-0.78,
5546,0.535,-0.74,
5547,0.415,-0.7,
5548,0.32,-0.645,
5549,0.235,-0.585,
5550,0.165,-0.53,
5551,0.115,-0.47,
5552,0.065,-0.415,
5553,0.005,-0.375,
5554,-0.005,-0.365,
5555,-0.005,-0.35,
5556,-0.02,-0.31,
5557,-0.015,-0.26,
5558,0.0,-0.225,
5559,0.035,-0.18,
5560,0.095,-0.145,
5561,0.175,-0.095,
5562,0.24,-0.07,
5563,0.23,-0.06,
5564,0.16,-0.06,
5565,0.01,-0.065,
5566,-0.16,-0.035,
5567,-0.295,0.02,
5568,-0.365,0.065,
5569,-0.415,0.1,
5570,-0.45,0.15,
5571,-0.495,0.19,
5572,-0.5,0.22,
5573,-0.525,0.24,
5574,-0.535,0.265,
5575,-0.535,0.265,
5576,-0.56,0.265,
5577,-0.595,0.27,
5578,-0.595,0.27,
5579,-0.605,0.295,
5580,-0.615,0.33,
5581,-0.635,0.34,
5582,-0.64,0.335,
5583,-0.665,0.34,
5584,-0.675,0.33,
5585,-0.665,0.375,
5586,-0.665,0.395,
5587,-0.665,0.405,
5588,-0.705,0.395,
5589,-0.72,0.385,
5590,-0.725,0.395,
5591,-0.715,0.405,
5592,-0.695,0.425,
5593,-0.675,0.42,
5594,-0.69,0.41,
5595,-0.71,0.41,
5596,-0.735,0.41,
5597,-0.735,0.44,
5598,-0.725,0.455,
5599,-0.735,0.455,
5600,-0.745,0.445,
5601,-0.77,0.43,
5602,-0.77,0.46,
5603,-0.765,0.47,
5604,-0.775,0.485,
5605,-0.775,0.485,
5606,-0.8,0.49,
5607,-0.805,0.48,
5608,-0.815,0.49,
5609,-0.78,0.51,
5610,-0.77,0.52,
5611,-0.77,0.52,
5612,-0.79,0.515,
5613,-0.79,0.52,
5614,-0.79,0.54,
5615,-0.78,0.56,
5616,-0.765,0.57,
5617,-0.78,0.575,
5618,-0.8,0.575,
5619,-0.795,0.57,
5620,-0.8,0.565,
5621,-0.775,0.59,
5622,-0.765,0.615,
5623,-0.755,0.605,
5624,-0.78,0.6,
5625,-0.8,0.6,
5626,-0.795,0.625,
5627,-0.795,0.65,
5628,-0.77,0.655,
5629,-0.765,0.635,
5630,-0.75,0.625,
5631,-0.775,0.61,
5632,-0.785,0.64,
5633,-0.755,0.66,
5634,-0.72,0.67,
5635,-0.725,0.655,
5636,-0.715,0.63,
5637,-0.74,0.605,
5638,-0.72,0.595,
5639,-0.67,0.605,
5640,-0.64,0.605,
5641,-0.61,0.585,
5642,-0.59,0.56,
5643,-0.595,0.54,
5644,-0.59,0.53,
5645,-0.575,0.545,
5646,-0.53,0.54,
5647,-0.505,0.525,
5648,-0.495,0.485,
5649,-0.5,0.47,
5650,-0.475,0.445,
5651,-0.45,0.445,
5652,-0.405,0.445,
5653,-0.39,0.42,
5654,-0.385,0.395,
5655,-0.395,0.36,
5656,-0.385,0.36,
5657,-0.35,0.36,
5658,-0.345,0.34,
5659,-0.33,0.305,
5660,-0.32,0.285,
5661,-0.345,0.25,
5662,-0.335,0.235,
5663,-0.33,0.23,
5664,-0.315,0.23,
5665,-0.335,0.22,
5666,-0.32,0.2,
5667,-0.315,0.17,
5668,-0.315,0.175,
5669,-0.31,0.185,
5670,-0.295,0.2,
5671,-0.29,0.18,
5672,-0.285,0.175,
5673,-0.3,0.155,
5674,-0.3,0.155,
5675,-0.305,0.16,
5676,-0.29,0.15,
5677,-0.3,0.12,
5678,-0.31,0.11,
5679,-0.3,0.095,
5680,-0.31,0.11,
5681,-0.31,0.13,
5682,-0.3,0.155,
5683,-0.3,0.16,
5684,-0.3,0.155,
5685,-0.305,0.13,
5686,-0.305,0.12,
5687,-0.3,0.125,
5688,-0.285,0.14,
5689,-0.28,0.125,
5690,-0.31,0.105,
5691,-0.325,0.095,
5692,-0.33,0.105,
5693,-0.3,0.13,
5694,-0.285,0.135,
5695,-0.27,0.125,
5696,-0.28,0.11,
5697,-0.295,0.09,
5698,-0.29,0.085,
5699,-0.285,0.095,
5700,-0.275,0.105,
5701,-0.275,0.1,
5702,-0.285,0.08,
5703,-0.285,0.085,
5704,-0.28,0.08,
5705,-0.26,0.085,
5706,-0.26,0.095,
5707,-0.235,0.09,
5708,-0.25,0.075,
5709,-0.255,0.07,
5710,-0.25,0.075,
5711,-0.25,0.085,
5712,-0.225,0.11,
5713,-0.225,0.1,
5714,-0.24,0.075,
5715,-0.275,0.075,
5716,-0.275,0.075,
5717,-0.255,0.075,
5718,-0.24,0.09,
5719,-0.235,0.1,
5720,-0.255,0.085,
5721,-0.29,0.1,
5722,-0.275,0.085,
5723,-0.24,0.11,
5724,-0.23,0.105,
5725,-0.225,0.08,
5726,-0.24,0.05,
5727,-0.28,0.035,
5728,-0.28,0.06,
5729,-0.24,0.075,
5730,-0.23,0.09,
5731,-0.23,0.09,
5732,-0.235,0.085,
5733,-0.26,0.09,
5734,-0.26,0.085,
5735,-0.24,0.075,
5736,-0.24,0.06,
5737,-0.24,0.045,
5738,-0.25,0.045,
5739,-0.255,0.03,
5740,-0.265,0.04,
5741,-0.25,0.065,
5742,-0.235,0.085,
5743,-0.24,0.085,
5744,-0.245,0.08,
5745,-0.26,0.085,
5746,-0.275,0.1,
5747,-0.275,0.105,
5748,-0.27,0.12,
5749,-0.265,0.105,
5750,-0.265,0.085,
5751,-0.28,0.05,
5752,-0.28,0.05,
5753,-0.285,0.07,
5754,-0.27,0.085,
5755,-0.255,0.09,
5756,-0.27,0.075,
5757,-0.285,0.07,
5758,-0.29,0.085,
5759,-0.28,0.115,
5760,-0.28,0.13,
5761,-0.27,0.095,
5762,-0.285,0.07,
5763,-0.3,0.045,
5764,-0.3,0.055,
5765,-0.285,0.075,
5766,-0.265,0.105,
5767,-0.255,0.105,
5768,-0.24,0.095,
5769,-0.25,0.09,
5770,-0.285,0.08,
5771,-0.275,0.08,
5772,-0.265,0.105,
5773,-0.245,0.12,
5774,-0.265,0.13,
5775,-0.28,0.13,
5776,-0.28,0.12,
5777,-0.26,0.12,
5778,-0.255,0.12,
5779,-0.25,0.105,
5780,-0.28,0.09,
5781,-0.295,0.08,
5782,-0.31,0.085,
5783,-0.285,0.1,
5784,-0.27,0.09,
5785,-0.26,0.085,
5786,-0.27,0.065,
5787,-0.275,0.055,
5788,-0.28,0.06,
5789,-0.255,0.07,
5790,-0.255,0.09,
5791,-0.275,0.07,
5792,-0.265,0.065,
5793,-0.285,0.055,
5794,-0.29,0.065,
5795,-0.295,0.075,
5796,-0.265,0.09,
5797,-0.25,0.075,
5798,-0.245,0.07,
5799,-0.26,0.06,
5800,-0.265,0.07,
5801,-0.26,0.075,
5802,-0.27,0.085,
5803,-0.265,0.085,
5804,-0.245,0.065,
5805,-0.27,0.06,
5806,-0.275,0.065,
5807,-0.265,0.085,
5808,-0.25,0.115,
5809,-0.245,0.11,
5810,-0.235,0.11,
5811,-0.25,0.095,
5812,-0.245,0.095,
5813,-0.255,0.115,
5814,-0.235,0.12,
5815,-0.225,0.11,
5816,-0.245,0.08,
5817,-0.25,0.07,
5818,-0.26,0.075,
5819,-0.255,0.09,
5820,-0.235,0.105,
5821,-0.225,0.095,
5822,-0.23,0.09,
5823,-0.25,0.08,
5824,-0.25,0.1,
5825,-0.225,0.11,
5826,-0.21,0.12,
5827,-0.195,0.125,
5828,-0.225,0.12,
5829,-0.235,0.135,
5830,-0.24,0.12,
5831,-0.225,0.12,
5832,-0.225,0.125,
5833,-0.19,0.105,
5834,-0.18,0.075,
5835,-0.17,0.055,
5836,-0.155,0.045,
5837,-0.115,0.025,
5838,-0.045,0.035,
5839,0.035,0.015,
5840,0.135,-0.015,
5841,0.24,-0.02,
5842,0.36,-0.05,
5843,0.515,-0.055,
5844,0.685,-0.075,
5845,0.865,-0.105,
5846,1.025,-0.12,
5847,1.165,-0.11,
5848,1.275,-0.05,N
5849,1.355,0.01,
5850,1.34,0.07,
5851,1.21,0.1,
5852,0.99,0.085,
5853,0.715,0.055,
5854,0.455,0.07,
5855,0.175,0.115,
5856,-0.065,0.14,
5857,-0.28,0.16,
5858,-0.39,0.18,
5859,-0.44,0.185,
5860,-0.375,0.175,
5861,-0.32,0.17,
5862,-0.27,0.135,
5863,-0.255,0.1,
5864,-0.265,0.07,
5865,-0.29,0.05,
5866,-0.295,0.05,
5867,-0.305,0.07,
5868,-0.29,0.075,
5869,-0.29,0.05,
5870,-0.29,0.04,
5871,-0.315,0.035,
5872,-0.33,0.06,
5873,-0.315,0.075,
5874,-0.315,0.08,
5875,-0.31,0.085,
5876,-0.325,0.07,
5877,-0.315,0.05,
5878,-0.325,0.07,
5879,-0.305,0.08,
5880,-0.295,0.115,
5881,-0.29,0.125,
5882,-0.31,0.12,
5883,-0.305,0.085,
5884,-0.325,0.08,
5885,-0.3,0.075,
5886,-0.285,0.075,
5887,-0.285,0.09,
5888,-0.32,0.075,
5889,-0.33,0.07,
5890,-0.315,0.08,
5891,-0.305,0.105,
5892,-0.31,0.11,
5893,-0.295,0.1,
5894,-0.29,0.07,
5895,-0.33,0.05,
5896,-0.345,0.075,
5897,-0.33,0.095,
5898,-0.31,0.105,
5899,-0.29,0.085,
5900,-0.3,0.06,
5901,-0.32,0.045,
5902,-0.325,0.055,
5903,-0.325,0.07,
5904,-0.315,0.09,
5905,-0.31,0.09,
5906,-0.31,0.085,
5907,-0.31,0.06,
5908,-0.315,0.06,
5909,-0.32,0.08,
5910,-0.3,0.085,
5911,-0.295,0.075,
5912,-0.31,0.07,
5913,-0.32,0.055,
5914,-0.315,0.065,
5915,-0.305,0.08,
5916,-0.29,0.075,
5917,-0.28,0.05,
5918,-0.28,0.04,
5919,-0.3,0.025,
5920,-0.305,0.02,
5921,-0.28,0.035,
5922,-0.265,0.055,
5923,-0.265,0.065,
5924,-0.27,0.05,
5925,-0.28,0.05,
5926,-0.265,0.06,
5927,-0.26,0.065,
5928,-0.225,0.07,
5929,-0.22,0.04,
5930,-0.225,0.025,
5931,-0.225,0.01,
5932,-0.235,-0.005,
5933,-0.215,0.0,
5934,-0.19,-0.005,
5935,-0.175,-0.015,
5936,-0.18,-0.04,
5937,-0.175,-0.055,
5938,-0.175,-0.06,
5939,-0.15,-0.05,
5940,-0.125,-0.055,
5941,-0.1,-0.06,
5942,-0.125,-0.08,
5943,-0.145,-0.1,
5944,-0.13,-0.115,
5945,-0.125,-0.12,
5946,-0.105,-0.115,
5947,-0.075,-0.145,
5948,-0.085,-0.145,
5949,-0.09,-0.16,
5950,-0.1,-0.155,
5951,-0.09,-0.13,
5952,-0.075,-0.135,
5953,-0.065,-0.13,
5954,-0.065,-0.135,
5955,-0.065,-0.15,
5956,-0.06,-0.16,
5957,-0.055,-0.165,
5958,-0.05,-0.145,
5959,-0.055,-0.15,
5960,-0.065,-0.145,
5961,-0.065,-0.15,
5962,-0.06,-0.145,
5963,-0.065,-0.135,
5964,-0.05,-0.11,
5965,-0.05,-0.095,
5966,-0.075,-0.085,
5967,-0.105,-0.065,
5968,-0.115,-0.035,
5969,-0.13,-0.015,
5970,-0.115,0.015,
5971,-0.125,0.015,
5972,-0.15,-0.015,
5973,-0.16,-0.01,
5974,-0.175,0.01,
5975,-0.165,0.045,
5976,-0.18,0.08,
5977,-0.17,0.09,
5978,-0.205,0.075,
5979,-0.23,0.065,
5980,-0.255,0.065,
5981,-0.235,0.09,
5982,-0.23,0.1,
5983,-0.215,0.09,
5984,-0.255,0.09,
5985,-0.295,0.095,
5986,-0.28,0.115,
5987,-0.265,0.13,
5988,-0.255,0.14,
5989,-0.25,0.13,
5990,-0.255,0.115,
5991,-0.27,0.115,
5992,-0.285,0.12,
5993,-0.27,0.145,
5994,-0.245,0.15,
5995,-0.24,0.145,
5996,-0.25,0.125,
5997,-0.255,0.12,
5998,-0.265,0.125,
5999,-0.245,0.135,
6000,-0.23,0.16,
6001,-0.235,0.15,
6002,-0.23,0.145,
6003,-0.265,0.12,
6004,-0.25,0.105,
6005,-0.26,0.115,
6006,-0.24,0.12,
6007,-0.26,0.11,
6008,-0.25,0.135,
6009,-0.255,0.125,
6010,-0.255,0.13,
6011,-0.24,0.135,
6012,-0.245,0.13,
6013,-0.23,0.125,
6014,-0.235,0.1,
6015,-0.235,0.1,
6016,-0.235,0.13,
6017,-0.225,0.15,
6018,-0.215,0.145,
6019,-0.205,0.135,
6020,-0.205,0.12,
6021,-0.23,0.11,
6022,-0.23,0.105,
6023,-0.225,0.125,
6024,-0.205,0.135,
6025,-0.205,0.125,
6026,-0.225,0.12,
6027,-0.24,0.09,
6028,-0.245,0.085,
6029,-0.235,0.085,
6030,-0.215,0.09,
6031,-0.21,0.08,
6032,-0.22,0.055,
6033,-0.23,0.055,
6034,-0.23,0.05,
6035,-0.225,0.065,
6036,-0.21,0.085,
6037,-0.205,0.095,
6038,-0.22,0.08,
6039,-0.25,0.065,
6040,-0.25,0.055,
6041,-0.255,0.06,
6042,-0.225,0.07,
6043,-0.2,0.065,
6044,-0.21,0.065,
6045,-0.22,0.06,
6046,-0.235,0.065,
6047,-0.23,0.08,
6048,-0.215,0.1,
6049,-0.215,0.075,
6050,-0.21,0.07,
6051,-0.22,0.055,
6052,-0.235,0.065,
6053,-0.225,0.09,
6054,-0.22,0.115,
6055,-0.225,0.11,
6056,-0.235,0.11,
6057,-0.25,0.075,
6058,-0.245,0.075,
6059,-0.22,0.075,
6060,-0.21,0.085,
6061,-0.205,0.085,
6062,-0.215,0.085,
6063,-0.23,0.09,
6064,-0.235,0.13,
6065,-0.225,0.14,
6066,-0.225,0.14,
6067,-0.225,0.125,
6068,-0.215,0.105,
6069,-0.235,0.08,
6070,-0.235,0.075,
6071,-0.235,0.07,
6072,-0.225,0.075,
6073,-0.24,0.07,
6074,-0.25,0.065,
6075,-0.24,0.05,
6076,-0.245,0.065,
6077,-0.23,0.08,
6078,-0.235,0.08,
6079,-0.22,0.095,
6080,-0.21,0.085,
6081,-0.225,0.08,
6082,-0.24,0.095,
6083,-0.24,0.09,
6084,-0.24,0.09,
6085,-0.225,0.065,
6086,-0.22,0.045,
6087,-0.21,0.025,
6088,-0.165,0.02,
6089,-0.11,0.01,
6090,-0.01,0.03,
6091,0.08,0.0,
6092,0.17,0.015,
6093,0.305,0.005,
6094,0.485,0.0,
6095,0.71,-0.025,
6096,0.935,-0.035,
6097,1.17,-0.06,
6098,1.345,-0.045,
6099,1.42,-0.01,N
6100,1.39,0.06,
6101,1.235,0.115,
6102,0.99,0.125,
6103,0.685,0.12,
6104,0.345,0.125,
6105,0.025,0.18,
6106,-0.255,0.24,
6107,-0.425,0.3,
6108,-0.445,0.3,
6109,-0.4,0.265,
6110,-0.355,0.195,
6111,-0.32,0.145,
6112,-0.3,0.095,
6113,-0.285,0.09,
6114,-0.27,0.09,
6115,-0.265,0.075,
6116,-0.265,0.05,
6117,-0.285,0.05,
6118,-0.285,0.05,
6119,-0.31,0.06,
6120,-0.305,0.09,
6121,-0.305,0.09,
6122,-0.315,0.08,
6123,-0.33,0.06,
6124,-0.34,0.04,
6125,-0.365,0.055,
6126,-0.34,0.075,
6127,-0.335,0.07,
6128,-0.34,0.06,
6129,-0.34,0.04,
6130,-0.335,0.045,
6131,-0.335,0.065,
6132,-0.325,0.085,
6133,-0.33,0.09,
6134,-0.345,0.085,
6135,-0.36,0.08,
6136,-0.37,0.07,
6137,-0.345,0.06,
6138,-0.35,0.055,
6139,-0.34,0.035,
6140,-0.355,0.035,
6141,-0.37,0.025,
6142,-0.365,0.045,
6143,-0.36,0.065,
6144,-0.345,0.075,
6145,-0.34,0.08,
6146,-0.36,0.06,
6147,-0.36,0.07,
6148,-0.38,0.08,
6149,-0.375,0.095,
6150,-0.365,0.1,
6151,-0.365,0.09,
6152,-0.37,0.06,
6153,-0.375,0.04,
6154,-0.38,0.055,
6155,-0.36,0.08,
6156,-0.36,0.105,
6157,-0.355,0.105,
6158,-0.365,0.08,
6159,-0.355,0.07,
6160,-0.37,0.06,
6161,-0.36,0.055,
6162,-0.33,0.075,
6163,-0.315,0.055,
6164,-0.325,0.045,
6165,-0.335,0.045,
6166,-0.325,0.04,
6167,-0.31,0.04,
6168,-0.275,0.035,
6169,-0.28,0.025,
6170,-0.29,0.02,
6171,-0.31,0.0,
6172,-0.285,0.0,
6173,-0.255,-0.01,
6174,-0.235,-0.01,
6175,-0.23,-0.025,
6176,-0.235,-0.04,
6177,-0.24,-0.04,
6178,-0.215,-0.045,
6179,-0.195,-0.03,
6180,-0.17,-0.02,
6181,-0.18,-0.055,
6182,-0.185,-0.08,
6183,-0.21,-0.105,
6184,-0.215,-0.115,
6185,-0.21,-0.12,
6186,-0.18,-0.11,
6187,-0.165,-0.1,
6188,-0.17,-0.12,
6189,-0.175,-0.12,
6190,-0.175,-0.115,
6191,-0.165,-0.11,
6192,-0.15,-0.115,
6193,-0.155,-0.12,
6194,-0.175,-0.13,
6195,-0.19,-0.125,
6196,-0.18,-0.12,
6197,-0.16,-0.105,
6198,-0.14,-0.085,
6199,-0.145,-0.11,
6200,-0.16,-0.115,
6201,-0.185,-0.095,
6202,-0.175,-0.095,
6203,-0.17,-0.07,
6204,-0.16,-0.07,
6205,-0.155,-0.08,
6206,-0.17,-0.08,
6207,-0.19,-0.07,
6208,-0.19,-0.04,
6209,-0.195,-0.02,
6210,-0.185,0.015,
6211,-0.2,0.02,
6212,-0.235,0.0,
6213,-0.25,-0.01,
6214,-0.245,-0.02,
6215,-0.255,0.005,
6216,-0.235,0.045,
6217,-0.23,0.05,
6218,-0.24,0.035,
6219,-0.28,0.02,
6220,-0.295,0.045,
6221,-0.3,0.08,
6222,-0.29,0.1,
6223,-0.3,0.085,
6224,-0.295,0.075,
6225,-0.315,0.075,
6226,-0.32,0.07,
6227,-0.315,0.09,
6228,-0.305,0.085,
6229,-0.3,0.08,
6230,-0.31,0.095,
6231,-0.32,0.085,
6232,-0.335,0.105,
6233,-0.315,0.11,
6234,-0.325,0.125,
6235,-0.33,0.1,
6236,-0.33,0.08,
6237,-0.38,0.095,
6238,-0.365,0.105,
6239,-0.35,0.12,
6240,-0.34,0.115,
6241,-0.35,0.105,
6242,-0.345,0.115,
6243,-0.35,0.105,
6244,-0.355,0.1,
6245,-0.335,0.11,
6246,-0.32,0.11,
6247,-0.31,0.105,
6248,-0.33,0.095,
6249,-0.345,0.12,
6250,-0.355,0.115,
6251,-0.335,0.135,
6252,-0.31,0.155,
6253,-0.32,0.125,
6254,-0.335,0.095,
6255,-0.345,0.07,
6256,-0.335,0.095,
6257,-0.325,0.11,
6258,-0.295,0.13,
6259,-0.295,0.14,
6260,-0.305,0.13,
6261,-0.32,0.13,
6262,-0.33,0.12,
6263,-0.32,0.085,
6264,-0.3,0.095,
6265,-0.29,0.08,
6266,-0.305,0.085,
6267,-0.315,0.095,
6268,-0.31,0.085,
6269,-0.305,0.085,
6270,-0.275,0.105,
6271,-0.27,0.09,
6272,-0.285,0.07,
6273,-0.295,0.075,
6274,-0.29,0.075,
6275,-0.285,0.085,
6276,-0.275,0.09,
6277,-0.28,0.065,
6278,-0.305,0.07,
6279,-0.33,0.055,
6280,-0.335,0.065,
6281,-0.315,0.06,
6282,-0.305,0.065,
6283,-0.31,0.05,
6284,-0.335,0.04,
6285,-0.355,0.045,
6286,-0.355,0.055,
6287,-0.32,0.07,
6288,-0.31,0.085,
6289,-0.315,0.06,
6290,-0.32,0.035,
6291,-0.35,0.045,
6292,-0.34,0.075,
6293,-0.345,0.09,
6294,-0.325,0.105,
6295,-0.325,0.1,
6296,-0.335,0.065,
6297,-0.35,0.03,
6298,-0.34,0.04,
6299,-0.325,0.05,
6300,-0.295,0.07,
6301,-0.29,0.085,
6302,-0.325,0.075,
6303,-0.33,0.07,
6304,-0.33,0.06,
6305,-0.325,0.08,
6306,-0.305,0.075,
6307,-0.305,0.08,
6308,-0.305,0.08,
6309,-0.33,0.07,
6310,-0.325,0.08,
6311,-0.305,0.08,
6312,-0.285,0.1,
6313,-0.285,0.11,
6314,-0.29,0.095,
6315,-0.305,0.085,
6316,-0.32,0.095,
6317,-0.305,0.095,
6318,-0.31,0.1,
6319,-0.295,0.085,
6320,-0.32,0.08,
6321,-0.33,0.065,
6322,-0.335,0.07,
6323,-0.3,0.1,
6324,-0.285,0.1,
6325,-0.285,0.085,
6326,-0.285,0.075,
6327,-0.305,0.065,
6328,-0.29,0.075,
6329,-0.27,0.08,
6330,-0.24,0.085,
6331,-0.245,0.08,
6332,-0.255,0.055,
6333,-0.25,0.045,
6334,-0.265,0.035,
6335,-0.26,0.05,
6336,-0.255,0.045,
6337,-0.255,0.05,
6338,-0.24,0.025,
6339,-0.215,0.01,
6340,-0.18,0.005,
6341,-0.115,0.005,
6342,-0.02,0.005,
6343,0.07,0.01,
6344,0.175,-0.02,
6345,0.315,-0.03,
6346,0.49,-0.055,
6347,0.695,-0.075,
6348,0.9,-0.105,
6349,1.115,-0.13,
6350,1.265,-0.12,
6351,1.38,-0.075,N
6352,1.39,0.02,
6353,1.3,0.105,
6354,1.085,0.145,
6355,0.79,0.12,
6356,0.445,0.11,
6357,0.135,0.125,
6358,-0.17,0.19,
6359,-0.38,0.225,
6360,-0.455,0.245,
6361,-0.455,0.225,
6362,-0.395,0.18,
6363,-0.365,0.14,
6364,-0.335,0.12,
6365,-0.31,0.125,
6366,-0.31,0.12,
6367,-0.305,0.1,
6368,-0.32,0.045,
6369,-0.345,0.03,
6370,-0.355,0.04,
6371,-0.34,0.05,
6372,-0.335,0.075,
6373,-0.33,0.055,
6374,-0.35,0.045,
6375,-0.37,0.04,
6376,-0.36,0.035,
6377,-0.35,0.055,
6378,-0.345,0.085,
6379,-0.355,0.07,
6380,-0.37,0.06,
6381,-0.385,0.06,
6382,-0.375,0.06,
6383,-0.37,0.06,
6384,-0.345,0.065,
6385,-0.345,0.07,
6386,-0.35,0.065,
6387,-0.365,0.06,
6388,-0.36,0.09,
6389,-0.355,0.07,
6390,-0.345,0.08,
6391,-0.355,0.06,
6392,-0.36,0.035,
6393,-0.38,0.05,
6394,-0.385,0.045,
6395,-0.375,0.06,
6396,-0.35,0.065,
6397,-0.355,0.035,
6398,-0.375,0.02,
6399,-0.39,0.015,
6400,-0.385,0.035,
6401,-0.365,0.045,
6402,-0.34,0.07,
6403,-0.335,0.04,
6404,-0.35,0.03,
6405,-0.36,0.03,
6406,-0.36,0.025,
6407,-0.345,0.05,
6408,-0.32,0.075,
6409,-0.325,0.07,
6410,-0.34,0.065,
6411,-0.36,0.03,
6412,-0.345,0.05,
6413,-0.32,0.05,
6414,-0.31,0.06,
6415,-0.3,0.04,
6416,-0.305,0.015,
6417,-0.315,-0.005,
6418,-0.305,0.005,
6419,-0.285,0.015,
6420,-0.26,0.025,
6421,-0.255,0.03,
6422,-0.265,-0.005,
6423,-0.275,-0.01,
6424,-0.275,0.005,
6425,-0.255,0.015,
6426,-0.23,0.005,
6427,-0.22,-0.015,
6428,-0.225,-0.025,
6429,-0.22,-0.02,
6430,-0.205,-0.03,
6431,-0.19,-0.02,
6432,-0.17,-0.02,
6433,-0.15,-0.05,
6434,-0.175,-0.055,
6435,-0.16,-0.05,
6436,-0.155,-0.035,
6437,-0.135,-0.045,
6438,-0.115,-0.06,
6439,-0.11,-0.085,
6440,-0.11,-0.11,
6441,-0.12,-0.115,
6442,-0.11,-0.11,
6443,-0.1,-0.1,
6444,-0.085,-0.1,
6445,-0.075,-0.115,
6446,-0.07,-0.14,
6447,-0.09,-0.15,
6448,-0.095,-0.145,
6449,-0.09,-0.13,
6450,-0.06,-0.135,
6451,-0.07,-0.14,
6452,-0.085,-0.145,
6453,-0.105,-0.15,
6454,-0.095,-0.14,
6455,-0.09,-0.115,
6456,-0.09,-0.095,
6457,-0.095,-0.09,
6458,-0.11,-0.085,
6459,-0.135,-0.08,
6460,-0.15,-0.06,
6461,-0.16,-0.04,
6462,-0.155,-0.025,
6463,-0.16,-0.035,
6464,-0.185,-0.05,
6465,-0.195,-0.03,
6466,-0.215,0.0,
6467,-0.215,0.02,
6468,-0.21,0.03,
6469,-0.24,0.035,
6470,-0.25,0.035,
6471,-0.26,0.045,
6472,-0.25,0.055,
6473,-0.235,0.07,
6474,-0.225,0.085,
6475,-0.25,0.105,
6476,-0.255,0.085,
6477,-0.28,0.075,
6478,-0.27,0.075,
6479,-0.255,0.09,
6480,-0.26,0.105,
6481,-0.25,0.1,
6482,-0.245,0.09,
6483,-0.255,0.095,
6484,-0.26,0.11,
6485,-0.25,0.12,
6486,-0.22,0.12,
6487,-0.215,0.12,
6488,-0.205,0.11,
6489,-0.19,0.1,
6490,-0.16,0.125,
6491,-0.14,0.15,
6492,-0.115,0.16,
6493,-0.075,0.17,
6494,-0.055,0.155,
6495,-0.025,0.15,
6496,0.06,0.135,
6497,0.15,0.085,
6498,0.22,0.015,
6499,0.265,-0.075,
6500,0.325,-0.15,
6501,0.39,-0.205,
6502,0.485,-0.26,
6503,0.59,-0.33,
6504,0.68,-0.41,
6505,0.775,-0.51,
6506,0.875,-0.615,
6507,0.975,-0.735,
6508,1.07,-0.825,
6509,1.17,-0.905,
6510,1.21,-0.96,
6511,1.215,-1.0,
6512,1.18,-1.01,V
6513,1.145,-0.995,
6514,1.13,-0.995,
6515,1.105,-0.99,
6516,1.08,-0.995,
6517,0.995,-0.99,
6518,0.855,-1.0,
6519,0.72,-0.98,
6520,0.58,-0.945,
6521,0.47,-0.885,
6522,0.365,-0.815,
6523,0.24,-0.765,
6524,0.13,-0.715,
6525,0.045,-0.655,
6526,0.025,-0.585,
6527,0.035,-0.495,
6528,0.045,-0.43,
6529,0.015,-0.38,
6530,0.005,-0.335,
6531,0.02,-0.28,
6532,0.115,-0.215,
6533,0.235,-0.15,
6534,0.345,-0.11,
6535,0.325,-0.095,
6536,0.2,-0.075,
6537,0.015,-0.05,
6538,-0.2,0.005,
6539,-0.36,0.075,
6540,-0.435,0.125,
6541,-0.485,0.175,
6542,-0.51,0.21,
6543,-0.54,0.225,
6544,-0.555,0.24,
6545,-0.565,0.255,
6546,-0.58,0.265,
6547,-0.605,0.28,
6548,-0.635,0.285,
6549,-0.685,0.305,
6550,-0.69,0.305,
6551,-0.7,0.33,
6552,-0.69,0.31,
6553,-0.715,0.31,
6554,-0.725,0.31,
6555,-0.75,0.32,
6556,-0.765,0.33,
6557,-0.755,0.345,
6558,-0.75,0.345,
6559,-0.755,0.34,
6560,-0.775,0.34,
6561,-0.785,0.345,
6562,-0.79,0.345,
6563,-0.775,0.365,
6564,-0.765,0.375,
6565,-0.77,0.37,
6566,-0.78,0.385,
6567,-0.79,0.385,
6568,-0.785,0.405,
6569,-0.785,0.415,
6570,-0.77,0.435,
6571,-0.765,0.45,
6572,-0.795,0.45,
6573,-0.795,0.455,
6574,-0.795,0.48,
6575,-0.795,0.485,
6576,-0.79,0.5,
6577,-0.775,0.515,
6578,-0.795,0.51,
6579,-0.795,0.525,
6580,-0.79,0.55,
6581,-0.775,0.585,
6582,-0.77,0.6,
6583,-0.76,0.625,
6584,-0.77,0.595,
6585,-0.78,0.595,
6586,-0.765,0.61,
6587,-0.75,0.625,
6588,-0.74,0.61,
6589,-0.745,0.595,
6590,-0.75,0.57,
6591,-0.755,0.575,
6592,-0.755,0.585,
6593,-0.725,0.61,
6594,-0.705,0.635,
6595,-0.685,0.635,
6596,-0.71,0.605,
6597,-0.705,0.585,
6598,-0.705,0.59,
6599,-0.665,0.585,
6600,-0.645,0.585,
6601,-0.625,0.57,
6602,-0.62,0.56,
6603,-0.605,0.54,
6604,-0.585,0.535,
6605,-0.545,0.525,
6606,-0.51,0.52,
6607,-0.49,0.49,
6608,-0.48,0.455,
6609,-0.48,0.425,
6610,-0.47,0.415,
6611,-0.435,0.395,
6612,-0.415,0.365,
6613,-0.4,0.33,
6614,-0.395,0.31,
6615,-0.405,0.29,
6616,-0.405,0.29,
6617,-0.385,0.29,
6618,-0.345,0.27,
6619,-0.34,0.24,
6620,-0.34,0.2,
6621,-0.35,0.175,
6622,-0.35,0.18,
6623,-0.33,0.18,
6624,-0.33,0.175,
6625,-0.335,0.16,
6626,-0.345,0.145,
6627,-0.355,0.145,
6628,-0.355,0.155,
6629,-0.345,0.17,
6630,-0.325,0.17,
6631,-0.335,0.16,
6632,-0.355,0.115,
6633,-0.365,0.1,
6634,-0.375,0.105,
6635,-0.355,0.115,
6636,-0.345,0.12,
6637,-0.33,0.11,
6638,-0.34,0.095,
6639,-0.36,0.075,
6640,-0.345,0.075,
6641,-0.325,0.075,
6642,-0.33,0.075,
6643,-0.33,0.07,
6644,-0.35,0.055,
6645,-0.375,0.055,
6646,-0.37,0.07,
6647,-0.355,0.09,
6648,-0.335,0.075,
6649,-0.34,0.05,
6650,-0.345,0.03,
6651,-0.34,0.025,
6652,-0.345,0.03,
6653,-0.33,0.04,
6654,-0.315,0.035,
6655,-0.32,0.03,
6656,-0.325,0.015,
6657,-0.32,0.01,
6658,-0.315,0.02,
6659,-0.305,0.035,
6660,-0.29,0.05,
6661,-0.315,0.045,
6662,-0.32,0.035,
6663,-0.325,0.035,
6664,-0.315,0.035,
6665,-0.295,0.055,
6666,-0.275,0.055,
6667,-0.285,0.04,
6668,-0.295,0.025,
6669,-0.305,0.03,
6670,-0.305,0.04,
6671,-0.3,0.055,
6672,-0.27,0.06,
6673,-0.27,0.05,
6674,-0.285,0.045,
6675,-0.3,0.045,
6676,-0.31,0.055,
6677,-0.3,0.055,
6678,-0.285,0.065,
6679,-0.295,0.05,
6680,-0.295,0.025,
6681,-0.31,0.025,
6682,-0.305,0.055,
6683,-0.295,0.06,
6684,-0.285,0.075,
6685,-0.285,0.07,
6686,-0.285,0.065,
6687,-0.295,0.07,
6688,-0.295,0.055,
6689,-0.28,0.055,
6690,-0.28,0.05,
6691,-0.29,0.02,
6692,-0.285,-0.005,
6693,-0.315,-0.01,
6694,-0.315,0.0,
6695,-0.325,0.025,
6696,-0.31,0.03,
6697,-0.31,0.02,
6698,-0.305,0.005,
6699,-0.32,-0.005,
6700,-0.31,0.0,
6701,-0.31,0.02,
6702,-0.28,0.01,
6703,-0.285,0.01,
6704,-0.315,0.005,
6705,-0.31,0.0,
6706,-0.305,0.005,
6707,-0.29,0.02,
6708,-0.285,0.02,
6709,-0.295,0.015,
6710,-0.32,0.005,
6711,-0.325,0.0,
6712,-0.315,0.005,
6713,-0.305,0.03,
6714,-0.295,0.035,
6715,-0.305,0.035,
6716,-0.315,0.035,
6717,-0.33,0.025,
6718,-0.325,0.04,
6719,-0.32,0.045,
6720,-0.3,0.07,
6721,-0.3,0.075,
6722,-0.315,0.05,
6723,-0.325,0.015,
6724,-0.33,-0.005,
6725,-0.32,-0.01,
6726,-0.3,-0.01,
6727,-0.305,-0.01,
6728,-0.315,-0.025,
6729,-0.33,-0.02,
6730,-0.34,-0.01,
6731,-0.325,0.01,
6732,-0.32,0.03,
