,MLII,V1,symbol
0,-0.14,-0.375,
1,-0.14,-0.375,
2,-0.14,-0.375,
3,-0.14,-0.375,
4,-0.14,-0.375,
5,-0.14,-0.375,
6,-0.14,-0.375,
7,-0.14,-0.375,
8,-0.14,-0.35,
9,-0.115,-0.355,
10,-0.14,-0.37,
11,-0.14,-0.385,
12,-0.155,-0.385,
13,-0.145,-0.365,
14,-0.13,-0.36,
15,-0.11,-0.36,
16,-0.125,-0.36,
17,-0.125,-0.375,+
18,-0.13,-0.36,
19,-0.125,-0.35,
20,-0.1,-0.335,
21,-0.075,-0.32,
22,-0.075,-0.32,
23,-0.07,-0.34,
24,-0.075,-0.325,
25,-0.07,-0.32,
26,-0.06,-0.295,
27,-0.025,-0.28,
28,-0.02,-0.285,
29,-0.005,-0.29,
30,0.005,-0.3,
31,0.05,-0.31,
32,0.115,-0.33,
33,0.16,-0.36,
34,0.17,-0.38,
35,0.175,-0.38,
36,0.165,-0.39,
37,0.17,-0.38,
38,0.15,-0.38,
39,0.185,-0.38,
40,0.135,-0.385,
41,0.105,-0.39,
42,0.08,-0.39,
43,0.065,-0.365,
44,0.06,-0.355,
45,0.06,-0.345,
46,0.015,-0.38,
47,-0.025,-0.395,
48,-0.07,-0.405,
49,-0.09,-0.395,
50,-0.12,-0.375,
51,-0.13,-0.385,
52,-0.12,-0.395,
53,-0.15,-0.415,
54,-0.17,-0.4,
55,-0.175,-0.395,
56,-0.165,-0.39,
57,-0.145,-0.385,
58,-0.155,-0.4,
59,-0.16,-0.395,
60,-0.16,-0.385,
61,-0.15,-0.375,
62,-0.14,-0.38,
63,-0.12,-0.385,
64,-0.14,-0.395,
65,-0.155,-0.39,
66,-0.155,-0.375,
67,-0.135,-0.335,
68,-0.13,-0.285,
69,-0.11,-0.245,
70,-0.105,-0.255,
71,-0.13,-0.33,
72,-0.14,-0.44,
73,-0.14,-0.585,
74,-0.14,-0.79,
75,-0.1,-1.025,
76,0.02,-1.21,
77,0.18,-1.345,
78,0.38,-1.38,
79,0.605,-1.31,
80,0.79,-1.195,
81,0.895,-1.075,N
82,0.84,-0.93,
83,0.59,-0.78,
84,0.225,-0.635,
85,-0.055,-0.475,
86,-0.185,-0.36,
87,-0.19,-0.31,
88,-0.195,-0.295,
89,-0.16,-0.29,
90,-0.135,-0.295,
91,-0.125,-0.28,
92,-0.1,-0.275,
93,-0.1,-0.28,
94,-0.12,-0.29,
95,-0.135,-0.305,
96,-0.155,-0.29,
97,-0.15,-0.285,
98,-0.125,-0.285,
99,-0.105,-0.295,
100,-0.1,-0.3,
101,-0.115,-0.305,
102,-0.125,-0.305,
103,-0.12,-0.295,
104,-0.1,-0.295,
105,-0.095,-0.29,
106,-0.105,-0.3,
107,-0.115,-0.33,
108,-0.12,-0.32,
109,-0.11,-0.305,
110,-0.105,-0.29,
111,-0.095,-0.295,
112,-0.095,-0.305,
113,-0.11,-0.315,
114,-0.11,-0.32,
115,-0.105,-0.305,
116,-0.09,-0.295,
117,-0.085,-0.31,
118,-0.09,-0.31,
119,-0.115,-0.32,
120,-0.105,-0.325,
121,-0.09,-0.305,
122,-0.085,-0.3,
123,-0.085,-0.285,
124,-0.085,-0.31,
125,-0.09,-0.315,
126,-0.1,-0.31,
127,-0.095,-0.295,
128,-0.08,-0.285,
129,-0.06,-0.285,
130,-0.075,-0.295,
131,-0.08,-0.315,
132,-0.085,-0.32,
133,-0.075,-0.3,
134,-0.07,-0.285,
135,-0.055,-0.29,
136,-0.07,-0.305,
137,-0.085,-0.3,
138,-0.08,-0.31,
139,-0.085,-0.295,
140,-0.055,-0.3,
141,-0.04,-0.29,
142,-0.05,-0.295,
143,-0.065,-0.305,
144,-0.06,-0.305,
145,-0.065,-0.295,
146,-0.05,-0.285,
147,-0.035,-0.29,
148,-0.045,-0.29,
149,-0.045,-0.29,
150,-0.045,-0.305,
151,-0.045,-0.29,
152,-0.03,-0.27,
153,-0.035,-0.265,
154,-0.02,-0.285,
155,-0.04,-0.295,
156,-0.05,-0.31,
157,-0.055,-0.29,
158,-0.03,-0.28,
159,-0.025,-0.27,
160,-0.03,-0.29,
161,-0.055,-0.3,
162,-0.055,-0.295,
163,-0.05,-0.28,
164,-0.04,-0.27,
165,-0.04,-0.29,
166,-0.05,-0.295,
167,-0.065,-0.3,
168,-0.085,-0.295,
169,-0.08,-0.295,
170,-0.08,-0.28,
171,-0.07,-0.285,
172,-0.07,-0.31,
173,-0.08,-0.315,
174,-0.09,-0.315,
175,-0.09,-0.31,
176,-0.095,-0.31,
177,-0.09,-0.3,
178,-0.09,-0.31,
179,-0.115,-0.32,
180,-0.135,-0.33,
181,-0.115,-0.325,
182,-0.105,-0.32,
183,-0.1,-0.33,
184,-0.11,-0.335,
185,-0.125,-0.34,
186,-0.14,-0.335,
187,-0.14,-0.33,
188,-0.12,-0.32,
189,-0.115,-0.33,
190,-0.13,-0.345,
191,-0.135,-0.36,
192,-0.15,-0.36,
193,-0.145,-0.34,
194,-0.13,-0.325,
195,-0.13,-0.335,
196,-0.145,-0.34,
197,-0.15,-0.375,
198,-0.16,-0.36,
199,-0.15,-0.35,
200,-0.13,-0.335,
201,-0.125,-0.335,
202,-0.125,-0.35,
203,-0.155,-0.37,
204,-0.155,-0.36,
205,-0.155,-0.35,
206,-0.14,-0.34,
207,-0.125,-0.35,
208,-0.13,-0.355,
209,-0.135,-0.37,
210,-0.15,-0.36,
211,-0.155,-0.345,
212,-0.135,-0.34,
213,-0.13,-0.34,
214,-0.135,-0.35,
215,-0.14,-0.365,
216,-0.165,-0.36,
217,-0.15,-0.36,
218,-0.135,-0.34,
219,-0.125,-0.33,
220,-0.145,-0.35,
221,-0.15,-0.36,
222,-0.16,-0.365,
223,-0.155,-0.355,
224,-0.135,-0.345,
225,-0.14,-0.35,
226,-0.15,-0.355,
227,-0.145,-0.375,
228,-0.16,-0.365,
229,-0.155,-0.36,
230,-0.15,-0.335,
231,-0.13,-0.35,
232,-0.125,-0.365,
233,-0.145,-0.385,
234,-0.15,-0.375,
235,-0.145,-0.365,
236,-0.135,-0.36,
237,-0.12,-0.355,
238,-0.13,-0.36,
239,-0.13,-0.37,
240,-0.15,-0.38,
241,-0.13,-0.355,
242,-0.125,-0.365,
243,-0.11,-0.35,
244,-0.12,-0.365,
245,-0.135,-0.385,
246,-0.14,-0.385,
247,-0.13,-0.355,
248,-0.115,-0.35,
249,-0.105,-0.36,
250,-0.11,-0.365,
251,-0.115,-0.375,
252,-0.125,-0.38,
253,-0.125,-0.36,
254,-0.105,-0.355,
255,-0.1,-0.34,
256,-0.105,-0.355,
257,-0.11,-0.365,
258,-0.12,-0.375,
259,-0.11,-0.365,
260,-0.1,-0.35,
261,-0.08,-0.355,
262,-0.085,-0.36,
263,-0.12,-0.385,
264,-0.11,-0.38,
265,-0.105,-0.37,
266,-0.105,-0.355,
267,-0.09,-0.36,
268,-0.085,-0.375,
269,-0.105,-0.38,
270,-0.12,-0.365,
271,-0.105,-0.365,
272,-0.105,-0.355,
273,-0.09,-0.355,
274,-0.09,-0.365,
275,-0.115,-0.39,
276,-0.13,-0.38,
277,-0.11,-0.37,
278,-0.095,-0.355,
279,-0.085,-0.355,
280,-0.095,-0.365,
281,-0.095,-0.385,
282,-0.12,-0.38,
283,-0.1,-0.37,
284,-0.09,-0.35,
285,-0.1,-0.36,
286,-0.095,-0.37,
287,-0.105,-0.38,
288,-0.11,-0.385,
289,-0.1,-0.37,
290,-0.09,-0.355,
291,-0.07,-0.36,
292,-0.085,-0.37,
293,-0.095,-0.365,
294,-0.11,-0.375,
295,-0.09,-0.365,
296,-0.085,-0.35,
297,-0.075,-0.34,
298,-0.085,-0.36,
299,-0.095,-0.375,
300,-0.125,-0.36,
301,-0.09,-0.34,
302,-0.07,-0.325,
303,-0.055,-0.32,
304,-0.06,-0.325,
305,-0.045,-0.335,
306,-0.055,-0.32,
307,-0.05,-0.31,
308,-0.02,-0.29,
309,-0.005,-0.285,
310,0.0,-0.295,
311,0.02,-0.29,
312,0.02,-0.285,
313,0.05,-0.29,
314,0.115,-0.31,
315,0.175,-0.34,
316,0.2,-0.38,
317,0.2,-0.4,
318,0.18,-0.41,
319,0.2,-0.4,
320,0.205,-0.385,
321,0.19,-0.385,
322,0.145,-0.395,
323,0.115,-0.4,
324,0.095,-0.385,
325,0.075,-0.36,
326,0.07,-0.35,
327,0.065,-0.37,
328,0.02,-0.385,
329,-0.02,-0.395,
330,-0.075,-0.395,
331,-0.085,-0.405,
332,-0.105,-0.395,
333,-0.1,-0.395,
334,-0.12,-0.41,
335,-0.16,-0.41,
336,-0.16,-0.405,
337,-0.155,-0.395,
338,-0.145,-0.395,
339,-0.13,-0.395,
340,-0.145,-0.4,
341,-0.155,-0.41,
342,-0.15,-0.41,
343,-0.145,-0.41,
344,-0.135,-0.39,
345,-0.115,-0.38,
346,-0.12,-0.375,
347,-0.115,-0.375,
348,-0.125,-0.34,
349,-0.13,-0.29,
350,-0.115,-0.27,
351,-0.105,-0.3,
352,-0.1,-0.395,
353,-0.115,-0.55,
354,-0.155,-0.755,
355,-0.14,-0.99,
356,-0.04,-1.18,
357,0.14,-1.325,
358,0.365,-1.34,
359,0.57,-1.285,
360,0.735,-1.16,
361,0.805,-0.995,N
362,0.725,-0.83,
363,0.465,-0.665,
364,0.15,-0.54,
365,-0.075,-0.435,
366,-0.175,-0.37,
367,-0.175,-0.34,
368,-0.14,-0.31,
369,-0.11,-0.31,
370,-0.105,-0.33,
371,-0.135,-0.345,
372,-0.155,-0.36,
373,-0.16,-0.34,
374,-0.13,-0.33,
375,-0.12,-0.33,
376,-0.12,-0.35,
377,-0.14,-0.365,
378,-0.15,-0.36,
379,-0.16,-0.35,
380,-0.14,-0.34,
381,-0.12,-0.345,
382,-0.125,-0.345,
383,-0.135,-0.375,
384,-0.16,-0.355,
385,-0.155,-0.35,
386,-0.125,-0.34,
387,-0.11,-0.34,
388,-0.12,-0.355,
389,-0.13,-0.37,
390,-0.12,-0.375,
391,-0.105,-0.375,
392,-0.1,-0.355,
393,-0.075,-0.36,
394,-0.075,-0.37,
395,-0.08,-0.39,
396,-0.095,-0.39,
397,-0.085,-0.37,
398,-0.075,-0.36,
399,-0.055,-0.365,
400,-0.055,-0.36,
401,-0.075,-0.375,
402,-0.07,-0.375,
403,-0.075,-0.36,
404,-0.08,-0.345,
405,-0.07,-0.34,
406,-0.085,-0.36,
407,-0.1,-0.365,
408,-0.11,-0.34,
409,-0.1,-0.335,
410,-0.115,-0.325,
411,-0.085,-0.335,
412,-0.085,-0.33,
413,-0.105,-0.365,
414,-0.11,-0.35,
415,-0.12,-0.335,
416,-0.12,-0.325,
417,-0.105,-0.315,
418,-0.115,-0.325,
419,-0.12,-0.33,
420,-0.135,-0.325,
421,-0.105,-0.32,
422,-0.1,-0.3,
423,-0.085,-0.305,
424,-0.095,-0.305,
425,-0.115,-0.315,
426,-0.115,-0.315,
427,-0.12,-0.3,
428,-0.11,-0.295,
429,-0.095,-0.31,
430,-0.095,-0.32,
431,-0.105,-0.325,
432,-0.12,-0.32,
433,-0.11,-0.3,
434,-0.1,-0.285,
435,-0.085,-0.28,
436,-0.105,-0.3,
437,-0.12,-0.31,
438,-0.125,-0.31,
439,-0.12,-0.315,
440,-0.13,-0.295,
441,-0.115,-0.31,
442,-0.125,-0.31,
443,-0.15,-0.325,
444,-0.175,-0.33,
445,-0.17,-0.32,
446,-0.14,-0.305,
447,-0.145,-0.315,
448,-0.155,-0.33,
449,-0.175,-0.35,
450,-0.185,-0.34,
451,-0.205,-0.335,
452,-0.21,-0.335,
453,-0.19,-0.34,
454,-0.2,-0.345,
455,-0.21,-0.365,
456,-0.22,-0.365,
457,-0.23,-0.36,
458,-0.21,-0.335,
459,-0.19,-0.355,
460,-0.195,-0.355,
461,-0.21,-0.38,
462,-0.24,-0.36,
463,-0.235,-0.365,
464,-0.235,-0.35,
465,-0.21,-0.365,
466,-0.22,-0.365,
467,-0.225,-0.365,
468,-0.245,-0.365,
469,-0.235,-0.355,
470,-0.225,-0.355,
471,-0.22,-0.35,
472,-0.235,-0.35,
473,-0.245,-0.365,
474,-0.26,-0.375,
475,-0.255,-0.35,
476,-0.245,-0.35,
477,-0.23,-0.36,
478,-0.23,-0.37,
479,-0.25,-0.385,
480,-0.27,-0.375,
481,-0.25,-0.36,
482,-0.25,-0.35,
483,-0.26,-0.36,
484,-0.26,-0.365,
485,-0.275,-0.375,
486,-0.29,-0.36,
487,-0.285,-0.365,
488,-0.265,-0.35,
489,-0.26,-0.355,
490,-0.255,-0.37,
491,-0.265,-0.38,
492,-0.275,-0.38,
493,-0.265,-0.37,
494,-0.27,-0.365,
495,-0.265,-0.365,
496,-0.255,-0.385,
497,-0.265,-0.395,
498,-0.28,-0.38,
499,-0.265,-0.365,
500,-0.265,-0.36,
501,-0.25,-0.375,
502,-0.26,-0.385,
503,-0.27,-0.4,
504,-0.27,-0.4,
505,-0.255,-0.375,
506,-0.245,-0.35,
507,-0.225,-0.365,
508,-0.225,-0.375,
509,-0.26,-0.395,
510,-0.265,-0.39,
511,-0.26,-0.39,
512,-0.255,-0.38,
513,-0.245,-0.395,
514,-0.235,-0.395,
515,-0.27,-0.405,
516,-0.25,-0.405,
517,-0.25,-0.395,
518,-0.225,-0.375,
519,-0.225,-0.39,
520,-0.225,-0.4,
521,-0.235,-0.415,
522,-0.245,-0.41,
523,-0.24,-0.4,
524,-0.23,-0.385,
525,-0.225,-0.39,
526,-0.235,-0.415,
527,-0.24,-0.425,
528,-0.25,-0.415,
529,-0.245,-0.4,
530,-0.245,-0.39,
531,-0.19,-0.39,
532,-0.215,-0.4,
533,-0.215,-0.415,
534,-0.235,-0.41,
535,-0.225,-0.395,
536,-0.225,-0.405,
537,-0.22,-0.39,
538,-0.2,-0.405,
539,-0.22,-0.43,
540,-0.23,-0.43,
541,-0.235,-0.41,
542,-0.22,-0.395,
543,-0.205,-0.405,
544,-0.205,-0.405,
545,-0.195,-0.415,
546,-0.23,-0.42,
547,-0.205,-0.4,
548,-0.2,-0.39,
549,-0.19,-0.385,
550,-0.195,-0.405,
551,-0.215,-0.42,
552,-0.215,-0.415,
553,-0.2,-0.4,
554,-0.19,-0.38,
555,-0.17,-0.39,
556,-0.175,-0.4,
557,-0.185,-0.42,
558,-0.21,-0.425,
559,-0.19,-0.405,
560,-0.185,-0.385,
561,-0.185,-0.39,
562,-0.19,-0.4,
563,-0.185,-0.415,
564,-0.2,-0.42,
565,-0.2,-0.39,
566,-0.18,-0.39,
567,-0.18,-0.395,
568,-0.175,-0.405,
569,-0.2,-0.41,
570,-0.195,-0.41,
571,-0.2,-0.385,
572,-0.19,-0.385,
573,-0.19,-0.385,
574,-0.175,-0.4,
575,-0.18,-0.405,
576,-0.2,-0.41,
577,-0.195,-0.4,
578,-0.165,-0.38,
579,-0.155,-0.38,
580,-0.175,-0.405,
581,-0.195,-0.405,
582,-0.195,-0.395,
583,-0.185,-0.39,
584,-0.165,-0.375,
585,-0.15,-0.385,
586,-0.145,-0.375,
587,-0.15,-0.385,
588,-0.17,-0.365,
589,-0.15,-0.345,
590,-0.135,-0.33,
591,-0.105,-0.33,
592,-0.11,-0.335,
593,-0.11,-0.355,
594,-0.1,-0.355,
595,-0.08,-0.345,
596,-0.055,-0.335,
597,-0.015,-0.35,
598,0.0,-0.38,
599,0.02,-0.415,
600,0.03,-0.43,
601,0.055,-0.44,
602,0.065,-0.415,
603,0.09,-0.425,
604,0.09,-0.44,
605,0.065,-0.45,
606,0.045,-0.435,
607,0.05,-0.42,
608,0.03,-0.405,
609,0.03,-0.395,
610,-0.01,-0.395,
611,-0.025,-0.41,
612,-0.05,-0.395,
613,-0.07,-0.39,
614,-0.09,-0.385,
615,-0.09,-0.395,
616,-0.145,-0.39,
617,-0.175,-0.415,
618,-0.185,-0.415,
619,-0.205,-0.42,
620,-0.205,-0.385,
621,-0.2,-0.395,
622,-0.2,-0.42,
623,-0.2,-0.42,
624,-0.21,-0.425,
625,-0.215,-0.395,
626,-0.2,-0.39,
627,-0.19,-0.38,
628,-0.19,-0.395,
629,-0.195,-0.405,
630,-0.205,-0.4,
631,-0.185,-0.365,
632,-0.18,-0.33,
633,-0.17,-0.31,
634,-0.165,-0.33,
635,-0.18,-0.35,
636,-0.19,-0.43,
637,-0.195,-0.505,
638,-0.21,-0.61,
639,-0.23,-0.775,
640,-0.215,-0.945,
641,-0.145,-1.105,
642,-0.005,-1.2,
643,0.19,-1.22,
644,0.415,-1.17,
645,0.615,-1.075,
646,0.695,-0.96,N
647,0.58,-0.835,
648,0.275,-0.69,
649,-0.02,-0.535,
650,-0.195,-0.415,
651,-0.26,-0.35,
652,-0.25,-0.325,
653,-0.245,-0.335,
654,-0.205,-0.325,
655,-0.165,-0.305,
656,-0.155,-0.29,
657,-0.14,-0.295,
658,-0.155,-0.305,
659,-0.18,-0.325,
660,-0.195,-0.325,
661,-0.19,-0.305,
662,-0.185,-0.305,
663,-0.165,-0.3,
664,-0.19,-0.315,
665,-0.18,-0.325,
666,-0.2,-0.325,
667,-0.185,-0.3,
668,-0.175,-0.295,
669,-0.17,-0.29,
670,-0.175,-0.305,
671,-0.175,-0.32,
672,-0.18,-0.305,
673,-0.16,-0.295,
674,-0.16,-0.3,
675,-0.15,-0.28,
676,-0.15,-0.295,
677,-0.155,-0.3,
678,-0.16,-0.315,
679,-0.155,-0.29,
680,-0.145,-0.29,
681,-0.125,-0.29,
682,-0.135,-0.305,
683,-0.15,-0.315,
684,-0.155,-0.305,
685,-0.15,-0.295,
686,-0.135,-0.29,
687,-0.12,-0.285,
688,-0.12,-0.29,
689,-0.13,-0.305,
690,-0.145,-0.305,
691,-0.13,-0.29,
692,-0.125,-0.28,
693,-0.12,-0.29,
694,-0.115,-0.29,
695,-0.125,-0.315,
696,-0.145,-0.305,
697,-0.135,-0.3,
698,-0.13,-0.28,
699,-0.11,-0.295,
700,-0.115,-0.295,
701,-0.11,-0.31,
702,-0.135,-0.31,
703,-0.13,-0.295,
704,-0.105,-0.29,
705,-0.09,-0.285,
706,-0.1,-0.295,
707,-0.11,-0.305,
708,-0.125,-0.3,
709,-0.1,-0.29,
710,-0.09,-0.275,
711,-0.085,-0.27,
712,-0.095,-0.285,
713,-0.095,-0.305,
714,-0.095,-0.295,
715,-0.1,-0.285,
716,-0.095,-0.28,
717,-0.085,-0.28,
718,-0.075,-0.29,
719,-0.1,-0.305,
720,-0.095,-0.3,
721,-0.095,-0.295,
722,-0.085,-0.275,
723,-0.08,-0.29,
724,-0.08,-0.29,
725,-0.11,-0.315,
726,-0.135,-0.315,
727,-0.12,-0.295,
728,-0.12,-0.285,
729,-0.105,-0.285,
730,-0.115,-0.305,
731,-0.135,-0.31,
732,-0.145,-0.305,
733,-0.16,-0.31,
734,-0.135,-0.3,
735,-0.14,-0.3,
736,-0.16,-0.305,
737,-0.165,-0.32,
738,-0.185,-0.315,
739,-0.17,-0.31,
740,-0.16,-0.305,
741,-0.15,-0.3,
742,-0.16,-0.325,
743,-0.155,-0.325,
744,-0.175,-0.32,
745,-0.175,-0.31,
746,-0.15,-0.295,
747,-0.145,-0.295,
748,-0.155,-0.31,
749,-0.155,-0.32,
750,-0.18,-0.32,
751,-0.16,-0.305,
752,-0.165,-0.295,
753,-0.15,-0.305,
754,-0.155,-0.32,
755,-0.17,-0.315,
756,-0.185,-0.325,
757,-0.17,-0.305,
758,-0.17,-0.285,
759,-0.16,-0.29,
760,-0.165,-0.32,
761,-0.18,-0.32,
762,-0.19,-0.325,
763,-0.185,-0.32,
764,-0.155,-0.305,
765,-0.155,-0.31,
766,-0.175,-0.31,
767,-0.19,-0.325,
768,-0.19,-0.32,
769,-0.18,-0.3,
770,-0.175,-0.305,
771,-0.16,-0.315,
772,-0.16,-0.315,
773,-0.185,-0.345,
774,-0.185,-0.325,
775,-0.195,-0.325,
776,-0.17,-0.31,
777,-0.17,-0.305,
778,-0.175,-0.33,
779,-0.185,-0.33,
780,-0.185,-0.335,
781,-0.185,-0.34,
782,-0.17,-0.31,
783,-0.155,-0.31,
784,-0.165,-0.315,
785,-0.17,-0.345,
786,-0.19,-0.34,
787,-0.18,-0.325,
788,-0.17,-0.31,
789,-0.16,-0.33,
790,-0.155,-0.335,
791,-0.175,-0.345,
792,-0.18,-0.34,
793,-0.18,-0.33,
794,-0.155,-0.325,
795,-0.16,-0.315,
796,-0.16,-0.325,
797,-0.165,-0.345,
798,-0.165,-0.345,
799,-0.155,-0.325,
800,-0.15,-0.31,
801,-0.125,-0.32,
802,-0.13,-0.345,
803,-0.155,-0.345,
804,-0.17,-0.345,
805,-0.165,-0.33,
806,-0.15,-0.315,
807,-0.13,-0.32,
808,-0.145,-0.325,
809,-0.155,-0.335,
810,-0.17,-0.34,
811,-0.16,-0.33,
812,-0.155,-0.325,
813,-0.145,-0.32,
814,-0.145,-0.345,
815,-0.17,-0.355,
816,-0.165,-0.345,
817,-0.15,-0.33,
818,-0.145,-0.31,
819,-0.14,-0.32,
820,-0.145,-0.33,
821,-0.155,-0.34,
822,-0.175,-0.34,
823,-0.16,-0.33,
824,-0.14,-0.31,
825,-0.115,-0.325,
826,-0.135,-0.33,
827,-0.15,-0.335,
828,-0.15,-0.34,
829,-0.15,-0.34,
830,-0.125,-0.31,
831,-0.115,-0.305,
832,-0.115,-0.31,
833,-0.13,-0.34,
834,-0.15,-0.325,
835,-0.14,-0.315,
836,-0.14,-0.315,
837,-0.12,-0.3,
838,-0.115,-0.295,
839,-0.115,-0.31,
840,-0.11,-0.305,
841,-0.1,-0.28,
842,-0.07,-0.27,
843,-0.05,-0.265,
844,-0.045,-0.27,
845,-0.04,-0.28,
846,-0.06,-0.265,
847,-0.04,-0.26,
848,-0.005,-0.25,
849,0.055,-0.25,
850,0.11,-0.305,
851,0.14,-0.32,
852,0.155,-0.34,
853,0.16,-0.315,
854,0.15,-0.305,
855,0.17,-0.315,
856,0.16,-0.33,
857,0.125,-0.345,
858,0.095,-0.34,
859,0.08,-0.335,
860,0.065,-0.31,
861,0.085,-0.32,
862,0.065,-0.32,
863,0.02,-0.345,
864,-0.025,-0.345,
865,-0.07,-0.335,
866,-0.095,-0.335,
867,-0.11,-0.33,
868,-0.13,-0.335,
869,-0.165,-0.36,
870,-0.175,-0.355,
871,-0.185,-0.34,
872,-0.165,-0.335,
873,-0.15,-0.335,
874,-0.155,-0.345,
875,-0.175,-0.355,
876,-0.18,-0.345,
877,-0.16,-0.325,
878,-0.17,-0.315,
879,-0.14,-0.305,
880,-0.13,-0.29,
881,-0.145,-0.3,
882,-0.16,-0.31,
883,-0.16,-0.38,
884,-0.16,-0.505,
885,-0.16,-0.69,
886,-0.145,-0.865,
887,-0.065,-1.005,
888,0.115,-1.07,
889,0.36,-1.06,
890,0.575,-1.005,
891,0.735,-0.945,
892,0.795,-0.875,N
893,0.76,-0.785,
894,0.56,-0.7,
895,0.31,-0.58,
896,0.05,-0.47,
897,-0.12,-0.395,
898,-0.215,-0.34,
899,-0.245,-0.31,
900,-0.23,-0.265,
901,-0.19,-0.255,
902,-0.15,-0.235,
903,-0.12,-0.23,
904,-0.12,-0.245,
905,-0.155,-0.25,
906,-0.17,-0.255,
907,-0.165,-0.23,
908,-0.15,-0.215,
909,-0.14,-0.235,
910,-0.16,-0.245,
911,-0.16,-0.26,
912,-0.16,-0.255,
913,-0.16,-0.245,
914,-0.15,-0.225,
915,-0.14,-0.22,
916,-0.14,-0.23,
917,-0.155,-0.24,
918,-0.155,-0.25,
919,-0.155,-0.235,
920,-0.14,-0.225,
921,-0.13,-0.225,
922,-0.125,-0.235,
923,-0.125,-0.24,
924,-0.135,-0.245,
925,-0.14,-0.23,
926,-0.12,-0.215,
927,-0.12,-0.215,
928,-0.115,-0.24,
929,-0.12,-0.255,
930,-0.125,-0.235,
931,-0.12,-0.23,
932,-0.1,-0.225,
933,-0.09,-0.23,
934,-0.095,-0.235,
935,-0.11,-0.26,
936,-0.105,-0.245,
937,-0.12,-0.235,
938,-0.1,-0.225,
939,-0.095,-0.225,
940,-0.11,-0.225,
941,-0.105,-0.25,
942,-0.125,-0.245,
943,-0.11,-0.225,
944,-0.105,-0.22,
945,-0.085,-0.205,
946,-0.095,-0.23,
947,-0.095,-0.235,
948,-0.11,-0.225,
949,-0.1,-0.225,
950,-0.09,-0.2,
951,-0.07,-0.205,
952,-0.07,-0.22,
953,-0.08,-0.235,
954,-0.105,-0.23,
955,-0.085,-0.21,
956,-0.075,-0.2,
957,-0.05,-0.205,
958,-0.055,-0.205,
959,-0.06,-0.22,
960,-0.07,-0.225,
961,-0.08,-0.205,
962,-0.075,-0.19,
963,-0.045,-0.21,
964,-0.045,-0.215,
965,-0.06,-0.22,
966,-0.06,-0.215,
967,-0.055,-0.205,
968,-0.045,-0.19,
969,-0.05,-0.195,
970,-0.055,-0.205,
971,-0.055,-0.23,
972,-0.065,-0.225,
973,-0.065,-0.2,
974,-0.04,-0.175,
975,-0.045,-0.185,
976,-0.05,-0.2,
977,-0.07,-0.225,
978,-0.085,-0.205,
979,-0.075,-0.205,
980,-0.065,-0.205,
981,-0.065,-0.2,
982,-0.065,-0.225,
983,-0.08,-0.235,
984,-0.1,-0.235,
985,-0.095,-0.215,
986,-0.1,-0.205,
987,-0.1,-0.225,
988,-0.105,-0.235,
989,-0.12,-0.25,
990,-0.12,-0.235,
991,-0.13,-0.23,
992,-0.12,-0.22,
993,-0.105,-0.235,
994,-0.12,-0.245,
995,-0.14,-0.26,
996,-0.15,-0.25,
997,-0.13,-0.23,
998,-0.13,-0.245,
999,-0.13,-0.255,
1000,-0.135,-0.27,
1001,-0.145,-0.27,
1002,-0.15,-0.255,
1003,-0.14,-0.245,
1004,-0.135,-0.255,
1005,-0.16,-0.275,
1006,-0.165,-0.28,
1007,-0.165,-0.28,
1008,-0.155,-0.265,
1009,-0.15,-0.265,
1010,-0.135,-0.245,
1011,-0.125,-0.255,
1012,-0.16,-0.28,
1013,-0.16,-0.275,
1014,-0.16,-0.27,
1015,-0.15,-0.26,
1016,-0.135,-0.265,
1017,-0.15,-0.255,
1018,-0.15,-0.28,
1019,-0.145,-0.27,
1020,-0.135,-0.265,
1021,-0.12,-0.26,
1022,-0.115,-0.26,
1023,-0.12,-0.27,
1024,-0.125,-0.29,
1025,-0.155,-0.29,
1026,-0.14,-0.275,
1027,-0.135,-0.26,
1028,-0.115,-0.265,
1029,-0.125,-0.285,
1030,-0.145,-0.3,
1031,-0.165,-0.29,
1032,-0.155,-0.29,
1033,-0.135,-0.26,
1034,-0.12,-0.28,
1035,-0.125,-0.28,
1036,-0.145,-0.29,
1037,-0.155,-0.295,
1038,-0.145,-0.28,
1039,-0.14,-0.27,
1040,-0.14,-0.29,
1041,-0.145,-0.285,
1042,-0.16,-0.3,
1043,-0.16,-0.305,
1044,-0.15,-0.285,
1045,-0.145,-0.28,
1046,-0.155,-0.29,
1047,-0.155,-0.3,
1048,-0.155,-0.32,
1049,-0.15,-0.3,
1050,-0.16,-0.29,
1051,-0.145,-0.275,
1052,-0.14,-0.285,
1053,-0.14,-0.285,
1054,-0.16,-0.305,
1055,-0.165,-0.295,
1056,-0.14,-0.29,
1057,-0.14,-0.29,
1058,-0.13,-0.29,
1059,-0.125,-0.3,
1060,-0.14,-0.315,
1061,-0.14,-0.305,
1062,-0.135,-0.295,
1063,-0.125,-0.28,
1064,-0.115,-0.29,
1065,-0.125,-0.285,
1066,-0.14,-0.3,
1067,-0.135,-0.305,
1068,-0.125,-0.285,
1069,-0.12,-0.285,
1070,-0.11,-0.285,
1071,-0.12,-0.305,
1072,-0.125,-0.305,
1073,-0.145,-0.3,
1074,-0.14,-0.3,
1075,-0.12,-0.295,
1076,-0.1,-0.285,
1077,-0.1,-0.295,
1078,-0.115,-0.31,
1079,-0.115,-0.305,
1080,-0.12,-0.29,
1081,-0.095,-0.28,
1082,-0.105,-0.285,
1083,-0.11,-0.3,
1084,-0.11,-0.305,
1085,-0.12,-0.305,
1086,-0.105,-0.295,
1087,-0.12,-0.285,
1088,-0.11,-0.29,
1089,-0.105,-0.285,
1090,-0.11,-0.305,
1091,-0.115,-0.31,
1092,-0.115,-0.305,
1093,-0.1,-0.28,
1094,-0.09,-0.29,
1095,-0.09,-0.295,
1096,-0.095,-0.31,
1097,-0.1,-0.295,
1098,-0.1,-0.295,
1099,-0.1,-0.28,
1100,-0.08,-0.29,
1101,-0.08,-0.305,
1102,-0.09,-0.315,
1103,-0.09,-0.305,
1104,-0.095,-0.29,
1105,-0.09,-0.275,
1106,-0.07,-0.285,
1107,-0.075,-0.29,
1108,-0.09,-0.31,
1109,-0.09,-0.31,
1110,-0.1,-0.295,
1111,-0.09,-0.285,
1112,-0.085,-0.29,
1113,-0.08,-0.305,
1114,-0.08,-0.315,
1115,-0.1,-0.305,
1116,-0.095,-0.29,
1117,-0.075,-0.28,
1118,-0.065,-0.29,
1119,-0.07,-0.295,
1120,-0.105,-0.295,
1121,-0.1,-0.305,
1122,-0.095,-0.285,
1123,-0.075,-0.265,
1124,-0.065,-0.29,
1125,-0.065,-0.285,
1126,-0.075,-0.315,
1127,-0.075,-0.31,
1128,-0.06,-0.295,
1129,-0.055,-0.27,
1130,-0.045,-0.255,
1131,-0.05,-0.255,
1132,-0.055,-0.265,
1133,-0.065,-0.25,
1134,-0.04,-0.225,
1135,-0.01,-0.225,
1136,0.015,-0.22,
1137,0.01,-0.23,
1138,-0.01,-0.24,
1139,-0.015,-0.24,
1140,0.015,-0.225,
1141,0.04,-0.215,
1142,0.06,-0.235,
1143,0.075,-0.255,
1144,0.09,-0.295,
1145,0.105,-0.3,
1146,0.125,-0.305,
1147,0.165,-0.305,
1148,0.18,-0.3,
1149,0.195,-0.325,
1150,0.18,-0.33,
1151,0.145,-0.33,
1152,0.14,-0.31,
1153,0.12,-0.3,
1154,0.115,-0.285,
1155,0.1,-0.275,
1156,0.075,-0.295,
1157,0.055,-0.3,
1158,0.055,-0.28,
1159,0.03,-0.26,
1160,0.01,-0.275,
1161,-0.03,-0.295,
1162,-0.08,-0.31,
1163,-0.095,-0.305,
1164,-0.105,-0.295,
1165,-0.11,-0.275,
1166,-0.105,-0.29,
1167,-0.12,-0.3,
1168,-0.135,-0.315,
1169,-0.145,-0.315,
1170,-0.14,-0.3,
1171,-0.125,-0.29,
1172,-0.12,-0.285,
1173,-0.125,-0.285,
1174,-0.13,-0.305,
1175,-0.13,-0.295,
1176,-0.115,-0.27,
1177,-0.105,-0.23,
1178,-0.09,-0.21,
1179,-0.105,-0.19,
1180,-0.105,-0.2,
1181,-0.12,-0.215,
1182,-0.105,-0.245,
1183,-0.1,-0.295,
1184,-0.105,-0.4,
1185,-0.14,-0.525,
1186,-0.16,-0.67,
1187,-0.12,-0.815,
1188,-0.025,-0.94,
1189,0.105,-1.04,
1190,0.27,-1.105,
1191,0.425,-1.115,
1192,0.605,-1.065,
1193,0.775,-0.97,N
1194,0.88,-0.825,
1195,0.82,-0.675,
1196,0.555,-0.545,
1197,0.215,-0.42,
1198,-0.055,-0.33,
1199,-0.16,-0.265,
1200,-0.185,-0.225,
1201,-0.14,-0.205,
1202,-0.09,-0.2,
1203,-0.08,-0.205,
1204,-0.085,-0.215,
1205,-0.095,-0.215,
1206,-0.105,-0.205,
1207,-0.12,-0.2,
1208,-0.1,-0.19,
1209,-0.115,-0.205,
1210,-0.12,-0.225,
1211,-0.11,-0.22,
1212,-0.105,-0.2,
1213,-0.105,-0.19,
1214,-0.085,-0.21,
1215,-0.095,-0.205,
1216,-0.105,-0.22,
1217,-0.11,-0.21,
1218,-0.1,-0.205,
1219,-0.08,-0.2,
1220,-0.07,-0.205,
1221,-0.085,-0.205,
1222,-0.09,-0.225,
1223,-0.095,-0.215,
1224,-0.09,-0.21,
1225,-0.065,-0.195,
1226,-0.07,-0.2,
1227,-0.065,-0.215,
1228,-0.075,-0.225,
1229,-0.08,-0.215,
1230,-0.06,-0.205,
1231,-0.05,-0.19,
1232,-0.045,-0.2,
1233,-0.055,-0.215,
1234,-0.055,-0.22,
1235,-0.065,-0.225,
1236,-0.06,-0.22,
1237,-0.05,-0.205,
1238,-0.04,-0.215,
1239,-0.045,-0.22,
1240,-0.07,-0.22,
1241,-0.07,-0.22,
1242,-0.055,-0.21,
1243,-0.05,-0.21,
1244,-0.04,-0.215,
1245,-0.045,-0.22,
1246,-0.05,-0.225,
1247,-0.065,-0.225,
1248,-0.07,-0.21,
1249,-0.04,-0.19,
1250,-0.035,-0.205,
1251,-0.025,-0.215,
1252,-0.055,-0.23,
1253,-0.055,-0.22,
1254,-0.05,-0.2,
1255,-0.05,-0.2,
1256,-0.025,-0.21,
1257,-0.045,-0.21,
1258,-0.05,-0.23,
1259,-0.055,-0.225,
1260,-0.045,-0.21,
1261,-0.03,-0.195,
1262,-0.02,-0.215,
1263,-0.03,-0.205,
1264,-0.04,-0.22,
1265,-0.04,-0.215,
1266,-0.035,-0.205,
1267,-0.035,-0.195,
1268,-0.005,-0.2,
1269,-0.035,-0.205,
1270,-0.04,-0.22,
1271,-0.05,-0.225,
1272,-0.045,-0.2,
1273,-0.035,-0.19,
1274,-0.03,-0.195,
1275,-0.035,-0.21,
1276,-0.045,-0.22,
1277,-0.07,-0.22,
1278,-0.055,-0.215,
1279,-0.045,-0.205,
1280,-0.05,-0.22,
1281,-0.06,-0.215,
1282,-0.075,-0.225,
1283,-0.105,-0.23,
1284,-0.1,-0.22,
1285,-0.09,-0.2,
1286,-0.09,-0.225,
1287,-0.105,-0.225,
1288,-0.125,-0.255,
1289,-0.12,-0.255,
1290,-0.115,-0.235,
1291,-0.1,-0.225,
1292,-0.09,-0.235,
1293,-0.105,-0.245,
1294,-0.12,-0.26,
1295,-0.145,-0.255,
1296,-0.14,-0.255,
1297,-0.12,-0.24,
1298,-0.115,-0.245,
1299,-0.13,-0.265,
1300,-0.14,-0.265,
1301,-0.155,-0.25,
1302,-0.145,-0.24,
1303,-0.155,-0.235,
1304,-0.145,-0.245,
1305,-0.14,-0.27,
1306,-0.16,-0.275,
1307,-0.145,-0.275,
1308,-0.145,-0.265,
1309,-0.14,-0.26,
1310,-0.15,-0.255,
1311,-0.135,-0.26,
1312,-0.15,-0.275,
1313,-0.165,-0.275,
1314,-0.16,-0.26,
1315,-0.17,-0.26,
1316,-0.145,-0.25,
1317,-0.145,-0.27,
1318,-0.185,-0.285,
1319,-0.18,-0.28,
1320,-0.18,-0.275,
1321,-0.16,-0.27,
1322,-0.14,-0.275,
1323,-0.155,-0.285,
1324,-0.17,-0.29,
1325,-0.18,-0.285,
1326,-0.185,-0.28,
1327,-0.165,-0.265,
1328,-0.16,-0.275,
1329,-0.185,-0.29,
1330,-0.18,-0.3,
1331,-0.19,-0.295,
1332,-0.18,-0.29,
1333,-0.16,-0.27,
1334,-0.15,-0.275,
1335,-0.15,-0.28,
1336,-0.16,-0.29,
1337,-0.17,-0.295,
1338,-0.17,-0.28,
1339,-0.155,-0.27,
1340,-0.15,-0.285,
1341,-0.16,-0.29,
1342,-0.175,-0.31,
1343,-0.19,-0.31,
1344,-0.195,-0.28,
1345,-0.185,-0.275,
1346,-0.17,-0.28,
1347,-0.18,-0.285,
1348,-0.165,-0.31,
1349,-0.18,-0.315,
1350,-0.165,-0.29,
1351,-0.165,-0.295,
1352,-0.155,-0.295,
1353,-0.18,-0.31,
1354,-0.195,-0.315,
1355,-0.2,-0.31,
1356,-0.18,-0.305,
1357,-0.17,-0.29,
1358,-0.165,-0.28,
1359,-0.165,-0.295,
1360,-0.175,-0.305,
1361,-0.18,-0.3,
1362,-0.17,-0.29,
1363,-0.16,-0.28,
1364,-0.145,-0.29,
1365,-0.155,-0.305,
1366,-0.17,-0.315,
1367,-0.165,-0.31,
1368,-0.175,-0.3,
1369,-0.17,-0.29,
1370,-0.14,-0.3,
1371,-0.15,-0.31,
1372,-0.17,-0.32,
1373,-0.175,-0.315,
1374,-0.17,-0.3,
1375,-0.15,-0.295,
1376,-0.145,-0.285,
1377,-0.15,-0.3,
1378,-0.16,-0.32,
1379,-0.175,-0.31,
1380,-0.155,-0.3,
1381,-0.15,-0.29,
1382,-0.14,-0.29,
1383,-0.145,-0.31,
1384,-0.15,-0.33,
1385,-0.18,-0.315,
1386,-0.17,-0.295,
1387,-0.145,-0.285,
1388,-0.13,-0.285,
1389,-0.145,-0.3,
1390,-0.155,-0.305,
1391,-0.185,-0.33,
1392,-0.165,-0.315,
1393,-0.155,-0.295,
1394,-0.14,-0.3,
1395,-0.14,-0.305,
1396,-0.15,-0.315,
1397,-0.16,-0.32,
1398,-0.155,-0.305,
1399,-0.155,-0.305,
1400,-0.14,-0.31,
1401,-0.14,-0.315,
1402,-0.145,-0.325,
1403,-0.15,-0.31,
1404,-0.165,-0.295,
1405,-0.145,-0.285,
1406,-0.13,-0.3,
1407,-0.14,-0.315,
1408,-0.145,-0.33,
1409,-0.16,-0.315,
1410,-0.16,-0.315,
1411,-0.145,-0.295,
1412,-0.13,-0.3,
1413,-0.13,-0.305,
1414,-0.155,-0.31,
1415,-0.15,-0.305,
1416,-0.145,-0.285,
1417,-0.12,-0.27,
1418,-0.115,-0.26,
1419,-0.12,-0.255,
1420,-0.135,-0.27,
1421,-0.12,-0.25,
1422,-0.11,-0.245,
1423,-0.09,-0.23,
1424,-0.075,-0.225,
1425,-0.05,-0.23,
1426,-0.055,-0.245,
1427,-0.07,-0.225,
1428,-0.035,-0.22,
1429,0.0,-0.23,
1430,0.02,-0.27,
1431,0.05,-0.3,
1432,0.075,-0.34,
1433,0.09,-0.345,
1434,0.095,-0.34,
1435,0.115,-0.335,
1436,0.12,-0.325,
1437,0.115,-0.33,
1438,0.085,-0.335,
1439,0.06,-0.325,
1440,0.04,-0.31,
1441,0.04,-0.28,
1442,0.035,-0.275,
1443,0.015,-0.3,
1444,-0.005,-0.31,
1445,-0.025,-0.32,
1446,-0.045,-0.305,
1447,-0.07,-0.285,
1448,-0.095,-0.3,
1449,-0.13,-0.31,
1450,-0.165,-0.325,
1451,-0.165,-0.325,
1452,-0.16,-0.32,
1453,-0.175,-0.31,
1454,-0.175,-0.305,
1455,-0.18,-0.32,
1456,-0.185,-0.33,
1457,-0.2,-0.33,
1458,-0.18,-0.315,
1459,-0.17,-0.305,
1460,-0.155,-0.305,
1461,-0.15,-0.31,
1462,-0.18,-0.315,
1463,-0.17,-0.315,
1464,-0.16,-0.28,
1465,-0.15,-0.255,
1466,-0.12,-0.22,
1467,-0.11,-0.19,
1468,-0.135,-0.17,
1469,-0.15,-0.185,
1470,-0.135,-0.225,
1471,-0.115,-0.265,
1472,-0.14,-0.405,
1473,-0.165,-0.565,
1474,-0.2,-0.755,
1475,-0.175,-0.925,
1476,-0.085,-1.07,
1477,0.08,-1.18,
1478,0.265,-1.235,
1479,0.45,-1.22,
1480,0.64,-1.145,
1481,0.775,-1.01,
1482,0.855,-0.865,N
1483,0.79,-0.71,
1484,0.545,-0.57,
1485,0.22,-0.445,
1486,-0.055,-0.35,
1487,-0.19,-0.255,
1488,-0.22,-0.195,
1489,-0.175,-0.185,
1490,-0.145,-0.18,
1491,-0.105,-0.2,
1492,-0.105,-0.205,
1493,-0.135,-0.205,
1494,-0.13,-0.195,
1495,-0.135,-0.2,
1496,-0.115,-0.205,
1497,-0.125,-0.195,
1498,-0.135,-0.205,
1499,-0.14,-0.22,
1500,-0.115,-0.21,
1501,-0.105,-0.195,
1502,-0.1,-0.195,
1503,-0.115,-0.215,
1504,-0.12,-0.215,
1505,-0.125,-0.22,
1506,-0.125,-0.2,
1507,-0.135,-0.195,
1508,-0.11,-0.2,
1509,-0.115,-0.215,
1510,-0.125,-0.23,
1511,-0.125,-0.225,
1512,-0.115,-0.21,
1513,-0.105,-0.205,
1514,-0.075,-0.195,
1515,-0.1,-0.21,
1516,-0.115,-0.21,
1517,-0.11,-0.215,
1518,-0.095,-0.205,
1519,-0.085,-0.19,
1520,-0.06,-0.205,
1521,-0.07,-0.215,
1522,-0.08,-0.225,
1523,-0.09,-0.205,
1524,-0.07,-0.19,
1525,-0.06,-0.18,
1526,-0.045,-0.175,
1527,-0.065,-0.2,
1528,-0.065,-0.205,
1529,-0.075,-0.2,
1530,-0.07,-0.195,
1531,-0.065,-0.19,
1532,-0.06,-0.19,
1533,-0.06,-0.195,
1534,-0.065,-0.2,
1535,-0.065,-0.2,
1536,-0.06,-0.205,
1537,-0.05,-0.185,
1538,-0.06,-0.185,
1539,-0.05,-0.21,
1540,-0.05,-0.22,
1541,-0.055,-0.2,
1542,-0.035,-0.19,
1543,-0.03,-0.18,
1544,-0.01,-0.19,
1545,-0.025,-0.2,
1546,-0.035,-0.21,
1547,-0.06,-0.215,
1548,-0.04,-0.19,
1549,-0.02,-0.165,
1550,-0.02,-0.175,
1551,-0.01,-0.19,
1552,-0.03,-0.185,
1553,-0.035,-0.19,
1554,-0.02,-0.18,
1555,-0.01,-0.16,
1556,0.01,-0.17,
1557,0.01,-0.19,
1558,0.005,-0.2,
1559,-0.015,-0.195,
1560,-0.005,-0.175,
1561,-0.005,-0.155,
1562,-0.01,-0.16,
1563,0.0,-0.17,
1564,-0.02,-0.19,
1565,-0.02,-0.19,
1566,-0.02,-0.18,
1567,-0.015,-0.165,
1568,-0.005,-0.165,
1569,-0.025,-0.19,
1570,-0.045,-0.2,
1571,-0.04,-0.205,
1572,-0.035,-0.19,
1573,-0.03,-0.185,
1574,-0.02,-0.2,
1575,-0.04,-0.205,
1576,-0.065,-0.22,
1577,-0.07,-0.21,
1578,-0.065,-0.21,
1579,-0.06,-0.19,
1580,-0.05,-0.21,
1581,-0.07,-0.22,
1582,-0.08,-0.23,
1583,-0.105,-0.23,
1584,-0.095,-0.22,
1585,-0.08,-0.21,
1586,-0.07,-0.21,
1587,-0.06,-0.22,
1588,-0.085,-0.235,
1589,-0.095,-0.24,
1590,-0.1,-0.23,
1591,-0.075,-0.225,
1592,-0.075,-0.225,
1593,-0.08,-0.235,
1594,-0.1,-0.25,
1595,-0.12,-0.24,
1596,-0.105,-0.23,
1597,-0.105,-0.215,
1598,-0.095,-0.225,
1599,-0.095,-0.23,
1600,-0.1,-0.255,
1601,-0.11,-0.235,
1602,-0.115,-0.23,
1603,-0.095,-0.21,
1604,-0.095,-0.215,
1605,-0.095,-0.215,
1606,-0.105,-0.235,
1607,-0.115,-0.235,
1608,-0.11,-0.22,
1609,-0.105,-0.215,
1610,-0.075,-0.225,
1611,-0.09,-0.235,
1612,-0.09,-0.235,
1613,-0.1,-0.24,
1614,-0.095,-0.24,
1615,-0.105,-0.215,
1616,-0.085,-0.23,
1617,-0.085,-0.235,
1618,-0.105,-0.25,
1619,-0.1,-0.25,
1620,-0.115,-0.235,
1621,-0.11,-0.22,
1622,-0.105,-0.23,
1623,-0.1,-0.24,
1624,-0.11,-0.255,
1625,-0.12,-0.25,
1626,-0.1,-0.235,
1627,-0.105,-0.215,
1628,-0.095,-0.23,
1629,-0.105,-0.235,
1630,-0.11,-0.245,
1631,-0.13,-0.26,
1632,-0.12,-0.255,
1633,-0.105,-0.235,
1634,-0.1,-0.24,
1635,-0.095,-0.235,
1636,-0.105,-0.25,
1637,-0.105,-0.245,
1638,-0.1,-0.24,
1639,-0.105,-0.225,
1640,-0.08,-0.23,
1641,-0.075,-0.24,
1642,-0.105,-0.245,
1643,-0.105,-0.245,
1644,-0.1,-0.24,
1645,-0.095,-0.22,
1646,-0.08,-0.23,
1647,-0.09,-0.245,
1648,-0.09,-0.25,
1649,-0.09,-0.255,
1650,-0.095,-0.245,
1651,-0.08,-0.23,
1652,-0.07,-0.235,
1653,-0.08,-0.24,
1654,-0.095,-0.26,
1655,-0.105,-0.25,
1656,-0.105,-0.25,
1657,-0.105,-0.235,
1658,-0.085,-0.245,
1659,-0.06,-0.255,
1660,-0.095,-0.27,
1661,-0.085,-0.265,
1662,-0.08,-0.245,
1663,-0.08,-0.24,
1664,-0.055,-0.235,
1665,-0.075,-0.235,
1666,-0.085,-0.255,
1667,-0.085,-0.255,
1668,-0.075,-0.25,
1669,-0.075,-0.23,
1670,-0.07,-0.24,
1671,-0.06,-0.25,
1672,-0.075,-0.255,
1673,-0.08,-0.255,
1674,-0.075,-0.24,
1675,-0.055,-0.23,
1676,-0.05,-0.235,
1677,-0.06,-0.25,
1678,-0.08,-0.27,
1679,-0.085,-0.265,
1680,-0.07,-0.25,
1681,-0.055,-0.24,
1682,-0.04,-0.245,
1683,-0.05,-0.245,
1684,-0.065,-0.27,
1685,-0.1,-0.245,
1686,-0.07,-0.24,
1687,-0.055,-0.225,
1688,-0.04,-0.235,
1689,-0.07,-0.25,
1690,-0.05,-0.25,
1691,-0.07,-0.245,
1692,-0.05,-0.245,
1693,-0.05,-0.235,
1694,-0.035,-0.24,
1695,-0.04,-0.25,
1696,-0.055,-0.26,
1697,-0.07,-0.25,
1698,-0.07,-0.235,
1699,-0.05,-0.24,
1700,-0.04,-0.225,
1701,-0.04,-0.25,
1702,-0.05,-0.265,
1703,-0.06,-0.245,
1704,-0.075,-0.24,
1705,-0.07,-0.225,
1706,-0.055,-0.23,
1707,-0.06,-0.24,
1708,-0.075,-0.255,
1709,-0.08,-0.245,
1710,-0.065,-0.23,
1711,-0.06,-0.22,
1712,-0.045,-0.215,
1713,-0.035,-0.23,
1714,-0.04,-0.225,
1715,-0.03,-0.21,
1716,-0.025,-0.19,
1717,0.005,-0.175,
1718,0.01,-0.165,
1719,0.005,-0.18,
1720,0.005,-0.18,
1721,0.005,-0.175,
1722,0.025,-0.17,
1723,0.05,-0.155,
1724,0.07,-0.175,
1725,0.095,-0.2,
1726,0.11,-0.245,
1727,0.13,-0.265,
1728,0.15,-0.275,
1729,0.17,-0.27,
1730,0.185,-0.27,
1731,0.17,-0.295,
1732,0.155,-0.315,
1733,0.135,-0.3,
1734,0.13,-0.275,
1735,0.1,-0.255,
1736,0.105,-0.25,
1737,0.085,-0.25,
1738,0.055,-0.265,
1739,0.04,-0.255,
1740,0.025,-0.25,
1741,0.015,-0.23,
1742,0.0,-0.245,
1743,-0.035,-0.26,
1744,-0.065,-0.265,
1745,-0.105,-0.265,
1746,-0.125,-0.265,
1747,-0.11,-0.26,
1748,-0.13,-0.26,
1749,-0.145,-0.27,
1750,-0.15,-0.27,
1751,-0.145,-0.265,
1752,-0.15,-0.265,
1753,-0.135,-0.25,
1754,-0.115,-0.255,
1755,-0.13,-0.265,
1756,-0.155,-0.285,
1757,-0.165,-0.265,
1758,-0.16,-0.255,
1759,-0.14,-0.235,
1760,-0.13,-0.24,
1761,-0.135,-0.235,
1762,-0.15,-0.22,
1763,-0.165,-0.185,
1764,-0.13,-0.14,
1765,-0.115,-0.12,
1766,-0.115,-0.17,
1767,-0.12,-0.235,
1768,-0.12,-0.33,
1769,-0.15,-0.475,
1770,-0.16,-0.63,
1771,-0.17,-0.805,
1772,-0.11,-0.98,
1773,-0.03,-1.13,
1774,0.105,-1.215,
1775,0.275,-1.21,
1776,0.49,-1.145,
1777,0.665,-1.035,
1778,0.75,-0.915,N
1779,0.69,-0.77,
1780,0.475,-0.64,
1781,0.19,-0.495,
1782,-0.03,-0.365,
1783,-0.155,-0.24,
1784,-0.205,-0.19,
1785,-0.2,-0.185,
1786,-0.18,-0.18,
1787,-0.175,-0.175,
1788,-0.14,-0.175,
1789,-0.135,-0.16,
1790,-0.12,-0.16,
1791,-0.135,-0.17,
1792,-0.16,-0.18,
1793,-0.16,-0.18,
1794,-0.17,-0.155,
1795,-0.155,-0.145,
1796,-0.145,-0.16,
1797,-0.14,-0.165,
1798,-0.15,-0.195,
1799,-0.145,-0.195,
1800,-0.15,-0.185,
1801,-0.14,-0.17,
1802,-0.125,-0.17,
1803,-0.135,-0.175,
1804,-0.145,-0.205,
1805,-0.15,-0.195,
1806,-0.145,-0.17,
1807,-0.15,-0.165,
1808,-0.15,-0.18,
1809,-0.13,-0.18,
1810,-0.14,-0.195,
1811,-0.16,-0.185,
1812,-0.15,-0.165,
1813,-0.125,-0.155,
1814,-0.115,-0.145,
1815,-0.11,-0.17,
1816,-0.13,-0.18,
1817,-0.145,-0.17,
1818,-0.145,-0.16,
1819,-0.12,-0.155,
1820,-0.105,-0.16,
1821,-0.12,-0.175,
1822,-0.12,-0.175,
1823,-0.125,-0.185,
1824,-0.12,-0.165,
1825,-0.115,-0.165,
1826,-0.095,-0.175,
1827,-0.09,-0.175,
1828,-0.105,-0.185,
1829,-0.115,-0.175,
1830,-0.1,-0.175,
1831,-0.11,-0.165,
1832,-0.09,-0.165,
1833,-0.1,-0.17,
1834,-0.1,-0.18,
1835,-0.125,-0.185,
1836,-0.105,-0.17,
1837,-0.085,-0.16,
1838,-0.08,-0.16,
1839,-0.085,-0.16,
1840,-0.105,-0.175,
1841,-0.1,-0.165,
1842,-0.1,-0.15,
1843,-0.1,-0.14,
1844,-0.09,-0.15,
1845,-0.085,-0.165,
1846,-0.1,-0.175,
1847,-0.115,-0.165,
1848,-0.095,-0.145,
1849,-0.08,-0.14,
1850,-0.075,-0.15,
1851,-0.085,-0.16,
1852,-0.08,-0.19,
1853,-0.095,-0.18,
1854,-0.09,-0.17,
1855,-0.08,-0.155,
1856,-0.06,-0.155,
1857,-0.08,-0.16,
1858,-0.085,-0.17,
1859,-0.1,-0.165,
1860,-0.1,-0.16,
1861,-0.095,-0.16,
1862,-0.07,-0.155,
1863,-0.08,-0.17,
1864,-0.08,-0.18,
1865,-0.08,-0.19,
1866,-0.085,-0.17,
1867,-0.095,-0.165,
1868,-0.085,-0.175,
1869,-0.105,-0.18,
1870,-0.125,-0.195,
1871,-0.145,-0.205,
1872,-0.155,-0.18,
1873,-0.14,-0.18,
1874,-0.12,-0.195,
1875,-0.13,-0.19,
1876,-0.155,-0.205,
1877,-0.165,-0.2,
1878,-0.16,-0.2,
1879,-0.155,-0.185,
1880,-0.15,-0.195,
1881,-0.16,-0.205,
1882,-0.155,-0.21,
1883,-0.16,-0.205,
1884,-0.16,-0.2,
1885,-0.145,-0.195,
1886,-0.15,-0.195,
1887,-0.165,-0.225,
1888,-0.18,-0.235,
1889,-0.185,-0.22,
1890,-0.18,-0.195,
1891,-0.18,-0.195,
1892,-0.17,-0.19,
1893,-0.165,-0.21,
1894,-0.17,-0.21,
1895,-0.18,-0.205,
1896,-0.175,-0.215,
1897,-0.16,-0.2,
1898,-0.155,-0.19,
1899,-0.165,-0.205,
1900,-0.175,-0.225,
1901,-0.185,-0.215,
1902,-0.19,-0.205,
1903,-0.16,-0.21,
1904,-0.16,-0.205,
1905,-0.16,-0.21,
1906,-0.18,-0.21,
1907,-0.195,-0.21,
1908,-0.195,-0.205,
1909,-0.18,-0.2,
1910,-0.165,-0.195,
1911,-0.175,-0.225,
1912,-0.185,-0.235,
1913,-0.19,-0.245,
1914,-0.2,-0.215,
1915,-0.19,-0.2,
1916,-0.175,-0.215,
1917,-0.19,-0.215,
1918,-0.185,-0.225,
1919,-0.205,-0.23,
1920,-0.2,-0.215,
1921,-0.19,-0.21,
1922,-0.165,-0.215,
1923,-0.17,-0.225,
1924,-0.185,-0.24,
1925,-0.185,-0.225,
1926,-0.185,-0.225,
1927,-0.175,-0.22,
1928,-0.18,-0.23,
1929,-0.165,-0.23,
1930,-0.175,-0.245,
1931,-0.19,-0.23,
1932,-0.185,-0.225,
1933,-0.155,-0.21,
1934,-0.16,-0.215,
1935,-0.17,-0.225,
1936,-0.19,-0.245,
1937,-0.185,-0.24,
1938,-0.18,-0.235,
1939,-0.16,-0.2,
1940,-0.14,-0.215,
1941,-0.145,-0.225,
1942,-0.16,-0.245,
1943,-0.165,-0.24,
1944,-0.18,-0.22,
1945,-0.155,-0.22,
1946,-0.15,-0.225,
1947,-0.165,-0.225,
1948,-0.165,-0.245,
1949,-0.165,-0.245,
1950,-0.175,-0.24,
1951,-0.165,-0.225,
1952,-0.145,-0.23,
1953,-0.145,-0.25,
1954,-0.155,-0.255,
1955,-0.16,-0.25,
1956,-0.165,-0.24,
1957,-0.14,-0.225,
1958,-0.135,-0.235,
1959,-0.145,-0.24,
1960,-0.15,-0.25,
1961,-0.16,-0.24,
1962,-0.155,-0.235,
1963,-0.14,-0.23,
1964,-0.13,-0.215,
1965,-0.135,-0.23,
1966,-0.15,-0.25,
1967,-0.145,-0.24,
1968,-0.155,-0.235,
1969,-0.14,-0.215,
1970,-0.115,-0.21,
1971,-0.12,-0.235,
1972,-0.13,-0.245,
1973,-0.125,-0.235,
1974,-0.13,-0.22,
1975,-0.115,-0.215,
1976,-0.12,-0.21,
1977,-0.125,-0.23,
1978,-0.125,-0.245,
1979,-0.13,-0.225,
1980,-0.12,-0.23,
1981,-0.13,-0.22,
1982,-0.115,-0.225,
1983,-0.115,-0.235,
1984,-0.125,-0.245,
1985,-0.125,-0.24,
1986,-0.125,-0.22,
1987,-0.125,-0.225,
1988,-0.11,-0.2,
1989,-0.095,-0.225,
1990,-0.125,-0.23,
1991,-0.135,-0.23,
1992,-0.125,-0.225,
1993,-0.1,-0.215,
1994,-0.085,-0.22,
1995,-0.1,-0.24,
1996,-0.11,-0.245,
1997,-0.115,-0.245,
1998,-0.12,-0.235,
1999,-0.105,-0.205,
2000,-0.08,-0.215,
2001,-0.095,-0.23,
2002,-0.11,-0.245,
2003,-0.115,-0.235,
2004,-0.115,-0.215,
2005,-0.09,-0.195,
2006,-0.085,-0.2,
2007,-0.095,-0.225,
2008,-0.1,-0.23,
2009,-0.11,-0.225,
2010,-0.09,-0.22,
2011,-0.08,-0.185,
2012,-0.07,-0.185,
2013,-0.065,-0.17,
2014,-0.07,-0.175,
2015,-0.055,-0.18,
2016,-0.05,-0.16,
2017,-0.025,-0.15,
2018,0.0,-0.165,
2019,0.01,-0.18,
2020,0.005,-0.185,
2021,0.015,-0.2,
2022,0.045,-0.19,
2023,0.095,-0.22,
2024,0.135,-0.245,
2025,0.14,-0.27,
2026,0.15,-0.28,
2027,0.145,-0.28,
2028,0.15,-0.26,
2029,0.135,-0.245,
2030,0.13,-0.245,
2031,0.115,-0.26,
2032,0.095,-0.255,
2033,0.075,-0.24,
2034,0.065,-0.22,
2035,0.075,-0.21,
2036,0.07,-0.205,
2037,0.055,-0.23,
2038,0.0,-0.235,
2039,-0.045,-0.22,
2040,-0.065,-0.225,
2041,-0.095,-0.225,
2042,-0.105,-0.23,
2043,-0.12,-0.255,
2044,-0.13,-0.245,
2045,-0.14,-0.24,
2046,-0.15,-0.225,
2047,-0.125,-0.22,
2048,-0.11,-0.225,
2049,-0.115,-0.225,
2050,-0.13,-0.245,
2051,-0.135,-0.23,
2052,-0.135,-0.22,
2053,-0.115,-0.225,
2054,-0.105,-0.215,
2055,-0.11,-0.225,
2056,-0.1,-0.235,
2057,-0.1,-0.21,
2058,-0.1,-0.165,
2059,-0.09,-0.12,
2060,-0.07,-0.105,
2061,-0.08,-0.14,
2062,-0.095,-0.22,
2063,-0.125,-0.31,
2064,-0.145,-0.45,
2065,-0.15,-0.61,
2066,-0.13,-0.8,
2067,-0.07,-0.98,
2068,0.05,-1.115,
2069,0.215,-1.17,
2070,0.44,-1.12,
2071,0.665,-1.0,
2072,0.8,-0.84,N
2073,0.77,-0.695,
2074,0.55,-0.535,
2075,0.215,-0.38,
2076,-0.03,-0.23,
2077,-0.13,-0.16,
2078,-0.145,-0.115,
2079,-0.115,-0.115,
2080,-0.1,-0.12,
2081,-0.095,-0.12,
2082,-0.08,-0.105,
2083,-0.055,-0.1,
2084,-0.06,-0.11,
2085,-0.08,-0.13,
2086,-0.095,-0.145,
2087,-0.085,-0.135,
2088,-0.09,-0.135,
2089,-0.08,-0.12,
2090,-0.075,-0.11,
2091,-0.065,-0.13,
2092,-0.075,-0.145,
2093,-0.08,-0.14,
2094,-0.07,-0.125,
2095,-0.06,-0.13,
2096,-0.06,-0.14,
2097,-0.055,-0.13,
2098,-0.06,-0.15,
2099,-0.065,-0.155,
2100,-0.055,-0.135,
2101,-0.045,-0.13,
2102,-0.05,-0.12,
2103,-0.055,-0.14,
2104,-0.07,-0.155,
2105,-0.08,-0.155,
2106,-0.05,-0.135,
2107,-0.05,-0.115,
2108,-0.02,-0.12,
2109,-0.035,-0.135,
2110,-0.05,-0.145,
2111,-0.04,-0.155,
2112,-0.045,-0.125,
2113,-0.03,-0.125,
2114,-0.02,-0.125,
2115,-0.015,-0.125,
2116,-0.035,-0.145,
2117,-0.04,-0.15,
2118,-0.03,-0.145,
2119,-0.02,-0.13,
2120,-0.015,-0.14,
2121,-0.025,-0.135,
2122,-0.035,-0.145,
2123,-0.025,-0.15,
2124,-0.025,-0.135,
2125,-0.015,-0.12,
2126,-0.005,-0.12,
2127,-0.015,-0.135,
2128,-0.03,-0.15,
2129,-0.035,-0.14,
2130,-0.035,-0.14,
2131,-0.01,-0.115,
2132,-0.005,-0.11,
2133,-0.005,-0.145,
2134,-0.02,-0.14,
2135,-0.02,-0.16,
2136,-0.02,-0.145,
2137,0.0,-0.13,
2138,0.015,-0.11,
2139,0.02,-0.145,
2140,0.005,-0.15,
2141,0.0,-0.155,
2142,0.0,-0.145,
2143,0.015,-0.135,
2144,0.005,-0.14,
2145,0.015,-0.15,
2146,0.01,-0.145,
2147,-0.005,-0.16,
2148,0.01,-0.135,
2149,0.015,-0.13,
2150,0.035,-0.14,
2151,0.01,-0.15,
2152,0.005,-0.17,
2153,0.0,-0.165,
2154,0.0,-0.145,
2155,0.0,-0.145,
2156,0.01,-0.14,
2157,0.0,-0.145,
2158,-0.015,-0.17,
2159,-0.035,-0.175,
2160,-0.03,-0.15,
2161,-0.03,-0.145,
2162,-0.025,-0.16,
2163,-0.045,-0.17,
2164,-0.055,-0.185,
2165,-0.075,-0.18,
2166,-0.06,-0.175,
2167,-0.055,-0.16,
2168,-0.035,-0.165,
2169,-0.055,-0.17,
2170,-0.08,-0.185,
2171,-0.1,-0.17,
2172,-0.07,-0.165,
2173,-0.045,-0.155,
2174,-0.05,-0.155,
2175,-0.05,-0.17,
2176,-0.07,-0.18,
2177,-0.075,-0.18,
2178,-0.07,-0.17,
2179,-0.05,-0.145,
2180,-0.045,-0.155,
2181,-0.045,-0.17,
2182,-0.055,-0.175,
2183,-0.065,-0.18,
2184,-0.075,-0.175,
2185,-0.06,-0.175,
2186,-0.035,-0.175,
2187,-0.05,-0.185,
2188,-0.075,-0.205,
2189,-0.085,-0.205,
2190,-0.09,-0.175,
2191,-0.055,-0.16,
2192,-0.055,-0.175,
2193,-0.065,-0.195,
2194,-0.065,-0.21,
2195,-0.09,-0.2,
2196,-0.08,-0.17,
2197,-0.065,-0.18,
2198,-0.06,-0.18,
2199,-0.07,-0.195,
2200,-0.095,-0.2,
2201,-0.095,-0.205,
2202,-0.09,-0.19,
2203,-0.08,-0.175,
2204,-0.08,-0.195,
2205,-0.08,-0.205,
2206,-0.095,-0.22,
2207,-0.1,-0.205,
2208,-0.09,-0.205,
2209,-0.07,-0.18,
2210,-0.07,-0.19,
2211,-0.075,-0.21,
2212,-0.09,-0.215,
2213,-0.1,-0.22,
2214,-0.09,-0.195,
2215,-0.08,-0.195,
2216,-0.06,-0.2,
2217,-0.06,-0.215,
2218,-0.085,-0.235,
2219,-0.095,-0.23,
2220,-0.085,-0.215,
2221,-0.065,-0.205,
2222,-0.06,-0.2,
2223,-0.065,-0.21,
2224,-0.09,-0.225,
2225,-0.09,-0.215,
2226,-0.08,-0.215,
2227,-0.07,-0.2,
2228,-0.06,-0.205,
2229,-0.06,-0.23,
2230,-0.065,-0.23,
2231,-0.07,-0.225,
2232,-0.065,-0.21,
2233,-0.055,-0.195,
2234,-0.045,-0.21,
2235,-0.055,-0.23,
2236,-0.07,-0.24,
2237,-0.075,-0.225,
2238,-0.055,-0.225,
2239,-0.04,-0.215,
2240,-0.04,-0.215,
2241,-0.045,-0.225,
2242,-0.055,-0.23,
2243,-0.065,-0.225,
2244,-0.055,-0.21,
2245,-0.05,-0.205,
2246,-0.045,-0.21,
2247,-0.04,-0.21,
2248,-0.055,-0.245,
2249,-0.065,-0.235,
2250,-0.055,-0.225,
2251,-0.02,-0.215,
2252,-0.015,-0.22,
2253,-0.03,-0.235,
2254,-0.045,-0.245,
2255,-0.045,-0.24,
2256,-0.04,-0.225,
2257,-0.045,-0.205,
2258,-0.025,-0.225,
2259,-0.035,-0.23,
2260,-0.035,-0.25,
2261,-0.055,-0.25,
2262,-0.055,-0.225,
2263,-0.05,-0.225,
2264,-0.02,-0.225,
2265,-0.03,-0.23,
2266,-0.04,-0.245,
2267,-0.06,-0.25,
2268,-0.045,-0.22,
2269,-0.035,-0.22,
2270,-0.015,-0.195,
2271,-0.01,-0.225,
2272,-0.02,-0.22,
2273,-0.025,-0.205,
2274,-0.025,-0.19,
2275,0.0,-0.17,
2276,0.025,-0.18,
2277,0.02,-0.175,
2278,0.02,-0.2,
2279,0.025,-0.185,
2280,0.035,-0.175,
2281,0.035,-0.15,
2282,0.065,-0.135,
2283,0.065,-0.14,
2284,0.08,-0.16,
2285,0.11,-0.18,
2286,0.16,-0.2,
2287,0.225,-0.215,
2288,0.25,-0.225,
2289,0.255,-0.26,
2290,0.25,-0.27,
2291,0.23,-0.27,
2292,0.24,-0.265,
2293,0.255,-0.25,
2294,0.23,-0.25,
2295,0.195,-0.25,
2296,0.18,-0.25,
2297,0.155,-0.23,
2298,0.13,-0.23,
2299,0.13,-0.225,
2300,0.1,-0.225,
2301,0.085,-0.255,
2302,0.005,-0.26,
2303,-0.03,-0.25,
2304,-0.045,-0.26,
2305,-0.035,-0.25,
2306,-0.05,-0.25,
2307,-0.06,-0.26,
2308,-0.08,-0.275,
2309,-0.09,-0.265,
2310,-0.1,-0.265,
2311,-0.085,-0.255,
2312,-0.085,-0.26,
2313,-0.09,-0.26,
2314,-0.1,-0.275,
2315,-0.12,-0.245,
2316,-0.095,-0.235,
2317,-0.075,-0.24,
2318,-0.06,-0.225,
2319,-0.065,-0.235,
2320,-0.075,-0.235,
2321,-0.08,-0.205,
2322,-0.07,-0.14,
2323,-0.05,-0.105,
2324,-0.045,-0.105,
2325,-0.05,-0.165,
2326,-0.075,-0.285,
2327,-0.1,-0.465,
2328,-0.105,-0.68,
2329,-0.08,-0.885,
2330,0.025,-1.105,
2331,0.18,-1.24,
2332,0.365,-1.295,
2333,0.54,-1.265,
2334,0.715,-1.145,
2335,0.86,-1.01,N
2336,0.89,-0.865,
2337,0.795,-0.715,
2338,0.535,-0.565,
2339,0.19,-0.385,
2340,-0.06,-0.245,
2341,-0.17,-0.165,
2342,-0.155,-0.155,
2343,-0.1,-0.155,
2344,-0.08,-0.175,
2345,-0.085,-0.17,
2346,-0.095,-0.16,
2347,-0.1,-0.14,
2348,-0.09,-0.145,
2349,-0.1,-0.16,
2350,-0.1,-0.175,
2351,-0.105,-0.17,
2352,-0.09,-0.155,
2353,-0.075,-0.155,
2354,-0.085,-0.155,
2355,-0.07,-0.16,
2356,-0.085,-0.16,
2357,-0.085,-0.165,
2358,-0.08,-0.15,
2359,-0.08,-0.15,
2360,-0.075,-0.155,
2361,-0.08,-0.17,
2362,-0.09,-0.18,
2363,-0.09,-0.175,
2364,-0.08,-0.165,
2365,-0.07,-0.145,
2366,-0.06,-0.145,
2367,-0.065,-0.16,
2368,-0.08,-0.175,
2369,-0.075,-0.185,
2370,-0.08,-0.17,
2371,-0.065,-0.155,
2372,-0.055,-0.155,
2373,-0.06,-0.16,
2374,-0.065,-0.18,
2375,-0.08,-0.18,
2376,-0.08,-0.165,
2377,-0.055,-0.15,
2378,-0.04,-0.15,
2379,-0.045,-0.155,
2380,-0.05,-0.165,
2381,-0.065,-0.15,
2382,-0.065,-0.15,
2383,-0.045,-0.14,
2384,-0.03,-0.15,
2385,-0.06,-0.16,
2386,-0.05,-0.155,
2387,-0.07,-0.165,
2388,-0.05,-0.135,
2389,-0.035,-0.135,
2390,-0.03,-0.135,
2391,-0.035,-0.16,
2392,-0.045,-0.15,
2393,-0.05,-0.16,
2394,-0.04,-0.13,
2395,-0.03,-0.12,
2396,-0.01,-0.12,
2397,-0.025,-0.135,
2398,-0.04,-0.145,
2399,-0.045,-0.145,
2400,-0.025,-0.125,
2401,-0.015,-0.11,
2402,0.0,-0.125,
2403,-0.015,-0.13,
2404,-0.015,-0.155,
2405,-0.02,-0.14,
2406,-0.015,-0.13,
2407,-0.01,-0.115,
2408,-0.005,-0.12,
2409,-0.005,-0.135,
2410,-0.015,-0.14,
2411,-0.035,-0.13,
2412,-0.04,-0.12,
2413,-0.025,-0.12,
2414,-0.02,-0.115,
2415,-0.025,-0.13,
2416,-0.04,-0.155,
2417,-0.06,-0.155,
2418,-0.065,-0.145,
2419,-0.04,-0.13,
2420,-0.055,-0.14,
2421,-0.07,-0.155,
2422,-0.09,-0.165,
2423,-0.105,-0.17,
2424,-0.1,-0.165,
2425,-0.09,-0.16,
2426,-0.07,-0.17,
2427,-0.09,-0.17,
2428,-0.115,-0.18,
2429,-0.125,-0.19,
2430,-0.115,-0.17,
2431,-0.115,-0.165,
2432,-0.105,-0.18,
2433,-0.12,-0.19,
2434,-0.13,-0.195,
2435,-0.135,-0.19,
2436,-0.145,-0.175,
2437,-0.145,-0.17,
2438,-0.135,-0.18,
2439,-0.15,-0.185,
2440,-0.165,-0.22,
2441,-0.17,-0.21,
2442,-0.17,-0.19,
2443,-0.155,-0.195,
2444,-0.155,-0.18,
2445,-0.155,-0.195,
2446,-0.165,-0.205,
2447,-0.17,-0.2,
2448,-0.17,-0.2,
2449,-0.165,-0.19,
2450,-0.15,-0.2,
2451,-0.17,-0.215,
2452,-0.175,-0.215,
2453,-0.185,-0.21,
2454,-0.16,-0.205,
2455,-0.165,-0.215,
2456,-0.15,-0.22,
2457,-0.165,-0.21,
2458,-0.17,-0.24,
2459,-0.18,-0.245,
2460,-0.175,-0.22,
2461,-0.175,-0.205,
2462,-0.165,-0.21,
2463,-0.175,-0.23,
2464,-0.195,-0.24,
2465,-0.2,-0.24,
2466,-0.19,-0.225,
2467,-0.18,-0.215,
2468,-0.18,-0.225,
2469,-0.175,-0.215,
2470,-0.175,-0.23,
2471,-0.18,-0.225,
2472,-0.18,-0.22,
2473,-0.175,-0.21,
2474,-0.155,-0.215,
2475,-0.175,-0.24,
2476,-0.185,-0.24,
2477,-0.185,-0.235,
2478,-0.19,-0.22,
2479,-0.19,-0.22,
2480,-0.175,-0.225,
2481,-0.17,-0.24,
2482,-0.18,-0.235,
2483,-0.185,-0.255,
2484,-0.185,-0.225,
2485,-0.175,-0.225,
2486,-0.165,-0.22,
2487,-0.17,-0.23,
2488,-0.18,-0.255,
2489,-0.195,-0.245,
2490,-0.18,-0.235,
2491,-0.165,-0.22,
2492,-0.17,-0.225,
2493,-0.17,-0.24,
2494,-0.165,-0.255,
2495,-0.18,-0.255,
2496,-0.17,-0.225,
2497,-0.165,-0.235,
2498,-0.15,-0.23,
2499,-0.175,-0.23,
2500,-0.165,-0.25,
2501,-0.18,-0.235,
2502,-0.17,-0.23,
2503,-0.155,-0.225,
2504,-0.155,-0.24,
2505,-0.17,-0.25,
2506,-0.165,-0.26,
2507,-0.175,-0.255,
2508,-0.17,-0.245,
2509,-0.15,-0.22,
2510,-0.16,-0.225,
2511,-0.165,-0.245,
2512,-0.18,-0.265,
2513,-0.175,-0.255,
2514,-0.17,-0.245,
2515,-0.155,-0.225,
2516,-0.15,-0.235,
2517,-0.16,-0.245,
2518,-0.18,-0.26,
2519,-0.18,-0.25,
2520,-0.175,-0.265,
2521,-0.165,-0.24,
2522,-0.16,-0.235,
2523,-0.16,-0.255,
2524,-0.18,-0.255,
2525,-0.185,-0.26,
2526,-0.19,-0.24,
2527,-0.175,-0.235,
2528,-0.17,-0.25,
2529,-0.16,-0.26,
2530,-0.175,-0.265,
2531,-0.19,-0.26,
2532,-0.2,-0.24,
2533,-0.18,-0.235,
2534,-0.175,-0.25,
2535,-0.175,-0.25,
2536,-0.19,-0.26,
2537,-0.21,-0.27,
2538,-0.205,-0.27,
2539,-0.195,-0.245,
2540,-0.185,-0.245,
2541,-0.19,-0.26,
2542,-0.205,-0.26,
2543,-0.21,-0.255,
2544,-0.205,-0.24,
2545,-0.2,-0.24,
2546,-0.195,-0.235,
2547,-0.205,-0.255,
2548,-0.205,-0.27,
2549,-0.21,-0.27,
2550,-0.205,-0.255,
2551,-0.2,-0.24,
2552,-0.185,-0.24,
2553,-0.22,-0.255,
2554,-0.23,-0.27,
2555,-0.23,-0.27,
2556,-0.21,-0.255,
2557,-0.215,-0.24,
2558,-0.2,-0.245,
2559,-0.215,-0.255,
2560,-0.225,-0.28,
2561,-0.225,-0.265,
2562,-0.225,-0.245,
2563,-0.21,-0.245,
2564,-0.22,-0.245,
2565,-0.235,-0.245,
2566,-0.25,-0.27,
2567,-0.245,-0.26,
2568,-0.235,-0.265,
2569,-0.225,-0.23,
2570,-0.22,-0.235,
2571,-0.235,-0.245,
2572,-0.23,-0.26,
2573,-0.24,-0.255,
2574,-0.22,-0.255,
2575,-0.22,-0.245,
2576,-0.215,-0.255,
2577,-0.23,-0.26,
2578,-0.24,-0.26,
2579,-0.245,-0.245,
2580,-0.225,-0.245,
2581,-0.215,-0.215,
2582,-0.22,-0.225,
2583,-0.215,-0.255,
2584,-0.23,-0.265,
2585,-0.215,-0.26,
2586,-0.22,-0.24,
2587,-0.2,-0.235,
2588,-0.195,-0.24,
2589,-0.205,-0.245,
2590,-0.215,-0.26,
2591,-0.23,-0.255,
2592,-0.215,-0.27,
2593,-0.175,-0.275,
2594,-0.165,-0.28,
2595,-0.16,-0.31,
2596,-0.17,-0.325,
2597,-0.165,-0.34,
2598,-0.155,-0.33,
2599,-0.135,-0.32,
2600,-0.115,-0.335,
2601,-0.105,-0.34,
2602,-0.12,-0.345,
2603,-0.14,-0.335,
2604,-0.18,-0.3,
2605,-0.16,-0.28,
2606,-0.165,-0.275,
2607,-0.19,-0.275,
2608,-0.22,-0.26,
2609,-0.215,-0.24,
2610,-0.215,-0.225,
2611,-0.2,-0.215,
2612,-0.2,-0.23,
2613,-0.235,-0.245,
2614,-0.26,-0.25,
2615,-0.27,-0.26,
2616,-0.295,-0.26,
2617,-0.29,-0.245,
2618,-0.27,-0.24,
2619,-0.27,-0.26,
2620,-0.29,-0.265,
2621,-0.305,-0.275,
2622,-0.3,-0.25,
2623,-0.3,-0.25,
2624,-0.27,-0.25,
2625,-0.27,-0.255,
2626,-0.28,-0.27,
2627,-0.285,-0.26,
2628,-0.29,-0.245,
2629,-0.28,-0.22,
2630,-0.265,-0.185,
2631,-0.255,-0.14,
2632,-0.275,-0.12,
2633,-0.275,-0.12,
2634,-0.265,-0.14,
2635,-0.25,-0.225,
2636,-0.27,-0.365,
2637,-0.29,-0.57,
2638,-0.335,-0.805,
2639,-0.31,-1.01,
2640,-0.2,-1.135,
2641,-0.045,-1.195,
2642,0.155,-1.165,
2643,0.315,-1.09,
2644,0.41,-1.0,N
2645,0.415,-0.84,
2646,0.31,-0.67,
2647,0.1,-0.49,
2648,-0.155,-0.375,
2649,-0.345,-0.26,
2650,-0.42,-0.225,
2651,-0.415,-0.17,
2652,-0.36,-0.15,
2653,-0.305,-0.145,
2654,-0.26,-0.14,
2655,-0.26,-0.145,
2656,-0.27,-0.16,
2657,-0.3,-0.16,
2658,-0.295,-0.155,
2659,-0.29,-0.145,
2660,-0.295,-0.145,
2661,-0.305,-0.16,
2662,-0.31,-0.18,
2663,-0.315,-0.185,
2664,-0.28,-0.17,
2665,-0.275,-0.17,
2666,-0.265,-0.165,
2667,-0.28,-0.17,
2668,-0.29,-0.18,
2669,-0.3,-0.18,
2670,-0.3,-0.175,
2671,-0.265,-0.165,
2672,-0.265,-0.16,
2673,-0.275,-0.175,
2674,-0.29,-0.19,
2675,-0.305,-0.18,
2676,-0.28,-0.17,
2677,-0.28,-0.16,
2678,-0.27,-0.16,
2679,-0.27,-0.185,
2680,-0.275,-0.195,
2681,-0.285,-0.195,
2682,-0.275,-0.165,
2683,-0.26,-0.155,
2684,-0.245,-0.17,
2685,-0.265,-0.185,
2686,-0.295,-0.2,
2687,-0.3,-0.19,
2688,-0.285,-0.19,
2689,-0.265,-0.175,
2690,-0.255,-0.17,
2691,-0.265,-0.185,
2692,-0.29,-0.2,
2693,-0.31,-0.19,
2694,-0.3,-0.185,
2695,-0.295,-0.175,
2696,-0.27,-0.195,
2697,-0.26,-0.2,
2698,-0.27,-0.205,
2699,-0.285,-0.21,
2700,-0.27,-0.205,
2701,-0.27,-0.18,
2702,-0.255,-0.19,
2703,-0.26,-0.2,
2704,-0.28,-0.21,
2705,-0.29,-0.205,
2706,-0.29,-0.185,
2707,-0.27,-0.185,
2708,-0.26,-0.19,
2709,-0.275,-0.195,
2710,-0.295,-0.215,
2711,-0.29,-0.195,
2712,-0.28,-0.185,
2713,-0.27,-0.165,
2714,-0.255,-0.175,
2715,-0.26,-0.19,
2716,-0.28,-0.21,
2717,-0.3,-0.195,
2718,-0.305,-0.195,
2719,-0.295,-0.18,
2720,-0.275,-0.185,
2721,-0.29,-0.205,
2722,-0.295,-0.21,
2723,-0.305,-0.21,
2724,-0.295,-0.205,
2725,-0.29,-0.19,
2726,-0.28,-0.205,
2727,-0.295,-0.205,
2728,-0.305,-0.225,
2729,-0.31,-0.21,
2730,-0.31,-0.2,
2731,-0.305,-0.2,
2732,-0.315,-0.2,
2733,-0.355,-0.225,
2734,-0.365,-0.225,
2735,-0.38,-0.225,
2736,-0.39,-0.22,
2737,-0.385,-0.215,
2738,-0.385,-0.225,
2739,-0.375,-0.225,
2740,-0.385,-0.235,
2741,-0.4,-0.22,
2742,-0.39,-0.205,
2743,-0.39,-0.205,
2744,-0.385,-0.2,
2745,-0.395,-0.215,
2746,-0.415,-0.235,
2747,-0.42,-0.24,
2748,-0.44,-0.23,
2749,-0.405,-0.21,
2750,-0.37,-0.22,
2751,-0.38,-0.23,
2752,-0.41,-0.235,
2753,-0.405,-0.245,
2754,-0.41,-0.235,
2755,-0.405,-0.215,
2756,-0.395,-0.23,
2757,-0.4,-0.235,
2758,-0.435,-0.24,
2759,-0.435,-0.235,
2760,-0.43,-0.225,
2761,-0.415,-0.21,
2762,-0.395,-0.23,
2763,-0.395,-0.235,
2764,-0.435,-0.25,
2765,-0.43,-0.24,
2766,-0.435,-0.24,
2767,-0.43,-0.22,
2768,-0.435,-0.235,
2769,-0.42,-0.245,
2770,-0.43,-0.26,
2771,-0.44,-0.25,
2772,-0.435,-0.23,
2773,-0.425,-0.225,
2774,-0.415,-0.225,
2775,-0.415,-0.24,
2776,-0.425,-0.245,
2777,-0.44,-0.245,
2778,-0.435,-0.245,
2779,-0.425,-0.24,
2780,-0.445,-0.255,
2781,-0.43,-0.25,
2782,-0.445,-0.26,
2783,-0.445,-0.27,
2784,-0.44,-0.25,
2785,-0.435,-0.235,
2786,-0.43,-0.24,
2787,-0.43,-0.26,
2788,-0.435,-0.265,
2789,-0.45,-0.255,
2790,-0.43,-0.245,
2791,-0.425,-0.24,
2792,-0.405,-0.245,
2793,-0.42,-0.26,
2794,-0.435,-0.275,
2795,-0.43,-0.25,
2796,-0.43,-0.245,
2797,-0.425,-0.25,
2798,-0.415,-0.25,
2799,-0.43,-0.26,
2800,-0.435,-0.265,
2801,-0.44,-0.27,
2802,-0.445,-0.26,
2803,-0.41,-0.26,
2804,-0.41,-0.25,
2805,-0.41,-0.255,
2806,-0.43,-0.27,
2807,-0.435,-0.27,
2808,-0.43,-0.25,
2809,-0.415,-0.25,
2810,-0.395,-0.25,
2811,-0.4,-0.275,
2812,-0.41,-0.27,
2813,-0.43,-0.265,
2814,-0.42,-0.255,
2815,-0.41,-0.25,
2816,-0.4,-0.25,
2817,-0.415,-0.26,
2818,-0.425,-0.265,
2819,-0.43,-0.27,
2820,-0.425,-0.25,
2821,-0.42,-0.245,
2822,-0.4,-0.245,
2823,-0.41,-0.255,
2824,-0.405,-0.255,
2825,-0.42,-0.27,
2826,-0.42,-0.25,
2827,-0.405,-0.25,
2828,-0.405,-0.245,
2829,-0.405,-0.25,
2830,-0.42,-0.265,
2831,-0.42,-0.27,
2832,-0.415,-0.25,
2833,-0.405,-0.24,
2834,-0.4,-0.245,
2835,-0.405,-0.26,
2836,-0.4,-0.27,
2837,-0.41,-0.25,
2838,-0.42,-0.26,
2839,-0.4,-0.24,
2840,-0.385,-0.25,
2841,-0.385,-0.26,
2842,-0.4,-0.255,
2843,-0.405,-0.27,
2844,-0.415,-0.26,
2845,-0.39,-0.245,
2846,-0.39,-0.24,
2847,-0.395,-0.26,
2848,-0.4,-0.265,
2849,-0.42,-0.275,
2850,-0.395,-0.255,
2851,-0.39,-0.25,
2852,-0.375,-0.255,
2853,-0.39,-0.26,
2854,-0.405,-0.27,
2855,-0.42,-0.26,
2856,-0.415,-0.255,
2857,-0.395,-0.25,
2858,-0.385,-0.24,
2859,-0.395,-0.255,
2860,-0.4,-0.26,
2861,-0.41,-0.265,
2862,-0.425,-0.25,
2863,-0.395,-0.24,
2864,-0.385,-0.235,
2865,-0.4,-0.245,
2866,-0.41,-0.265,
2867,-0.415,-0.265,
2868,-0.4,-0.235,
2869,-0.39,-0.23,
2870,-0.38,-0.22,
2871,-0.385,-0.235,
2872,-0.395,-0.24,
2873,-0.405,-0.24,
2874,-0.395,-0.225,
2875,-0.375,-0.215,
2876,-0.365,-0.225,
2877,-0.37,-0.25,
2878,-0.385,-0.26,
2879,-0.39,-0.245,
2880,-0.385,-0.23,
2881,-0.37,-0.22,
2882,-0.36,-0.225,
2883,-0.37,-0.24,
2884,-0.36,-0.26,
2885,-0.375,-0.26,
2886,-0.36,-0.26,
2887,-0.34,-0.265,
2888,-0.32,-0.285,
2889,-0.32,-0.305,
2890,-0.325,-0.335,
2891,-0.32,-0.34,
2892,-0.31,-0.31,
2893,-0.28,-0.32,
2894,-0.26,-0.32,
2895,-0.25,-0.345,
2896,-0.26,-0.33,
2897,-0.265,-0.305,
2898,-0.285,-0.295,
2899,-0.29,-0.27,
2900,-0.29,-0.275,
2901,-0.305,-0.265,
2902,-0.325,-0.26,
2903,-0.34,-0.245,
2904,-0.335,-0.225,
2905,-0.31,-0.205,
2906,-0.315,-0.23,
2907,-0.325,-0.24,
2908,-0.355,-0.25,
2909,-0.385,-0.255,
2910,-0.4,-0.235,
2911,-0.395,-0.235,
2912,-0.385,-0.24,
2913,-0.4,-0.26,
2914,-0.405,-0.26,
2915,-0.41,-0.265,
2916,-0.4,-0.24,
2917,-0.39,-0.235,
2918,-0.39,-0.235,
2919,-0.39,-0.245,
2920,-0.41,-0.25,
2921,-0.395,-0.25,
2922,-0.38,-0.23,
2923,-0.365,-0.2,
2924,-0.355,-0.22,
2925,-0.36,-0.2,
2926,-0.375,-0.165,
2927,-0.36,-0.135,
2928,-0.365,-0.12,
2929,-0.335,-0.13,
2930,-0.335,-0.22,
2931,-0.355,-0.355,
2932,-0.385,-0.555,
2933,-0.4,-0.765,
2934,-0.34,-0.94,
2935,-0.235,-1.065,
2936,-0.075,-1.135,
2937,0.085,-1.155,
2938,0.22,-1.115,
2939,0.35,-0.995,N
2940,0.395,-0.84,
2941,0.325,-0.685,
2942,0.145,-0.545,
2943,-0.095,-0.41,
2944,-0.295,-0.29,
2945,-0.4,-0.195,
2946,-0.43,-0.12,
2947,-0.4,-0.1,
2948,-0.35,-0.1,
2949,-0.335,-0.115,
2950,-0.34,-0.135,
2951,-0.35,-0.135,
2952,-0.345,-0.12,
2953,-0.345,-0.12,
2954,-0.36,-0.115,
2955,-0.355,-0.13,
2956,-0.345,-0.13,
2957,-0.365,-0.135,
2958,-0.35,-0.135,
2959,-0.35,-0.125,
2960,-0.33,-0.115,
2961,-0.335,-0.13,
2962,-0.35,-0.145,
2963,-0.355,-0.135,
2964,-0.36,-0.125,
2965,-0.34,-0.115,
2966,-0.335,-0.125,
2967,-0.335,-0.135,
2968,-0.34,-0.145,
2969,-0.345,-0.15,
2970,-0.345,-0.13,
2971,-0.335,-0.12,
2972,-0.325,-0.12,
2973,-0.33,-0.14,
2974,-0.345,-0.15,
2975,-0.34,-0.15,
2976,-0.32,-0.135,
2977,-0.31,-0.11,
2978,-0.3,-0.12,
2979,-0.305,-0.12,
2980,-0.31,-0.145,
2981,-0.31,-0.145,
2982,-0.3,-0.13,
2983,-0.3,-0.125,
2984,-0.28,-0.13,
2985,-0.29,-0.14,
2986,-0.3,-0.145,
2987,-0.305,-0.135,
2988,-0.305,-0.145,
2989,-0.3,-0.115,
2990,-0.29,-0.125,
2991,-0.285,-0.13,
2992,-0.305,-0.15,
2993,-0.31,-0.145,
2994,-0.295,-0.14,
2995,-0.285,-0.125,
2996,-0.29,-0.135,
2997,-0.295,-0.14,
2998,-0.3,-0.14,
2999,-0.305,-0.145,
3000,-0.295,-0.125,
3001,-0.295,-0.11,
3002,-0.28,-0.125,
3003,-0.275,-0.135,
3004,-0.3,-0.135,
3005,-0.3,-0.15,
3006,-0.295,-0.135,
3007,-0.275,-0.13,
3008,-0.275,-0.13,
3009,-0.28,-0.13,
3010,-0.275,-0.145,
3011,-0.295,-0.13,
3012,-0.295,-0.125,
3013,-0.29,-0.115,
3014,-0.27,-0.125,
3015,-0.28,-0.135,
3016,-0.285,-0.16,
3017,-0.3,-0.145,
3018,-0.285,-0.13,
3019,-0.285,-0.125,
3020,-0.275,-0.13,
3021,-0.28,-0.15,
3022,-0.305,-0.16,
3023,-0.3,-0.155,
3024,-0.315,-0.155,
3025,-0.305,-0.135,
3026,-0.3,-0.14,
3027,-0.31,-0.165,
3028,-0.345,-0.165,
3029,-0.34,-0.17,
3030,-0.34,-0.165,
3031,-0.34,-0.155,
3032,-0.325,-0.16,
3033,-0.325,-0.165,
3034,-0.345,-0.19,
3035,-0.35,-0.175,
3036,-0.35,-0.155,
3037,-0.345,-0.16,
3038,-0.345,-0.16,
3039,-0.33,-0.175,
3040,-0.345,-0.175,
3041,-0.365,-0.17,
3042,-0.345,-0.175,
3043,-0.34,-0.155,
3044,-0.32,-0.165,
3045,-0.325,-0.175,
3046,-0.34,-0.18,
3047,-0.345,-0.18,
3048,-0.355,-0.165,
3049,-0.33,-0.16,
3050,-0.32,-0.165,
3051,-0.32,-0.175,
3052,-0.34,-0.185,
3053,-0.34,-0.185,
3054,-0.345,-0.175,
3055,-0.32,-0.16,
3056,-0.32,-0.16,
3057,-0.32,-0.185,
3058,-0.335,-0.18,
3059,-0.345,-0.2,
3060,-0.34,-0.185,
3061,-0.34,-0.16,
3062,-0.315,-0.17,
3063,-0.32,-0.185,
3064,-0.34,-0.195,
3065,-0.345,-0.18,
3066,-0.335,-0.175,
3067,-0.31,-0.17,
3068,-0.315,-0.17,
3069,-0.315,-0.18,
3070,-0.325,-0.195,
3071,-0.33,-0.18,
3072,-0.325,-0.17,
3073,-0.315,-0.16,
3074,-0.295,-0.175,
3075,-0.31,-0.175,
3076,-0.32,-0.2,
3077,-0.32,-0.175,
3078,-0.315,-0.18,
3079,-0.315,-0.175,
3080,-0.29,-0.175,
3081,-0.305,-0.185,
3082,-0.315,-0.2,
3083,-0.33,-0.2,
3084,-0.315,-0.175,
3085,-0.305,-0.16,
3086,-0.31,-0.17,
3087,-0.275,-0.17,
3088,-0.32,-0.19,
3089,-0.29,-0.195,
3090,-0.295,-0.18,
3091,-0.285,-0.185,
3092,-0.27,-0.18,
3093,-0.295,-0.195,
3094,-0.29,-0.195,
3095,-0.3,-0.19,
3096,-0.285,-0.165,
3097,-0.28,-0.17,
3098,-0.28,-0.175,
3099,-0.275,-0.19,
3100,-0.28,-0.19,
3101,-0.29,-0.195,
3102,-0.285,-0.175,
3103,-0.265,-0.165,
3104,-0.25,-0.175,
3105,-0.25,-0.18,
3106,-0.265,-0.2,
3107,-0.275,-0.195,
3108,-0.27,-0.19,
3109,-0.26,-0.185,
3110,-0.25,-0.175,
3111,-0.26,-0.18,
3112,-0.275,-0.2,
3113,-0.275,-0.195,
3114,-0.28,-0.18,
3115,-0.255,-0.175,
3116,-0.25,-0.19,
3117,-0.255,-0.19,
3118,-0.265,-0.2,
3119,-0.275,-0.2,
3120,-0.265,-0.18,
3121,-0.255,-0.16,
3122,-0.24,-0.17,
3123,-0.24,-0.185,
3124,-0.245,-0.2,
3125,-0.255,-0.195,
3126,-0.245,-0.175,
3127,-0.23,-0.15,
3128,-0.225,-0.15,
3129,-0.21,-0.14,
3130,-0.205,-0.16,
3131,-0.21,-0.145,
3132,-0.2,-0.12,
3133,-0.175,-0.11,
3134,-0.16,-0.105,
3135,-0.145,-0.11,
3136,-0.165,-0.12,
3137,-0.145,-0.12,
3138,-0.14,-0.1,
3139,-0.12,-0.11,
3140,-0.095,-0.14,
3141,-0.06,-0.19,
3142,-0.03,-0.235,
3143,-0.02,-0.245,
3144,-0.025,-0.23,
3145,-0.01,-0.22,
3146,0.005,-0.225,
3147,-0.005,-0.245,
3148,-0.025,-0.235,
3149,-0.055,-0.22,
3150,-0.07,-0.195,
3151,-0.07,-0.17,
3152,-0.08,-0.165,
3153,-0.08,-0.165,
3154,-0.105,-0.185,
3155,-0.115,-0.18,
3156,-0.13,-0.185,
3157,-0.16,-0.175,
3158,-0.17,-0.19,
3159,-0.2,-0.205,
3160,-0.235,-0.22,
3161,-0.25,-0.22,
3162,-0.255,-0.205,
3163,-0.25,-0.19,
3164,-0.255,-0.19,
3165,-0.255,-0.195,
3166,-0.25,-0.21,
3167,-0.265,-0.215,
3168,-0.26,-0.195,
3169,-0.24,-0.18,
3170,-0.225,-0.185,
3171,-0.245,-0.2,
3172,-0.235,-0.205,
3173,-0.235,-0.205,
3174,-0.23,-0.185,
3175,-0.21,-0.175,
3176,-0.205,-0.16,
3177,-0.205,-0.14,
3178,-0.205,-0.1,
3179,-0.215,-0.055,
3180,-0.195,-0.055,
3181,-0.185,-0.09,
3182,-0.195,-0.205,
3183,-0.215,-0.36,
3184,-0.24,-0.58,
3185,-0.245,-0.8,
3186,-0.17,-1.0,
3187,-0.015,-1.135,
3188,0.17,-1.195,
3189,0.37,-1.16,
3190,0.525,-1.05,
3191,0.62,-0.9,N
3192,0.62,-0.75,
3193,0.48,-0.605,
3194,0.25,-0.47,
3195,-0.015,-0.34,
3196,-0.195,-0.245,
3197,-0.28,-0.165,
3198,-0.28,-0.105,
3199,-0.245,-0.08,
3200,-0.215,-0.065,
3201,-0.2,-0.08,
3202,-0.195,-0.095,
3203,-0.195,-0.095,
3204,-0.19,-0.085,
3205,-0.185,-0.07,
3206,-0.19,-0.08,
3207,-0.205,-0.095,
3208,-0.23,-0.115,
3209,-0.21,-0.1,
3210,-0.205,-0.09,
3211,-0.2,-0.085,
3212,-0.205,-0.09,
3213,-0.175,-0.1,
3214,-0.185,-0.12,
3215,-0.19,-0.115,
3216,-0.18,-0.115,
3217,-0.17,-0.1,
3218,-0.165,-0.095,
3219,-0.17,-0.11,
3220,-0.17,-0.11,
3221,-0.18,-0.115,
3222,-0.17,-0.105,
3223,-0.165,-0.085,
3224,-0.155,-0.1,
3225,-0.17,-0.115,
3226,-0.17,-0.13,
3227,-0.165,-0.115,
3228,-0.155,-0.1,
3229,-0.15,-0.085,
3230,-0.14,-0.095,
3231,-0.145,-0.115,
3232,-0.155,-0.115,
3233,-0.17,-0.125,
3234,-0.16,-0.105,
3235,-0.145,-0.08,
3236,-0.125,-0.1,
3237,-0.135,-0.105,
3238,-0.15,-0.12,
3239,-0.165,-0.115,
3240,-0.15,-0.11,
3241,-0.13,-0.085,
3242,-0.12,-0.1,
3243,-0.12,-0.115,
3244,-0.13,-0.115,
3245,-0.13,-0.115,
3246,-0.12,-0.105,
3247,-0.11,-0.08,
3248,-0.105,-0.085,
3249,-0.1,-0.105,
3250,-0.12,-0.125,
3251,-0.12,-0.115,
3252,-0.115,-0.1,
3253,-0.095,-0.08,
3254,-0.085,-0.09,
3255,-0.08,-0.11,
3256,-0.1,-0.115,
3257,-0.1,-0.105,
3258,-0.105,-0.105,
3259,-0.08,-0.075,
3260,-0.07,-0.08,
3261,-0.07,-0.105,
3262,-0.07,-0.115,
3263,-0.085,-0.105,
3264,-0.095,-0.11,
3265,-0.085,-0.085,
3266,-0.055,-0.095,
3267,-0.06,-0.09,
3268,-0.08,-0.105,
3269,-0.08,-0.1,
3270,-0.065,-0.09,
3271,-0.07,-0.07,
3272,-0.065,-0.08,
3273,-0.075,-0.095,
3274,-0.08,-0.11,
3275,-0.085,-0.095,
3276,-0.08,-0.09,
3277,-0.085,-0.08,
3278,-0.075,-0.09,
3279,-0.095,-0.095,
3280,-0.1,-0.11,
3281,-0.115,-0.115,
3282,-0.125,-0.11,
3283,-0.11,-0.1,
3284,-0.11,-0.11,
3285,-0.11,-0.13,
3286,-0.125,-0.145,
3287,-0.125,-0.14,
3288,-0.13,-0.135,
3289,-0.135,-0.125,
3290,-0.125,-0.13,
3291,-0.14,-0.15,
3292,-0.155,-0.16,
3293,-0.165,-0.16,
3294,-0.16,-0.15,
3295,-0.14,-0.135,
3296,-0.145,-0.135,
3297,-0.145,-0.155,
3298,-0.16,-0.175,
3299,-0.17,-0.165,
3300,-0.17,-0.16,
3301,-0.165,-0.155,
3302,-0.15,-0.15,
3303,-0.165,-0.18,
3304,-0.18,-0.18,
3305,-0.18,-0.165,
3306,-0.17,-0.16,
3307,-0.16,-0.16,
3308,-0.15,-0.145,
3309,-0.165,-0.17,
3310,-0.175,-0.185,
3311,-0.175,-0.175,
3312,-0.18,-0.155,
3313,-0.16,-0.155,
3314,-0.155,-0.155,
3315,-0.165,-0.155,
3316,-0.17,-0.175,
3317,-0.175,-0.18,
3318,-0.175,-0.17,
3319,-0.17,-0.145,
3320,-0.16,-0.16,
3321,-0.17,-0.155,
3322,-0.17,-0.18,
3323,-0.19,-0.18,
3324,-0.175,-0.16,
3325,-0.155,-0.165,
3326,-0.155,-0.17,
3327,-0.165,-0.19,
3328,-0.17,-0.2,
3329,-0.185,-0.19,
3330,-0.175,-0.17,
3331,-0.165,-0.15,
3332,-0.16,-0.155,
3333,-0.17,-0.18,
3334,-0.195,-0.195,
3335,-0.195,-0.195,
3336,-0.18,-0.175,
3337,-0.16,-0.175,
3338,-0.165,-0.18,
3339,-0.16,-0.185,
3340,-0.18,-0.2,
3341,-0.175,-0.21,
3342,-0.175,-0.18,
3343,-0.16,-0.16,
3344,-0.14,-0.175,
3345,-0.14,-0.2,
3346,-0.155,-0.205,
3347,-0.16,-0.195,
3348,-0.15,-0.19,
3349,-0.135,-0.175,
3350,-0.14,-0.185,
3351,-0.135,-0.185,
3352,-0.145,-0.2,
3353,-0.155,-0.205,
3354,-0.155,-0.2,
3355,-0.14,-0.19,
3356,-0.125,-0.19,
3357,-0.13,-0.195,
3358,-0.135,-0.205,
3359,-0.15,-0.2,
3360,-0.145,-0.19,
3361,-0.135,-0.18,
3362,-0.135,-0.19,
3363,-0.145,-0.2,
3364,-0.125,-0.21,
3365,-0.15,-0.21,
3366,-0.14,-0.19,
3367,-0.135,-0.18,
3368,-0.125,-0.195,
3369,-0.13,-0.195,
3370,-0.135,-0.215,
3371,-0.14,-0.215,
3372,-0.13,-0.195,
3373,-0.115,-0.18,
3374,-0.1,-0.19,
3375,-0.115,-0.2,
3376,-0.125,-0.21,
3377,-0.13,-0.21,
3378,-0.135,-0.19,
3379,-0.115,-0.195,
3380,-0.105,-0.195,
3381,-0.12,-0.2,
3382,-0.13,-0.205,
3383,-0.14,-0.205,
3384,-0.12,-0.195,
3385,-0.105,-0.19,
3386,-0.095,-0.2,
3387,-0.095,-0.205,
3388,-0.115,-0.215,
3389,-0.13,-0.205,
3390,-0.13,-0.2,
3391,-0.11,-0.185,
3392,-0.105,-0.19,
3393,-0.1,-0.205,
3394,-0.095,-0.2,
3395,-0.105,-0.195,
3396,-0.1,-0.2,
3397,-0.1,-0.185,
3398,-0.075,-0.19,
3399,-0.09,-0.215,
3400,-0.09,-0.22,
3401,-0.115,-0.21,
3402,-0.1,-0.19,
3403,-0.095,-0.185,
3404,-0.09,-0.19,
3405,-0.095,-0.195,
3406,-0.105,-0.205,
3407,-0.115,-0.205,
3408,-0.105,-0.185,
3409,-0.085,-0.19,
3410,-0.085,-0.185,
3411,-0.095,-0.195,
3412,-0.095,-0.2,
3413,-0.11,-0.215,
3414,-0.095,-0.2,
3415,-0.085,-0.2,
3416,-0.08,-0.21,
3417,-0.085,-0.215,
3418,-0.085,-0.23,
3419,-0.1,-0.21,
3420,-0.09,-0.2,
3421,-0.085,-0.19,
3422,-0.075,-0.195,
3423,-0.08,-0.2,
3424,-0.1,-0.23,
3425,-0.095,-0.215,
3426,-0.09,-0.205,
3427,-0.075,-0.19,
3428,-0.075,-0.2,
3429,-0.07,-0.205,
3430,-0.08,-0.21,
3431,-0.095,-0.225,
3432,-0.09,-0.195,
3433,-0.075,-0.195,
3434,-0.06,-0.2,
3435,-0.075,-0.2,
3436,-0.1,-0.22,
3437,-0.085,-0.205,
3438,-0.08,-0.185,
3439,-0.07,-0.175,
3440,-0.055,-0.19,
3441,-0.07,-0.21,
3442,-0.1,-0.22,
3443,-0.1,-0.215,
3444,-0.085,-0.2,
3445,-0.055,-0.195,
3446,-0.055,-0.2,
3447,-0.055,-0.2,
3448,-0.075,-0.21,
3449,-0.08,-0.195,
3450,-0.09,-0.19,
3451,-0.055,-0.18,
3452,-0.035,-0.19,
3453,-0.05,-0.195,
3454,-0.05,-0.205,
3455,-0.05,-0.195,
3456,-0.04,-0.19,
3457,-0.04,-0.17,
3458,-0.03,-0.185,
3459,-0.03,-0.195,
3460,-0.025,-0.23,
3461,-0.045,-0.23,
3462,-0.03,-0.215,
3463,-0.01,-0.205,
3464,0.0,-0.22,
3465,-0.005,-0.25,
3466,-0.025,-0.28,
3467,-0.005,-0.265,
3468,0.0,-0.27,
3469,0.02,-0.27,
3470,0.045,-0.27,
3471,0.04,-0.295,
3472,0.045,-0.305,
3473,0.055,-0.3,
3474,0.065,-0.28,
3475,0.07,-0.265,
3476,0.05,-0.27,
3477,0.05,-0.26,
3478,0.02,-0.265,
3479,-0.005,-0.245,
3480,0.0,-0.2,
3481,-0.02,-0.17,
3482,-0.005,-0.17,
3483,-0.005,-0.175,
3484,-0.005,-0.195,
3485,-0.02,-0.19,
3486,-0.025,-0.185,
3487,-0.045,-0.185,
3488,-0.045,-0.195,
3489,-0.055,-0.195,
3490,-0.07,-0.21,
3491,-0.08,-0.2,
3492,-0.08,-0.185,
3493,-0.075,-0.175,
3494,-0.07,-0.195,
3495,-0.08,-0.2,
3496,-0.065,-0.215,
3497,-0.075,-0.215,
3498,-0.07,-0.205,
3499,-0.06,-0.205,
3500,-0.055,-0.2,
3501,-0.07,-0.205,
3502,-0.075,-0.215,
3503,-0.075,-0.195,
3504,-0.055,-0.17,
3505,-0.05,-0.145,
3506,-0.04,-0.115,
3507,-0.04,-0.08,
3508,-0.045,-0.06,
3509,-0.05,-0.07,
3510,-0.04,-0.11,
3511,-0.035,-0.2,
3512,-0.05,-0.34,
3513,-0.07,-0.55,
3514,-0.07,-0.755,
3515,-0.01,-0.935,
3516,0.115,-1.085,
3517,0.27,-1.175,
3518,0.445,-1.175,
3519,0.605,-1.115,
3520,0.71,-0.985,N
3521,0.74,-0.83,
3522,0.67,-0.665,
3523,0.48,-0.515,
3524,0.25,-0.39,
3525,0.04,-0.255,
3526,-0.075,-0.18,
3527,-0.12,-0.13,
3528,-0.115,-0.1,
3529,-0.08,-0.08,
3530,-0.045,-0.085,
3531,-0.035,-0.1,
3532,-0.055,-0.105,
3533,-0.065,-0.095,
3534,-0.07,-0.08,
3535,-0.06,-0.065,
3536,-0.05,-0.075,
3537,-0.07,-0.095,
3538,-0.085,-0.11,
3539,-0.065,-0.1,
3540,-0.06,-0.09,
3541,-0.04,-0.08,
3542,-0.03,-0.09,
3543,-0.03,-0.1,
3544,-0.065,-0.115,
3545,-0.065,-0.115,
3546,-0.065,-0.1,
3547,-0.04,-0.095,
3548,-0.03,-0.11,
3549,-0.025,-0.1,
3550,-0.05,-0.11,
3551,-0.055,-0.1,
3552,-0.045,-0.1,
3553,-0.05,-0.085,
3554,-0.045,-0.085,
3555,-0.03,-0.095,
3556,-0.035,-0.11,
3557,-0.05,-0.115,
3558,-0.035,-0.095,
3559,-0.025,-0.08,
3560,-0.005,-0.085,
3561,-0.005,-0.1,
3562,-0.015,-0.11,
3563,-0.035,-0.11,
3564,-0.02,-0.1,
3565,-0.02,-0.1,
3566,-0.015,-0.1,
3567,-0.03,-0.105,
3568,-0.05,-0.12,
3569,-0.05,-0.12,
3570,-0.045,-0.11,
3571,-0.025,-0.095,
3572,-0.025,-0.095,
3573,-0.025,-0.11,
3574,-0.04,-0.125,
3575,-0.04,-0.125,
3576,-0.03,-0.105,
3577,-0.015,-0.09,
3578,-0.01,-0.1,
3579,-0.015,-0.1,
3580,-0.035,-0.11,
3581,-0.035,-0.115,
3582,-0.015,-0.1,
3583,-0.005,-0.095,
3584,0.005,-0.1,
3585,-0.02,-0.11,
3586,-0.03,-0.115,
3587,-0.035,-0.12,
3588,-0.02,-0.1,
3589,-0.015,-0.095,
3590,-0.005,-0.105,
3591,-0.01,-0.115,
3592,-0.015,-0.115,
3593,-0.025,-0.115,
3594,-0.02,-0.1,
3595,-0.02,-0.09,
3596,0.005,-0.09,
3597,0.005,-0.115,
3598,0.0,-0.12,
3599,-0.015,-0.12,
3600,-0.005,-0.115,
3601,0.005,-0.11,
3602,0.005,-0.105,
3603,-0.005,-0.1,
3604,-0.02,-0.12,
3605,-0.03,-0.115,
3606,-0.025,-0.1,
3607,-0.015,-0.075,
3608,-0.01,-0.095,
3609,-0.01,-0.1,
3610,-0.025,-0.125,
3611,-0.04,-0.12,
3612,-0.035,-0.105,
3613,-0.055,-0.105,
3614,-0.03,-0.11,
3615,-0.05,-0.13,
3616,-0.07,-0.15,
3617,-0.08,-0.14,
3618,-0.08,-0.12,
3619,-0.06,-0.12,
3620,-0.05,-0.125,
3621,-0.065,-0.135,
3622,-0.095,-0.155,
3623,-0.095,-0.155,
3624,-0.085,-0.135,
3625,-0.07,-0.135,
3626,-0.06,-0.13,
3627,-0.08,-0.14,
3628,-0.11,-0.165,
3629,-0.115,-0.145,
3630,-0.105,-0.145,
3631,-0.08,-0.14,
3632,-0.095,-0.14,
3633,-0.09,-0.155,
3634,-0.105,-0.165,
3635,-0.125,-0.175,
3636,-0.12,-0.15,
3637,-0.095,-0.135,
3638,-0.09,-0.13,
3639,-0.105,-0.14,
3640,-0.105,-0.155,
3641,-0.11,-0.155,
3642,-0.11,-0.14,
3643,-0.11,-0.13,
3644,-0.1,-0.145,
3645,-0.105,-0.16,
3646,-0.115,-0.17,
3647,-0.125,-0.155,
3648,-0.11,-0.135,
3649,-0.095,-0.12,
3650,-0.095,-0.14,
3651,-0.085,-0.145,
3652,-0.11,-0.16,
3653,-0.12,-0.165,
3654,-0.115,-0.16,
3655,-0.105,-0.135,
3656,-0.1,-0.135,
3657,-0.11,-0.14,
3658,-0.12,-0.17,
3659,-0.125,-0.155,
3660,-0.105,-0.15,
3661,-0.1,-0.13,
3662,-0.085,-0.15,
3663,-0.09,-0.145,
3664,-0.115,-0.155,
3665,-0.13,-0.16,
3666,-0.125,-0.15,
3667,-0.1,-0.13,
3668,-0.09,-0.14,
3669,-0.085,-0.17,
3670,-0.095,-0.17,
3671,-0.095,-0.17,
3672,-0.09,-0.165,
3673,-0.09,-0.16,
3674,-0.09,-0.165,
3675,-0.095,-0.175,
3676,-0.11,-0.175,
3677,-0.12,-0.175,
3678,-0.115,-0.16,
3679,-0.09,-0.155,
3680,-0.07,-0.165,
3681,-0.075,-0.17,
3682,-0.095,-0.185,
3683,-0.09,-0.17,
3684,-0.08,-0.165,
3685,-0.075,-0.16,
3686,-0.06,-0.165,
3687,-0.06,-0.18,
3688,-0.075,-0.19,
3689,-0.1,-0.195,
3690,-0.085,-0.165,
3691,-0.075,-0.155,
3692,-0.07,-0.16,
3693,-0.06,-0.17,
3694,-0.08,-0.18,
3695,-0.07,-0.17,
3696,-0.06,-0.17,
3697,-0.06,-0.17,
3698,-0.045,-0.175,
3699,-0.055,-0.18,
3700,-0.07,-0.18,
3701,-0.075,-0.18,
3702,-0.055,-0.165,
3703,-0.055,-0.155,
3704,-0.055,-0.175,
3705,-0.06,-0.19,
3706,-0.065,-0.195,
3707,-0.08,-0.19,
3708,-0.08,-0.175,
3709,-0.06,-0.16,
3710,-0.06,-0.165,
3711,-0.065,-0.175,
3712,-0.07,-0.175,
3713,-0.075,-0.185,
3714,-0.06,-0.165,
3715,-0.045,-0.15,
3716,-0.04,-0.175,
3717,-0.03,-0.18,
3718,-0.045,-0.19,
3719,-0.08,-0.18,
3720,-0.075,-0.175,
3721,-0.06,-0.165,
3722,-0.055,-0.17,
3723,-0.075,-0.19,
3724,-0.08,-0.19,
3725,-0.08,-0.195,
3726,-0.075,-0.165,
3727,-0.055,-0.15,
3728,-0.055,-0.165,
3729,-0.06,-0.175,
3730,-0.07,-0.19,
3731,-0.07,-0.185,
3732,-0.04,-0.17,
3733,-0.035,-0.17,
3734,-0.035,-0.175,
3735,-0.045,-0.18,
3736,-0.055,-0.19,
3737,-0.07,-0.19,
3738,-0.065,-0.175,
3739,-0.04,-0.16,
3740,-0.03,-0.17,
3741,-0.045,-0.185,
3742,-0.055,-0.185,
3743,-0.055,-0.195,
3744,-0.05,-0.185,
3745,-0.045,-0.17,
3746,-0.035,-0.17,
3747,-0.035,-0.18,
3748,-0.045,-0.2,
3749,-0.05,-0.19,
3750,-0.05,-0.185,
3751,-0.05,-0.17,
3752,-0.05,-0.175,
3753,-0.035,-0.19,
3754,-0.04,-0.2,
3755,-0.05,-0.185,
3756,-0.06,-0.175,
3757,-0.04,-0.165,
3758,-0.025,-0.175,
3759,-0.035,-0.18,
3760,-0.04,-0.19,
3761,-0.045,-0.2,
3762,-0.035,-0.175,
3763,-0.015,-0.15,
3764,-0.005,-0.135,
3765,-0.015,-0.155,
3766,-0.03,-0.16,
3767,-0.04,-0.145,
3768,-0.02,-0.125,
3769,0.005,-0.115,
3770,0.025,-0.11,
3771,0.02,-0.115,
3772,0.01,-0.125,
3773,0.0,-0.125,
3774,0.035,-0.12,
3775,0.05,-0.1,
3776,0.075,-0.11,
3777,0.08,-0.13,
3778,0.095,-0.165,
3779,0.1,-0.17,
3780,0.15,-0.18,
3781,0.175,-0.175,
3782,0.18,-0.2,
3783,0.21,-0.225,
3784,0.205,-0.23,
3785,0.185,-0.23,
3786,0.2,-0.225,
3787,0.195,-0.215,
3788,0.205,-0.205,
3789,0.165,-0.19,
3790,0.13,-0.195,
3791,0.105,-0.17,
3792,0.105,-0.165,
3793,0.095,-0.165,
3794,0.08,-0.165,
3795,0.045,-0.18,
3796,0.005,-0.2,
3797,0.0,-0.195,
3798,-0.03,-0.18,
3799,-0.03,-0.175,
3800,-0.04,-0.18,
3801,-0.045,-0.205,
3802,-0.065,-0.21,
3803,-0.075,-0.205,
3804,-0.09,-0.185,
3805,-0.065,-0.185,
3806,-0.065,-0.18,
3807,-0.08,-0.19,
3808,-0.095,-0.195,
3809,-0.095,-0.19,
3810,-0.085,-0.18,
3811,-0.075,-0.175,
3812,-0.075,-0.18,
3813,-0.075,-0.195,
3814,-0.085,-0.19,
3815,-0.085,-0.17,
3816,-0.075,-0.14,
3817,-0.065,-0.105,
3818,-0.06,-0.08,
3819,-0.06,-0.09,
3820,-0.065,-0.12,
3821,-0.07,-0.165,
3822,-0.08,-0.22,
3823,-0.105,-0.31,
3824,-0.14,-0.475,
3825,-0.175,-0.665,
3826,-0.19,-0.845,
3827,-0.12,-0.95,
3828,0.02,-1.025,
3829,0.185,-1.025,
3830,0.35,-0.975,
3831,0.465,-0.87,N
3832,0.505,-0.745,
3833,0.395,-0.605,
3834,0.21,-0.485,
3835,0.015,-0.37,
3836,-0.115,-0.265,
3837,-0.19,-0.175,
3838,-0.23,-0.13,
3839,-0.19,-0.1,
3840,-0.105,-0.095,
3841,-0.04,-0.09,
3842,-0.015,-0.085,
3843,-0.015,-0.09,
3844,-0.03,-0.105,
3845,-0.055,-0.11,
3846,-0.04,-0.095,
3847,-0.07,-0.08,
3848,-0.03,-0.08,
3849,-0.04,-0.11,
3850,-0.065,-0.115,
3851,-0.05,-0.1,
3852,-0.04,-0.09,
3853,-0.04,-0.08,
3854,-0.03,-0.095,
3855,-0.035,-0.105,
3856,-0.045,-0.11,
3857,-0.055,-0.105,
3858,-0.03,-0.1,
3859,-0.025,-0.085,
3860,-0.005,-0.075,
3861,-0.005,-0.085,
3862,-0.015,-0.1,
3863,-0.035,-0.105,
3864,-0.025,-0.095,
3865,-0.02,-0.09,
3866,-0.015,-0.085,
3867,-0.005,-0.095,
3868,-0.015,-0.11,
3869,-0.02,-0.095,
3870,-0.01,-0.095,
3871,0.0,-0.075,
3872,-0.005,-0.08,
3873,0.0,-0.105,
3874,-0.01,-0.105,
3875,-0.01,-0.105,
3876,-0.01,-0.08,
3877,-0.005,-0.075,
3878,0.01,-0.08,
3879,0.0,-0.1,
3880,-0.01,-0.11,
3881,-0.005,-0.11,
3882,0.005,-0.11,
3883,0.015,-0.09,
3884,0.02,-0.085,
3885,0.0,-0.09,
3886,0.0,-0.11,
3887,-0.005,-0.105,
3888,-0.01,-0.09,
3889,0.01,-0.085,
3890,0.015,-0.09,
3891,0.01,-0.095,
3892,-0.01,-0.12,
3893,-0.02,-0.115,
3894,-0.005,-0.095,
3895,0.005,-0.07,
3896,0.005,-0.075,
3897,-0.005,-0.09,
3898,-0.01,-0.105,
3899,-0.015,-0.105,
3900,-0.01,-0.09,
3901,-0.005,-0.075,
3902,0.0,-0.09,
3903,-0.01,-0.1,
3904,-0.015,-0.115,
3905,-0.02,-0.105,
3906,-0.015,-0.1,
3907,-0.005,-0.08,
3908,0.005,-0.085,
3909,0.0,-0.095,
3910,-0.015,-0.11,
3911,-0.025,-0.105,
3912,-0.035,-0.105,
3913,-0.015,-0.075,
3914,-0.005,-0.095,
3915,-0.01,-0.12,
3916,-0.035,-0.115,
3917,-0.055,-0.115,
3918,-0.035,-0.11,
3919,-0.03,-0.09,
3920,-0.02,-0.105,
3921,-0.035,-0.1,
3922,-0.055,-0.125,
3923,-0.07,-0.115,
3924,-0.065,-0.11,
3925,-0.07,-0.105,
3926,-0.06,-0.095,
3927,-0.055,-0.115,
3928,-0.085,-0.125,
3929,-0.105,-0.115,
3930,-0.11,-0.1,
3931,-0.09,-0.08,
3932,-0.09,-0.095,
3933,-0.085,-0.11,
3934,-0.1,-0.12,
3935,-0.105,-0.12,
3936,-0.095,-0.11,
3937,-0.09,-0.11,
3938,-0.08,-0.095,
3939,-0.09,-0.1,
3940,-0.1,-0.105,
3941,-0.115,-0.11,
3942,-0.12,-0.09,
3943,-0.09,-0.1,
3944,-0.085,-0.09,
3945,-0.095,-0.115,
3946,-0.11,-0.12,
3947,-0.11,-0.115,
3948,-0.1,-0.105,
3949,-0.12,-0.1,
3950,-0.09,-0.11,
3951,-0.095,-0.13,
3952,-0.115,-0.135,
3953,-0.115,-0.13,
3954,-0.1,-0.115,
3955,-0.085,-0.1,
3956,-0.08,-0.115,
3957,-0.09,-0.14,
3958,-0.105,-0.145,
3959,-0.1,-0.15,
3960,-0.095,-0.135,
3961,-0.08,-0.125,
3962,-0.07,-0.125,
3963,-0.08,-0.125,
3964,-0.095,-0.145,
3965,-0.095,-0.135,
3966,-0.09,-0.135,
3967,-0.085,-0.125,
3968,-0.085,-0.135,
3969,-0.08,-0.145,
3970,-0.085,-0.155,
3971,-0.09,-0.16,
3972,-0.08,-0.145,
3973,-0.08,-0.135,
3974,-0.055,-0.13,
3975,-0.055,-0.15,
3976,-0.065,-0.16,
3977,-0.085,-0.15,
3978,-0.065,-0.145,
3979,-0.055,-0.13,
3980,-0.045,-0.13,
3981,-0.05,-0.15,
3982,-0.05,-0.15,
3983,-0.065,-0.16,
3984,-0.04,-0.15,
3985,-0.04,-0.14,
3986,-0.02,-0.135,
3987,-0.025,-0.15,
3988,-0.03,-0.15,
3989,-0.045,-0.155,
3990,-0.03,-0.14,
3991,-0.025,-0.13,
3992,-0.015,-0.135,
3993,-0.025,-0.15,
3994,-0.03,-0.155,
3995,-0.055,-0.155,
3996,-0.055,-0.13,
3997,-0.025,-0.14,
3998,-0.03,-0.135,
3999,-0.025,-0.15,
4000,-0.025,-0.16,
4001,-0.04,-0.16,
4002,-0.02,-0.15,
4003,-0.01,-0.125,
4004,0.0,-0.13,
4005,-0.005,-0.135,
4006,-0.025,-0.15,
4007,-0.03,-0.155,
4008,-0.01,-0.135,
4009,-0.005,-0.125,
4010,0.0,-0.14,
4011,-0.01,-0.15,
4012,-0.01,-0.14,
4013,-0.02,-0.155,
4014,-0.005,-0.135,
4015,0.005,-0.125,
4016,0.0,-0.13,
4017,0.005,-0.135,
4018,-0.015,-0.155,
4019,-0.01,-0.155,
4020,-0.01,-0.13,
4021,-0.005,-0.12,
4022,0.015,-0.13,
4023,0.01,-0.135,
4024,-0.015,-0.15,
4025,-0.02,-0.155,
4026,-0.005,-0.15,
4027,0.01,-0.13,
4028,0.015,-0.135,
4029,-0.005,-0.13,
4030,-0.02,-0.15,
4031,-0.015,-0.15,
4032,-0.015,-0.14,
4033,-0.01,-0.125,
4034,-0.005,-0.13,
4035,0.0,-0.14,
4036,-0.005,-0.155,
4037,-0.035,-0.145,
4038,-0.005,-0.13,
4039,0.015,-0.11,
4040,0.01,-0.115,
4041,0.01,-0.145,
4042,-0.005,-0.15,
4043,-0.005,-0.15,
4044,0.005,-0.125,
4045,0.01,-0.1,
4046,0.015,-0.115,
4047,0.01,-0.115,
4048,-0.01,-0.105,
4049,0.0,-0.1,
4050,0.03,-0.085,
4051,0.05,-0.075,
4052,0.075,-0.075,
4053,0.075,-0.07,
4054,0.06,-0.08,
4055,0.05,-0.07,
4056,0.08,-0.055,
4057,0.095,-0.04,
4058,0.13,-0.065,
4059,0.13,-0.085,
4060,0.145,-0.1,
4061,0.18,-0.125,
4062,0.21,-0.145,
4063,0.24,-0.15,
4064,0.26,-0.165,
4065,0.255,-0.17,
4066,0.25,-0.195,
4067,0.23,-0.185,
4068,0.225,-0.15,
4069,0.21,-0.13,
4070,0.195,-0.12,
4071,0.18,-0.12,
4072,0.155,-0.14,
4073,0.135,-0.14,
4074,0.125,-0.13,
4075,0.105,-0.13,
4076,0.09,-0.125,
4077,0.06,-0.155,
4078,0.025,-0.155,
4079,0.005,-0.15,
4080,-0.005,-0.13,
4081,-0.005,-0.125,
4082,-0.02,-0.135,
4083,-0.03,-0.155,
4084,-0.04,-0.165,
4085,-0.065,-0.155,
4086,-0.04,-0.145,
4087,-0.015,-0.13,
4088,-0.01,-0.115,
4089,-0.015,-0.13,
4090,-0.035,-0.145,
4091,-0.05,-0.145,
4092,-0.035,-0.13,
4093,-0.005,-0.115,
4094,0.0,-0.08,
4095,-0.005,-0.05,
4096,-0.01,-0.005,
4097,-0.015,0.02,
4098,-0.01,0.015,
4099,-0.01,-0.04,
4100,-0.025,-0.14,
4101,-0.035,-0.3,
4102,-0.045,-0.53,
4103,-0.015,-0.775,
4104,0.1,-1.0,
4105,0.265,-1.12,
4106,0.44,-1.16,
4107,0.605,-1.12,
4108,0.725,-1.005,
4109,0.78,-0.845,N
4110,0.75,-0.665,
4111,0.59,-0.49,
4112,0.33,-0.335,
4113,0.085,-0.2,
4114,-0.05,-0.12,
4115,-0.075,-0.075,
4116,-0.045,-0.045,
4117,0.0,-0.04,
4118,0.015,-0.025,
4119,0.01,-0.045,
4120,-0.025,-0.045,
4121,-0.035,-0.06,
4122,-0.03,-0.04,
4123,-0.015,-0.02,
4124,-0.005,-0.04,
4125,-0.01,-0.045,
4126,-0.03,-0.055,
4127,-0.03,-0.05,
4128,-0.02,-0.04,
4129,-0.015,-0.04,
4130,-0.01,-0.045,
4131,-0.01,-0.055,
4132,-0.025,-0.075,
4133,-0.03,-0.065,
4134,-0.035,-0.055,
4135,-0.02,-0.035,
4136,0.005,-0.04,
4137,-0.01,-0.065,
4138,-0.02,-0.065,
4139,-0.03,-0.045,
4140,-0.01,-0.06,
4141,-0.005,-0.035,
4142,0.015,-0.055,
4143,-0.01,-0.065,
4144,-0.005,-0.075,
4145,-0.01,-0.07,
4146,0.0,-0.045,
4147,0.01,-0.03,
4148,0.015,-0.05,
4149,-0.015,-0.06,
4150,-0.005,-0.05,
4151,-0.015,-0.045,
4152,0.0,-0.04,
4153,0.02,-0.025,
4154,0.035,-0.03,
4155,0.02,-0.04,
4156,0.01,-0.05,
4157,0.01,-0.05,
4158,0.015,-0.04,
4159,0.03,-0.025,
4160,0.025,-0.03,
4161,0.035,-0.035,
4162,0.02,-0.06,
4163,0.015,-0.05,
4164,0.025,-0.045,
4165,0.045,-0.025,
4166,0.05,-0.025,
4167,0.05,-0.035,
4168,0.035,-0.045,
4169,0.025,-0.03,
4170,0.03,-0.025,
4171,0.035,-0.005,
4172,0.055,-0.02,
4173,0.05,-0.035,
4174,0.035,-0.035,
4175,0.04,-0.025,
4176,0.04,-0.005,
4177,0.055,-0.005,
4178,0.06,-0.005,
4179,0.045,-0.03,
4180,0.04,-0.025,
4181,0.04,-0.025,
4182,0.03,0.0,
4183,0.055,0.0,
4184,0.05,-0.01,
4185,0.025,-0.02,
4186,0.025,-0.035,
4187,0.03,-0.035,
4188,0.025,-0.02,
4189,0.045,-0.005,
4190,0.05,0.0,
4191,0.025,-0.015,
4192,0.02,-0.04,
4193,0.015,-0.025,
4194,0.01,-0.02,
4195,0.01,-0.02,
4196,0.01,-0.04,
4197,-0.01,-0.05,
4198,-0.02,-0.06,
4199,-0.035,-0.055,
4200,-0.03,-0.055,
4201,-0.025,-0.035,
4202,-0.01,-0.06,
4203,-0.02,-0.06,
4204,-0.04,-0.065,
4205,-0.04,-0.065,
4206,-0.035,-0.06,
4207,-0.035,-0.05,
4208,-0.03,-0.055,
4209,-0.03,-0.075,
4210,-0.05,-0.1,
4211,-0.07,-0.08,
4212,-0.07,-0.07,
4213,-0.06,-0.065,
4214,-0.055,-0.065,
4215,-0.055,-0.08,
4216,-0.075,-0.09,
4217,-0.09,-0.09,
4218,-0.08,-0.08,
4219,-0.08,-0.08,
4220,-0.07,-0.085,
4221,-0.065,-0.095,
4222,-0.09,-0.105,
4223,-0.09,-0.1,
4224,-0.09,-0.09,
4225,-0.08,-0.09,
4226,-0.06,-0.07,
4227,-0.075,-0.09,
4228,-0.08,-0.11,
4229,-0.1,-0.1,
4230,-0.1,-0.095,
4231,-0.08,-0.085,
4232,-0.07,-0.095,
4233,-0.085,-0.1,
4234,-0.085,-0.11,
4235,-0.09,-0.1,
4236,-0.09,-0.09,
4237,-0.08,-0.09,
4238,-0.065,-0.09,
4239,-0.07,-0.1,
4240,-0.085,-0.115,
4241,-0.085,-0.1,
4242,-0.105,-0.1,
4243,-0.08,-0.075,
4244,-0.065,-0.095,
4245,-0.065,-0.105,
4246,-0.08,-0.11,
4247,-0.085,-0.125,
4248,-0.07,-0.11,
4249,-0.065,-0.095,
4250,-0.05,-0.1,
4251,-0.07,-0.115,
4252,-0.08,-0.125,
4253,-0.085,-0.115,
4254,-0.075,-0.1,
4255,-0.065,-0.1,
4256,-0.05,-0.095,
4257,-0.065,-0.11,
4258,-0.08,-0.125,
4259,-0.075,-0.105,
4260,-0.07,-0.105,
4261,-0.07,-0.1,
4262,-0.055,-0.1,
4263,-0.04,-0.125,
4264,-0.07,-0.12,
4265,-0.085,-0.12,
4266,-0.085,-0.11,
4267,-0.065,-0.095,
4268,-0.05,-0.1,
4269,-0.07,-0.125,
4270,-0.055,-0.125,
4271,-0.065,-0.12,
4272,-0.065,-0.1,
4273,-0.05,-0.1,
4274,-0.06,-0.09,
4275,-0.055,-0.115,
4276,-0.065,-0.125,
4277,-0.06,-0.12,
4278,-0.065,-0.1,
4279,-0.045,-0.09,
4280,-0.03,-0.105,
4281,-0.035,-0.11,
4282,-0.065,-0.125,
4283,-0.065,-0.125,
4284,-0.055,-0.115,
4285,-0.04,-0.085,
4286,-0.045,-0.1,
4287,-0.05,-0.115,
4288,-0.06,-0.12,
4289,-0.075,-0.125,
4290,-0.055,-0.095,
4291,-0.045,-0.095,
4292,-0.025,-0.095,
4293,-0.045,-0.105,
4294,-0.065,-0.12,
4295,-0.065,-0.12,
4296,-0.05,-0.1,
4297,-0.04,-0.085,
4298,-0.03,-0.095,
4299,-0.035,-0.115,
4300,-0.06,-0.13,
4301,-0.065,-0.13,
4302,-0.06,-0.105,
4303,-0.04,-0.085,
4304,-0.03,-0.095,
4305,-0.05,-0.105,
4306,-0.055,-0.11,
4307,-0.065,-0.12,
4308,-0.055,-0.1,
4309,-0.04,-0.085,
4310,-0.025,-0.1,
4311,-0.04,-0.105,
4312,-0.045,-0.11,
4313,-0.06,-0.115,
4314,-0.06,-0.105,
4315,-0.05,-0.09,
4316,-0.03,-0.095,
4317,-0.06,-0.105,
4318,-0.05,-0.12,
4319,-0.06,-0.12,
4320,-0.045,-0.11,
4321,-0.04,-0.085,
4322,-0.03,-0.09,
4323,-0.045,-0.115,
4324,-0.06,-0.135,
4325,-0.06,-0.12,
4326,-0.045,-0.095,
4327,-0.035,-0.085,
4328,-0.035,-0.09,
4329,-0.04,-0.115,
4330,-0.05,-0.115,
4331,-0.055,-0.11,
4332,-0.045,-0.1,
4333,-0.03,-0.08,
4334,-0.045,-0.085,
4335,-0.04,-0.1,
4336,-0.05,-0.11,
4337,-0.07,-0.11,
4338,-0.055,-0.105,
4339,-0.045,-0.09,
4340,-0.025,-0.1,
4341,-0.03,-0.095,
4342,-0.05,-0.095,
4343,-0.05,-0.085,
4344,-0.055,-0.075,
4345,-0.03,-0.04,
4346,-0.01,-0.035,
4347,0.0,-0.05,
4348,-0.005,-0.06,
4349,-0.01,-0.06,
4350,0.01,-0.03,
4351,0.02,-0.025,
4352,0.04,-0.03,
4353,0.05,-0.05,
4354,0.045,-0.08,
4355,0.06,-0.095,
4356,0.095,-0.115,
4357,0.14,-0.13,
4358,0.15,-0.135,
4359,0.145,-0.155,
4360,0.15,-0.155,
4361,0.135,-0.16,
4362,0.145,-0.155,
4363,0.145,-0.13,
4364,0.135,-0.13,
4365,0.11,-0.13,
4366,0.085,-0.14,
4367,0.055,-0.105,
4368,0.075,-0.1,
4369,0.07,-0.065,
4370,0.075,-0.07,
4371,0.06,-0.105,
4372,0.02,-0.115,
4373,0.0,-0.11,
4374,-0.05,-0.095,
4375,-0.04,-0.1,
4376,-0.04,-0.095,
4377,-0.065,-0.11,
4378,-0.09,-0.115,
4379,-0.105,-0.12,
4380,-0.095,-0.115,
4381,-0.085,-0.1,
4382,-0.08,-0.1,
4383,-0.09,-0.115,
4384,-0.1,-0.14,
4385,-0.1,-0.12,
4386,-0.1,-0.1,
4387,-0.08,-0.085,
4388,-0.065,-0.09,
4389,-0.085,-0.095,
4390,-0.085,-0.085,
4391,-0.08,-0.025,
4392,-0.065,0.03,
4393,-0.05,0.05,
4394,-0.05,0.01,
4395,-0.06,-0.11,
4396,-0.075,-0.255,
4397,-0.1,-0.465,
4398,-0.095,-0.67,
4399,-0.045,-0.85,
4400,0.06,-1.015,
4401,0.18,-1.105,
4402,0.3,-1.12,
4403,0.46,-1.01,
4404,0.59,-0.86,
4405,0.65,-0.695,N
4406,0.58,-0.545,
4407,0.365,-0.4,
4408,0.15,-0.28,
4409,-0.005,-0.145,
4410,-0.085,-0.045,
4411,-0.105,-0.01,
4412,-0.09,0.0,
4413,-0.085,-0.01,
4414,-0.095,-0.02,
4415,-0.115,-0.02,
4416,-0.115,0.0,
4417,-0.105,0.015,
4418,-0.09,-0.005,
4419,-0.095,-0.01,
4420,-0.115,-0.035,
4421,-0.105,-0.025,
4422,-0.105,-0.02,
4423,-0.105,-0.015,
4424,-0.09,-0.015,
4425,-0.09,-0.02,
4426,-0.115,-0.04,
4427,-0.115,-0.04,
4428,-0.1,-0.015,
4429,-0.085,-0.015,
4430,-0.08,-0.01,
4431,-0.08,-0.02,
4432,-0.1,-0.04,
4433,-0.1,-0.03,
4434,-0.085,-0.02,
4435,-0.09,0.005,
4436,-0.085,-0.015,
4437,-0.09,-0.04,
4438,-0.1,-0.04,
4439,-0.105,-0.025,
4440,-0.11,-0.025,
4441,-0.09,-0.005,
4442,-0.07,-0.01,
4443,-0.095,-0.015,
4444,-0.08,-0.035,
4445,-0.095,-0.02,
4446,-0.075,-0.015,
4447,-0.065,-0.005,
4448,-0.06,-0.025,
4449,-0.055,-0.04,
4450,-0.075,-0.04,
4451,-0.08,-0.04,
4452,-0.075,-0.02,
4453,-0.055,-0.005,
4454,-0.055,-0.02,
4455,-0.05,-0.03,
4456,-0.06,-0.06,
4457,-0.06,-0.035,
4458,-0.06,-0.025,
4459,-0.07,-0.015,
4460,-0.05,-0.02,
4461,-0.05,-0.035,
4462,-0.055,-0.045,
4463,-0.07,-0.03,
4464,-0.05,-0.025,
4465,-0.035,-0.01,
4466,-0.02,-0.02,
4467,-0.03,-0.02,
4468,-0.055,-0.025,
4469,-0.05,-0.015,
4470,-0.04,0.0,
4471,-0.035,0.005,
4472,-0.025,-0.01,
4473,-0.035,-0.03,
4474,-0.05,-0.035,
4475,-0.05,-0.01,
4476,-0.04,0.0,
4477,-0.035,-0.005,
4478,-0.03,0.0,
4479,-0.03,-0.03,
4480,-0.035,-0.025,
4481,-0.045,-0.035,
4482,-0.04,-0.025,
4483,-0.045,-0.02,
4484,-0.03,-0.025,
4485,-0.04,-0.035,
4486,-0.05,-0.04,
4487,-0.05,-0.035,
4488,-0.05,-0.03,
4489,-0.04,-0.025,
4490,-0.05,-0.01,
4491,-0.075,-0.02,
4492,-0.085,-0.035,
4493,-0.105,-0.045,
4494,-0.095,-0.035,
4495,-0.095,-0.03,
4496,-0.09,-0.03,
4497,-0.115,-0.065,
4498,-0.12,-0.06,
4499,-0.125,-0.06,
4500,-0.115,-0.045,
4501,-0.115,-0.03,
4502,-0.105,-0.055,
4503,-0.115,-0.07,
4504,-0.13,-0.075,
4505,-0.135,-0.09,
4506,-0.13,-0.075,
4507,-0.12,-0.065,
4508,-0.115,-0.06,
4509,-0.135,-0.075,
4510,-0.15,-0.08,
4511,-0.155,-0.09,
4512,-0.15,-0.07,
4513,-0.175,-0.07,
4514,-0.145,-0.07,
4515,-0.155,-0.07,
4516,-0.165,-0.08,
4517,-0.17,-0.08,
4518,-0.165,-0.07,
4519,-0.165,-0.065,
4520,-0.15,-0.075,
4521,-0.15,-0.085,
4522,-0.16,-0.1,
4523,-0.18,-0.1,
4524,-0.18,-0.08,
4525,-0.165,-0.08,
4526,-0.15,-0.085,
4527,-0.15,-0.1,
4528,-0.17,-0.11,
4529,-0.185,-0.115,
4530,-0.175,-0.09,
4531,-0.155,-0.075,
4532,-0.155,-0.085,
4533,-0.155,-0.1,
4534,-0.17,-0.11,
4535,-0.185,-0.095,
4536,-0.19,-0.1,
4537,-0.18,-0.085,
4538,-0.17,-0.085,
4539,-0.16,-0.105,
4540,-0.17,-0.11,
4541,-0.17,-0.11,
4542,-0.17,-0.09,
4543,-0.15,-0.09,
4544,-0.145,-0.1,
4545,-0.15,-0.11,
4546,-0.16,-0.125,
4547,-0.165,-0.11,
4548,-0.155,-0.09,
4549,-0.14,-0.095,
4550,-0.145,-0.1,
4551,-0.145,-0.105,
4552,-0.165,-0.115,
4553,-0.155,-0.12,
4554,-0.165,-0.115,
4555,-0.135,-0.1,
4556,-0.14,-0.105,
4557,-0.135,-0.13,
4558,-0.155,-0.135,
4559,-0.165,-0.12,
4560,-0.16,-0.11,
4561,-0.14,-0.105,
4562,-0.145,-0.11,
4563,-0.135,-0.125,
4564,-0.16,-0.14,
4565,-0.15,-0.125,
4566,-0.16,-0.115,
4567,-0.145,-0.12,
4568,-0.145,-0.12,
4569,-0.16,-0.14,
4570,-0.16,-0.15,
4571,-0.165,-0.125,
4572,-0.155,-0.12,
4573,-0.155,-0.11,
4574,-0.135,-0.095,
4575,-0.135,-0.115,
4576,-0.14,-0.125,
4577,-0.16,-0.125,
4578,-0.13,-0.12,
4579,-0.12,-0.11,
4580,-0.125,-0.115,
4581,-0.14,-0.125,
4582,-0.15,-0.135,
4583,-0.145,-0.125,
4584,-0.13,-0.13,
4585,-0.13,-0.115,
4586,-0.12,-0.12,
4587,-0.14,-0.14,
4588,-0.15,-0.14,
4589,-0.145,-0.13,
4590,-0.145,-0.115,
4591,-0.13,-0.095,
4592,-0.13,-0.115,
4593,-0.135,-0.15,
4594,-0.14,-0.155,
4595,-0.15,-0.145,
4596,-0.125,-0.13,
4597,-0.13,-0.11,
4598,-0.135,-0.135,
4599,-0.125,-0.14,
4600,-0.15,-0.15,
4601,-0.16,-0.13,
4602,-0.14,-0.13,
4603,-0.12,-0.12,
4604,-0.12,-0.135,
4605,-0.13,-0.14,
4606,-0.145,-0.145,
4607,-0.15,-0.13,
4608,-0.155,-0.14,
4609,-0.145,-0.115,
4610,-0.14,-0.125,
4611,-0.13,-0.125,
4612,-0.15,-0.145,
4613,-0.155,-0.135,
4614,-0.155,-0.13,
4615,-0.125,-0.115,
4616,-0.12,-0.115,
4617,-0.115,-0.14,
4618,-0.125,-0.145,
4619,-0.13,-0.145,
4620,-0.14,-0.13,
4621,-0.125,-0.11,
4622,-0.12,-0.12,
4623,-0.125,-0.14,
4624,-0.13,-0.13,
4625,-0.14,-0.125,
4626,-0.13,-0.115,
4627,-0.11,-0.11,
4628,-0.095,-0.12,
4629,-0.11,-0.11,
4630,-0.105,-0.1,
4631,-0.12,-0.1,
4632,-0.115,-0.065,
4633,-0.095,-0.055,
4634,-0.065,-0.06,
4635,-0.065,-0.06,
4636,-0.055,-0.075,
4637,-0.055,-0.07,
4638,-0.035,-0.055,
4639,-0.005,-0.04,
4640,0.015,-0.055,
4641,0.02,-0.085,
4642,0.03,-0.14,
4643,0.045,-0.16,
4644,0.06,-0.165,
4645,0.085,-0.16,
4646,0.095,-0.145,
4647,0.08,-0.17,
4648,0.07,-0.17,
4649,0.06,-0.17,
4650,0.05,-0.14,
4651,0.045,-0.105,
4652,0.035,-0.115,
4653,0.025,-0.125,
4654,-0.015,-0.155,
4655,-0.035,-0.14,
4656,-0.065,-0.14,
4657,-0.08,-0.125,
4658,-0.09,-0.14,
4659,-0.13,-0.155,
4660,-0.145,-0.175,
4661,-0.165,-0.17,
4662,-0.17,-0.15,
4663,-0.17,-0.135,
4664,-0.155,-0.135,
4665,-0.16,-0.145,
4666,-0.175,-0.16,
4667,-0.185,-0.165,
4668,-0.18,-0.15,
4669,-0.16,-0.145,
4670,-0.165,-0.14,
4671,-0.165,-0.16,
4672,-0.2,-0.155,
4673,-0.18,-0.14,
4674,-0.19,-0.135,
4675,-0.18,-0.12,
4676,-0.16,-0.09,
4677,-0.16,-0.065,
4678,-0.175,-0.05,
4679,-0.165,-0.065,
4680,-0.16,-0.11,
4681,-0.155,-0.18,
4682,-0.185,-0.315,
4683,-0.215,-0.505,
4684,-0.24,-0.705,
4685,-0.205,-0.86,
4686,-0.125,-0.98,
4687,-0.005,-1.015,
4688,0.13,-1.025,
4689,0.25,-0.95,
4690,0.315,-0.83,N
4691,0.295,-0.68,
4692,0.19,-0.51,
4693,0.02,-0.37,
4694,-0.155,-0.265,
4695,-0.24,-0.165,
4696,-0.275,-0.11,
4697,-0.26,-0.08,
4698,-0.195,-0.06,
4699,-0.145,-0.065,
4700,-0.145,-0.055,
4701,-0.155,-0.07,
4702,-0.155,-0.075,
4703,-0.18,-0.085,
4704,-0.16,-0.075,
4705,-0.14,-0.065,
4706,-0.14,-0.065,
4707,-0.145,-0.065,
4708,-0.18,-0.085,
4709,-0.195,-0.085,
4710,-0.18,-0.065,
4711,-0.155,-0.065,
4712,-0.15,-0.06,
4713,-0.15,-0.065,
4714,-0.15,-0.08,
4715,-0.155,-0.075,
4716,-0.14,-0.065,
4717,-0.135,-0.055,
4718,-0.125,-0.06,
4719,-0.13,-0.085,
4720,-0.14,-0.085,
4721,-0.145,-0.075,
4722,-0.175,-0.055,
4723,-0.145,-0.05,
4724,-0.14,-0.05,
4725,-0.155,-0.07,
4726,-0.175,-0.075,
4727,-0.155,-0.075,
4728,-0.145,-0.05,
4729,-0.12,-0.05,
4730,-0.115,-0.05,
4731,-0.125,-0.06,
4732,-0.145,-0.08,
4733,-0.155,-0.085,
4734,-0.14,-0.07,
4735,-0.125,-0.06,
4736,-0.115,-0.06,
4737,-0.13,-0.075,
4738,-0.13,-0.08,
4739,-0.15,-0.075,
4740,-0.135,-0.065,
4741,-0.12,-0.04,
4742,-0.105,-0.045,
4743,-0.115,-0.06,
4744,-0.12,-0.065,
4745,-0.125,-0.08,
4746,-0.12,-0.07,
4747,-0.125,-0.05,
4748,-0.13,-0.055,
4749,-0.12,-0.07,
4750,-0.14,-0.075,
4751,-0.15,-0.08,
4752,-0.145,-0.065,
4753,-0.13,-0.05,
4754,-0.13,-0.055,
4755,-0.14,-0.065,
4756,-0.155,-0.085,
4757,-0.15,-0.08,
4758,-0.135,-0.075,
4759,-0.12,-0.055,
4760,-0.125,-0.055,
4761,-0.12,-0.07,
4762,-0.165,-0.075,
4763,-0.17,-0.085,
4764,-0.155,-0.075,
4765,-0.145,-0.065,
4766,-0.135,-0.07,
4767,-0.14,-0.075,
4768,-0.16,-0.095,
4769,-0.18,-0.095,
4770,-0.17,-0.085,
4771,-0.17,-0.065,
4772,-0.17,-0.085,
4773,-0.195,-0.09,
4774,-0.205,-0.11,
4775,-0.225,-0.1,
4776,-0.215,-0.085,
4777,-0.195,-0.075,
4778,-0.205,-0.08,
4779,-0.22,-0.095,
4780,-0.22,-0.11,
4781,-0.235,-0.09,
4782,-0.23,-0.08,
4783,-0.23,-0.06,
4784,-0.22,-0.075,
4785,-0.22,-0.09,
4786,-0.24,-0.085,
4787,-0.24,-0.09,
4788,-0.23,-0.075,
4789,-0.225,-0.075,
4790,-0.22,-0.065,
4791,-0.24,-0.08,
4792,-0.245,-0.095,
4793,-0.245,-0.09,
4794,-0.235,-0.08,
4795,-0.235,-0.075,
4796,-0.22,-0.07,
4797,-0.23,-0.085,
4798,-0.245,-0.105,
4799,-0.25,-0.1,
4800,-0.25,-0.085,
4801,-0.225,-0.085,
4802,-0.215,-0.1,
4803,-0.22,-0.11,
4804,-0.23,-0.13,
4805,-0.245,-0.12,
4806,-0.235,-0.11,
4807,-0.22,-0.095,
4808,-0.22,-0.1,
4809,-0.215,-0.115,
4810,-0.215,-0.12,
4811,-0.225,-0.125,
4812,-0.225,-0.12,
4813,-0.22,-0.11,
4814,-0.2,-0.105,
4815,-0.22,-0.125,
4816,-0.23,-0.115,
4817,-0.235,-0.12,
4818,-0.225,-0.125,
4819,-0.22,-0.115,
4820,-0.185,-0.12,
4821,-0.2,-0.125,
4822,-0.2,-0.135,
4823,-0.21,-0.125,
4824,-0.2,-0.12,
4825,-0.19,-0.105,
4826,-0.185,-0.105,
4827,-0.175,-0.125,
4828,-0.2,-0.14,
4829,-0.205,-0.125,
4830,-0.2,-0.12,
4831,-0.19,-0.11,
4832,-0.175,-0.12,
4833,-0.175,-0.13,
4834,-0.2,-0.145,
4835,-0.21,-0.145,
4836,-0.19,-0.13,
4837,-0.17,-0.115,
4838,-0.16,-0.125,
4839,-0.165,-0.125,
4840,-0.175,-0.14,
4841,-0.17,-0.145,
4842,-0.175,-0.13,
4843,-0.155,-0.115,
4844,-0.15,-0.135,
4845,-0.16,-0.15,
4846,-0.175,-0.155,
4847,-0.165,-0.15,
4848,-0.155,-0.12,
4849,-0.14,-0.115,
4850,-0.14,-0.11,
4851,-0.14,-0.145,
4852,-0.15,-0.155,
4853,-0.15,-0.145,
4854,-0.15,-0.125,
4855,-0.14,-0.13,
4856,-0.13,-0.14,
4857,-0.135,-0.145,
4858,-0.145,-0.145,
4859,-0.14,-0.15,
4860,-0.135,-0.135,
4861,-0.135,-0.135,
4862,-0.135,-0.12,
4863,-0.135,-0.13,
4864,-0.13,-0.13,
4865,-0.14,-0.125,
4866,-0.125,-0.12,
4867,-0.13,-0.105,
4868,-0.105,-0.115,
4869,-0.135,-0.125,
4870,-0.12,-0.145,
4871,-0.13,-0.13,
4872,-0.13,-0.12,
4873,-0.11,-0.11,
4874,-0.1,-0.12,
4875,-0.11,-0.115,
4876,-0.12,-0.135,
4877,-0.115,-0.13,
4878,-0.115,-0.12,
4879,-0.105,-0.12,
4880,-0.11,-0.12,
4881,-0.105,-0.12,
4882,-0.105,-0.14,
4883,-0.1,-0.135,
4884,-0.11,-0.115,
4885,-0.08,-0.11,
4886,-0.085,-0.125,
4887,-0.095,-0.135,
4888,-0.095,-0.14,
4889,-0.105,-0.125,
4890,-0.095,-0.125,
4891,-0.09,-0.115,
4892,-0.07,-0.12,
4893,-0.08,-0.125,
4894,-0.09,-0.16,
4895,-0.105,-0.14,
4896,-0.095,-0.125,
4897,-0.09,-0.105,
4898,-0.085,-0.12,
4899,-0.075,-0.135,
4900,-0.09,-0.155,
4901,-0.105,-0.15,
4902,-0.085,-0.125,
4903,-0.085,-0.12,
4904,-0.075,-0.115,
4905,-0.075,-0.14,
4906,-0.09,-0.145,
4907,-0.09,-0.135,
4908,-0.085,-0.125,
4909,-0.07,-0.11,
4910,-0.055,-0.125,
4911,-0.065,-0.125,
4912,-0.07,-0.12,
4913,-0.07,-0.1,
4914,-0.05,-0.08,
4915,-0.03,-0.055,
4916,-0.02,-0.055,
4917,-0.015,-0.075,
4918,-0.01,-0.085,
4919,-0.005,-0.08,
4920,0.01,-0.055,
4921,0.03,-0.04,
4922,0.055,-0.04,
4923,0.065,-0.065,
4924,0.065,-0.08,
4925,0.09,-0.1,
4926,0.115,-0.1,
4927,0.15,-0.13,
4928,0.18,-0.15,
4929,0.18,-0.17,
4930,0.175,-0.165,
4931,0.17,-0.17,
4932,0.165,-0.16,
4933,0.175,-0.14,
4934,0.18,-0.13,
4935,0.16,-0.14,
4936,0.115,-0.155,
4937,0.085,-0.135,
4938,0.09,-0.115,
4939,0.085,-0.115,
4940,0.07,-0.115,
4941,0.045,-0.135,
4942,0.005,-0.15,
4943,-0.03,-0.145,
4944,-0.025,-0.14,
4945,-0.03,-0.135,
4946,-0.04,-0.14,
4947,-0.045,-0.145,
4948,-0.07,-0.15,
4949,-0.08,-0.145,
4950,-0.08,-0.135,
4951,-0.05,-0.13,
4952,-0.055,-0.135,
4953,-0.06,-0.15,
4954,-0.085,-0.16,
4955,-0.07,-0.145,
4956,-0.065,-0.145,
4957,-0.045,-0.12,
4958,-0.045,-0.12,
4959,-0.04,-0.125,
4960,-0.035,-0.1,
4961,-0.055,-0.06,
4962,-0.04,-0.005,
4963,-0.025,0.015,
4964,-0.03,-0.05,
4965,-0.03,-0.135,
4966,-0.055,-0.24,
4967,-0.065,-0.375,
4968,-0.055,-0.53,
4969,-0.025,-0.715,
4970,0.06,-0.915,
4971,0.18,-1.055,
4972,0.325,-1.11,
4973,0.465,-1.05,
4974,0.635,-0.925,
4975,0.715,-0.765,N
4976,0.705,-0.605,
4977,0.54,-0.455,
4978,0.3,-0.3,
4979,0.1,-0.18,
4980,-0.005,-0.08,
4981,-0.025,-0.03,
4982,0.0,-0.035,
4983,-0.005,-0.045,
4984,-0.02,-0.06,
4985,-0.03,-0.045,
4986,-0.025,-0.04,
4987,-0.025,-0.03,
4988,-0.02,-0.035,
4989,-0.02,-0.05,
4990,-0.03,-0.06,
4991,-0.04,-0.045,
4992,-0.04,-0.04,
4993,-0.025,-0.035,
4994,-0.025,-0.035,
4995,-0.045,-0.05,
4996,-0.06,-0.07,
4997,-0.065,-0.055,
4998,-0.035,-0.045,
4999,-0.025,-0.015,
5000,-0.025,-0.04,
5001,-0.035,-0.055,
5002,-0.045,-0.07,
5003,-0.055,-0.04,
5004,-0.035,-0.04,
5005,-0.01,-0.025,
5006,-0.015,-0.025,
5007,-0.01,-0.035,
5008,-0.04,-0.05,
5009,-0.065,-0.04,
5010,-0.035,-0.035,
5011,-0.02,-0.03,
5012,-0.005,-0.035,
5013,-0.02,-0.04,
5014,-0.015,-0.055,
5015,-0.02,-0.055,
5016,-0.02,-0.035,
5017,-0.005,-0.03,
5018,-0.015,-0.02,
5019,-0.015,-0.05,
5020,-0.02,-0.065,
5021,-0.015,-0.06,
5022,-0.025,-0.045,
5023,0.0,-0.025,
5024,-0.005,-0.04,
5025,-0.01,-0.045,
5026,-0.025,-0.06,
5027,-0.025,-0.065,
5028,-0.02,-0.045,
5029,-0.01,-0.03,
5030,0.005,-0.035,
5031,0.0,-0.04,
5032,-0.02,-0.055,
5033,-0.015,-0.045,
5034,-0.005,-0.045,
5035,0.01,-0.025,
5036,0.015,-0.04,
5037,0.01,-0.065,
5038,-0.015,-0.065,
5039,-0.01,-0.05,
5040,-0.005,-0.045,
5041,0.005,-0.03,
5042,0.015,-0.03,
5043,0.005,-0.04,
5044,0.005,-0.055,
5045,-0.02,-0.05,
5046,0.005,-0.035,
5047,0.015,-0.025,
5048,0.02,-0.04,
5049,0.015,-0.045,
5050,0.0,-0.06,
5051,-0.005,-0.05,
5052,0.0,-0.04,
5053,0.015,-0.03,
5054,0.015,-0.04,
5055,0.01,-0.055,
5056,-0.015,-0.06,
5057,-0.02,-0.045,
5058,-0.005,-0.04,
5059,-0.005,-0.03,
5060,0.0,-0.05,
5061,-0.01,-0.055,
5062,-0.02,-0.065,
5063,-0.025,-0.06,
5064,-0.035,-0.045,
5065,-0.025,-0.035,
5066,-0.035,-0.04,
5067,-0.025,-0.065,
5068,-0.045,-0.085,
5069,-0.055,-0.065,
5070,-0.05,-0.07,
5071,-0.04,-0.06,
5072,-0.045,-0.07,
5073,-0.065,-0.085,
5074,-0.07,-0.095,
5075,-0.065,-0.085,
5076,-0.055,-0.08,
5077,-0.04,-0.075,
5078,-0.04,-0.08,
5079,-0.065,-0.09,
5080,-0.07,-0.1,
5081,-0.065,-0.105,
5082,-0.065,-0.085,
5083,-0.05,-0.065,
5084,-0.055,-0.075,
5085,-0.065,-0.095,
5086,-0.065,-0.11,
5087,-0.085,-0.1,
5088,-0.07,-0.1,
5089,-0.06,-0.08,
5090,-0.055,-0.085,
5091,-0.065,-0.1,
5092,-0.075,-0.11,
5093,-0.06,-0.115,
5094,-0.08,-0.1,
5095,-0.065,-0.105,
5096,-0.05,-0.11,
5097,-0.065,-0.12,
5098,-0.08,-0.12,
5099,-0.08,-0.11,
5100,-0.08,-0.1,
5101,-0.065,-0.095,
5102,-0.055,-0.1,
5103,-0.06,-0.115,
5104,-0.06,-0.125,
5105,-0.09,-0.11,
5106,-0.075,-0.1,
5107,-0.05,-0.08,
5108,-0.045,-0.095,
5109,-0.055,-0.11,
5110,-0.05,-0.11,
5111,-0.065,-0.12,
5112,-0.06,-0.1,
5113,-0.04,-0.095,
5114,-0.04,-0.095,
5115,-0.04,-0.12,
5116,-0.06,-0.12,
5117,-0.06,-0.115,
5118,-0.055,-0.1,
5119,-0.05,-0.105,
5120,-0.04,-0.115,
5121,-0.04,-0.11,
5122,-0.055,-0.135,
5123,-0.06,-0.125,
5124,-0.045,-0.11,
5125,-0.04,-0.095,
5126,-0.03,-0.105,
5127,-0.025,-0.12,
5128,-0.05,-0.135,
5129,-0.06,-0.13,
5130,-0.045,-0.115,
5131,-0.03,-0.105,
5132,-0.015,-0.105,
5133,-0.035,-0.135,
5134,-0.035,-0.125,
5135,-0.05,-0.125,
5136,-0.04,-0.11,
5137,-0.02,-0.11,
5138,-0.005,-0.115,
5139,-0.025,-0.13,
5140,-0.03,-0.13,
5141,-0.025,-0.13,
5142,-0.025,-0.115,
5143,-0.005,-0.1,
5144,-0.005,-0.115,
5145,-0.01,-0.13,
5146,-0.025,-0.14,
5147,-0.025,-0.14,
5148,-0.01,-0.13,
5149,0.0,-0.11,
5150,-0.005,-0.115,
5151,0.0,-0.13,
5152,-0.02,-0.145,
5153,-0.02,-0.13,
5154,-0.01,-0.12,
5155,-0.005,-0.105,
5156,0.005,-0.115,
5157,0.01,-0.12,
5158,-0.01,-0.13,
5159,-0.03,-0.13,
5160,-0.01,-0.12,
5161,0.01,-0.115,
5162,0.015,-0.105,
5163,-0.005,-0.125,
5164,-0.01,-0.135,
5165,-0.005,-0.15,
5166,0.005,-0.12,
5167,0.01,-0.105,
5168,0.015,-0.115,
5169,0.025,-0.13,
5170,0.01,-0.14,
5171,0.005,-0.135,
5172,0.01,-0.11,
5173,0.02,-0.095,
5174,0.02,-0.095,
5175,0.025,-0.09,
5176,0.015,-0.105,
5177,0.015,-0.085,
5178,0.035,-0.06,
5179,0.05,-0.055,
5180,0.065,-0.055,
5181,0.075,-0.07,
5182,0.065,-0.075,
5183,0.065,-0.07,
5184,0.09,-0.055,
5185,0.11,-0.03,
5186,0.135,-0.035,
5187,0.155,-0.05,
5188,0.155,-0.08,
5189,0.19,-0.095,
5190,0.235,-0.105,
5191,0.265,-0.105,
5192,0.28,-0.145,
5193,0.265,-0.16,
5194,0.25,-0.175,
5195,0.24,-0.15,
5196,0.225,-0.13,
5197,0.205,-0.11,
5198,0.2,-0.11,
5199,0.185,-0.12,
5200,0.14,-0.14,
5201,0.105,-0.145,
5202,0.085,-0.135,
5203,0.065,-0.12,
5204,0.04,-0.135,
5205,0.015,-0.15,
5206,-0.005,-0.155,
5207,-0.02,-0.15,
5208,-0.025,-0.145,
5209,-0.02,-0.145,
5210,-0.02,-0.13,
5211,-0.02,-0.13,
5212,-0.03,-0.155,
5213,-0.04,-0.155,
5214,-0.03,-0.135,
5215,-0.015,-0.125,
5216,-0.01,-0.11,
5217,-0.03,-0.115,
5218,-0.015,-0.135,
5219,-0.025,-0.115,
5220,-0.02,-0.07,
5221,0.0,-0.025,
5222,0.01,0.01,
5223,0.005,0.0,
5224,-0.015,-0.035,
5225,-0.01,-0.08,
5226,-0.025,-0.16,
5227,-0.02,-0.28,
5228,-0.015,-0.485,
5229,-0.03,-0.725,
5230,0.015,-0.94,
5231,0.13,-1.095,
5232,0.325,-1.13,
5233,0.495,-1.06,
5234,0.655,-0.94,
5235,0.715,-0.81,N
5236,0.685,-0.675,
5237,0.54,-0.515,
5238,0.33,-0.365,
5239,0.14,-0.23,
5240,0.02,-0.14,
5241,-0.05,-0.1,
5242,-0.05,-0.075,
5243,-0.045,-0.055,
5244,-0.015,-0.045,
5245,-0.005,-0.015,
5246,0.005,-0.015,
5247,0.005,-0.03,
5248,-0.01,-0.055,
5249,-0.015,-0.055,
5250,-0.005,-0.045,
5251,0.0,-0.025,
5252,0.005,-0.035,
5253,-0.015,-0.045,
5254,-0.005,-0.055,
5255,-0.02,-0.065,
5256,-0.01,-0.045,
5257,0.005,-0.035,
5258,0.01,-0.04,
5259,0.01,-0.055,
5260,-0.01,-0.065,
5261,-0.015,-0.065,
5262,-0.01,-0.045,
5263,0.01,-0.035,
5264,0.02,-0.04,
5265,0.015,-0.06,
5266,0.005,-0.07,
5267,0.005,-0.07,
5268,0.005,-0.06,
5269,0.025,-0.04,
5270,0.02,-0.045,
5271,0.025,-0.045,
5272,0.015,-0.06,
5273,0.0,-0.05,
5274,0.0,-0.035,
5275,0.02,-0.03,
5276,0.03,-0.045,
5277,0.025,-0.045,
5278,0.005,-0.065,
5279,-0.005,-0.06,
5280,0.005,-0.05,
5281,0.03,-0.035,
5282,0.035,-0.04,
5283,0.025,-0.06,
5284,0.015,-0.06,
5285,0.015,-0.065,
5286,0.025,-0.05,
5287,0.015,-0.03,
5288,0.04,-0.04,
5289,0.03,-0.035,
5290,0.015,-0.055,
5291,0.01,-0.055,
5292,0.005,-0.045,
5293,0.01,-0.03,
5294,0.04,-0.03,
5295,0.035,-0.045,
5296,0.03,-0.05,
5297,0.025,-0.04,
5298,0.025,-0.03,
5299,0.025,-0.02,
5300,0.035,-0.03,
5301,0.045,-0.035,
5302,0.025,-0.055,
5303,0.015,-0.05,
5304,0.035,-0.025,
5305,0.04,-0.015,
5306,0.045,-0.02,
5307,0.025,-0.04,
5308,0.015,-0.04,
5309,0.015,-0.03,
5310,0.02,-0.025,
5311,0.04,-0.015,
5312,0.025,-0.025,
5313,0.045,-0.045,
5314,0.03,-0.04,
5315,0.025,-0.04,
5316,0.02,-0.03,
5317,0.03,-0.015,
5318,0.035,-0.025,
5319,0.025,-0.04,
5320,0.015,-0.045,
5321,-0.005,-0.04,
5322,0.01,-0.02,
5323,0.02,-0.015,
5324,0.025,-0.03,
5325,0.025,-0.04,
5326,0.005,-0.065,
5327,-0.01,-0.06,
5328,-0.01,-0.04,
5329,-0.01,-0.025,
5330,0.0,-0.03,
5331,-0.03,-0.05,
5332,-0.035,-0.065,
5333,-0.05,-0.065,
5334,-0.035,-0.045,
5335,-0.04,-0.04,
5336,-0.025,-0.055,
5337,-0.04,-0.065,
5338,-0.065,-0.085,
5339,-0.075,-0.08,
5340,-0.07,-0.065,
5341,-0.055,-0.06,
5342,-0.065,-0.075,
5343,-0.07,-0.085,
5344,-0.085,-0.105,
5345,-0.09,-0.105,
5346,-0.09,-0.085,
5347,-0.075,-0.07,
5348,-0.085,-0.09,
5349,-0.085,-0.09,
5350,-0.1,-0.1,
5351,-0.1,-0.11,
5352,-0.105,-0.085,
5353,-0.08,-0.08,
5354,-0.1,-0.09,
5355,-0.095,-0.1,
5356,-0.095,-0.105,
5357,-0.105,-0.1,
5358,-0.115,-0.1,
5359,-0.105,-0.08,
5360,-0.1,-0.105,
5361,-0.105,-0.1,
5362,-0.12,-0.11,
5363,-0.12,-0.11,
5364,-0.11,-0.09,
5365,-0.085,-0.09,
5366,-0.085,-0.085,
5367,-0.095,-0.1,
5368,-0.1,-0.11,
5369,-0.13,-0.115,
5370,-0.11,-0.105,
5371,-0.105,-0.095,
5372,-0.1,-0.1,
5373,-0.105,-0.105,
5374,-0.12,-0.12,
5375,-0.12,-0.115,
5376,-0.1,-0.105,
5377,-0.085,-0.1,
5378,-0.085,-0.1,
5379,-0.1,-0.115,
5380,-0.115,-0.125,
5381,-0.11,-0.13,
5382,-0.115,-0.11,
5383,-0.095,-0.09,
5384,-0.09,-0.105,
5385,-0.105,-0.12,
5386,-0.115,-0.13,
5387,-0.12,-0.135,
5388,-0.115,-0.125,
5389,-0.095,-0.1,
5390,-0.09,-0.095,
5391,-0.11,-0.115,
5392,-0.135,-0.13,
5393,-0.115,-0.13,
5394,-0.105,-0.12,
5395,-0.1,-0.115,
5396,-0.08,-0.13,
5397,-0.09,-0.135,
5398,-0.095,-0.135,
5399,-0.11,-0.135,
5400,-0.105,-0.135,
5401,-0.095,-0.12,
5402,-0.08,-0.115,
5403,-0.085,-0.135,
5404,-0.095,-0.145,
5405,-0.095,-0.145,
5406,-0.09,-0.12,
5407,-0.085,-0.115,
5408,-0.08,-0.12,
5409,-0.065,-0.13,
5410,-0.075,-0.135,
5411,-0.1,-0.14,
5412,-0.07,-0.125,
5413,-0.06,-0.11,
5414,-0.055,-0.115,
5415,-0.065,-0.135,
5416,-0.085,-0.14,
5417,-0.08,-0.13,
5418,-0.09,-0.115,
5419,-0.08,-0.105,
5420,-0.07,-0.115,
5421,-0.08,-0.14,
5422,-0.095,-0.14,
5423,-0.09,-0.145,
5424,-0.09,-0.125,
5425,-0.07,-0.125,
5426,-0.06,-0.125,
5427,-0.07,-0.135,
5428,-0.08,-0.14,
5429,-0.085,-0.14,
5430,-0.07,-0.13,
5431,-0.06,-0.115,
5432,-0.05,-0.125,
5433,-0.05,-0.135,
5434,-0.075,-0.145,
5435,-0.09,-0.125,
5436,-0.075,-0.125,
5437,-0.055,-0.11,
5438,-0.055,-0.13,
5439,-0.07,-0.135,
5440,-0.08,-0.13,
5441,-0.09,-0.13,
5442,-0.08,-0.125,
5443,-0.075,-0.12,
5444,-0.055,-0.1,
5445,-0.07,-0.12,
5446,-0.065,-0.13,
5447,-0.08,-0.12,
5448,-0.07,-0.115,
5449,-0.05,-0.105,
5450,-0.055,-0.13,
5451,-0.065,-0.14,
5452,-0.085,-0.14,
5453,-0.075,-0.125,
5454,-0.075,-0.115,
5455,-0.05,-0.11,
5456,-0.06,-0.12,
5457,-0.07,-0.135,
5458,-0.095,-0.15,
5459,-0.09,-0.145,
5460,-0.075,-0.14,
5461,-0.06,-0.11,
5462,-0.045,-0.13,
5463,-0.065,-0.14,
5464,-0.075,-0.135,
5465,-0.085,-0.14,
5466,-0.085,-0.12,
5467,-0.08,-0.105,
5468,-0.07,-0.11,
5469,-0.08,-0.135,
5470,-0.08,-0.15,
5471,-0.085,-0.14,
5472,-0.085,-0.125,
5473,-0.06,-0.125,
5474,-0.05,-0.12,
5475,-0.055,-0.135,
5476,-0.065,-0.15,
5477,-0.08,-0.14,
5478,-0.08,-0.125,
5479,-0.055,-0.12,
5480,-0.045,-0.12,
5481,-0.07,-0.125,
5482,-0.07,-0.13,
5483,-0.095,-0.125,
5484,-0.08,-0.12,
5485,-0.07,-0.11,
5486,-0.065,-0.105,
5487,-0.065,-0.125,
5488,-0.09,-0.135,
5489,-0.08,-0.125,
5490,-0.065,-0.11,
5491,-0.055,-0.1,
5492,-0.055,-0.13,
5493,-0.055,-0.14,
5494,-0.075,-0.14,
5495,-0.08,-0.14,
5496,-0.08,-0.115,
5497,-0.07,-0.11,
5498,-0.03,-0.11,
5499,-0.045,-0.115,
5500,-0.06,-0.125,
5501,-0.07,-0.13,
5502,-0.065,-0.11,
5503,-0.045,-0.105,
5504,-0.045,-0.11,
5505,-0.05,-0.115,
5506,-0.06,-0.125,
5507,-0.065,-0.115,
5508,-0.065,-0.115,
5509,-0.06,-0.12,
5510,-0.04,-0.12,
5511,-0.045,-0.135,
5512,-0.055,-0.15,
5513,-0.06,-0.135,
5514,-0.04,-0.115,
5515,-0.03,-0.125,
5516,-0.025,-0.145,
5517,-0.015,-0.175,
5518,-0.01,-0.205,
5519,-0.025,-0.195,
5520,-0.005,-0.18,
5521,0.015,-0.17,
5522,0.025,-0.18,
5523,0.03,-0.19,
5524,0.03,-0.21,
5525,0.02,-0.21,
5526,0.025,-0.185,
5527,0.015,-0.16,
5528,0.01,-0.17,
5529,0.005,-0.175,
5530,-0.03,-0.17,
5531,-0.055,-0.145,
5532,-0.04,-0.115,
5533,-0.02,-0.1,
5534,-0.025,-0.1,
5535,-0.02,-0.115,
5536,-0.03,-0.13,
5537,-0.055,-0.13,
5538,-0.075,-0.115,
5539,-0.07,-0.095,
5540,-0.085,-0.09,
5541,-0.105,-0.115,
5542,-0.12,-0.125,
5543,-0.13,-0.13,
5544,-0.115,-0.12,
5545,-0.095,-0.105,
5546,-0.09,-0.11,
5547,-0.095,-0.135,
5548,-0.115,-0.15,
5549,-0.125,-0.135,
5550,-0.105,-0.11,
5551,-0.08,-0.105,
5552,-0.08,-0.11,
5553,-0.085,-0.125,
5554,-0.095,-0.13,
5555,-0.11,-0.105,
5556,-0.085,-0.08,
5557,-0.08,-0.04,
5558,-0.06,-0.005,
5559,-0.065,-0.015,
5560,-0.085,-0.06,
5561,-0.09,-0.135,
5562,-0.095,-0.245,
5563,-0.105,-0.395,
5564,-0.14,-0.575,
5565,-0.125,-0.74,
5566,-0.075,-0.855,
5567,0.0,-0.925,
5568,0.14,-0.975,
5569,0.255,-0.96,
5570,0.38,-0.915,
5571,0.455,-0.82,N
5572,0.475,-0.71,
5573,0.365,-0.55,
5574,0.17,-0.405,
5575,-0.015,-0.265,
5576,-0.14,-0.165,
5577,-0.185,-0.09,
5578,-0.195,-0.055,
5579,-0.18,-0.045,
5580,-0.11,-0.03,
5581,-0.065,-0.025,
5582,-0.055,-0.01,
5583,-0.07,-0.02,
5584,-0.08,-0.03,
5585,-0.08,-0.035,
5586,-0.075,-0.03,
5587,-0.06,-0.015,
5588,-0.05,-0.03,
5589,-0.065,-0.025,
5590,-0.085,-0.045,
5591,-0.08,-0.035,
5592,-0.065,-0.025,
5593,-0.045,-0.005,
5594,-0.045,-0.005,
5595,-0.055,-0.015,
5596,-0.06,-0.04,
5597,-0.075,-0.025,
5598,-0.05,-0.03,
5599,-0.045,-0.005,
5600,-0.035,-0.015,
5601,-0.035,-0.02,
5602,-0.06,-0.035,
5603,-0.065,-0.04,
5604,-0.06,-0.03,
5605,-0.045,-0.025,
5606,-0.04,-0.03,
5607,-0.035,-0.045,
5608,-0.05,-0.05,
5609,-0.045,-0.04,
5610,-0.035,-0.02,
5611,-0.035,-0.015,
5612,-0.025,-0.03,
5613,-0.04,-0.025,
5614,-0.06,-0.05,
5615,-0.065,-0.05,
5616,-0.05,-0.035,
5617,-0.03,-0.015,
5618,-0.035,-0.025,
5619,-0.04,-0.04,
5620,-0.055,-0.03,
5621,-0.05,-0.03,
5622,-0.06,-0.04,
5623,-0.03,-0.03,
5624,-0.03,-0.025,
5625,-0.03,-0.035,
5626,-0.05,-0.04,
5627,-0.045,-0.05,
5628,-0.04,-0.04,
5629,-0.03,-0.02,
5630,-0.03,-0.035,
5631,-0.03,-0.04,
5632,-0.055,-0.06,
5633,-0.055,-0.055,
5634,-0.065,-0.04,
5635,-0.05,-0.025,
5636,-0.035,-0.035,
5637,-0.05,-0.05,
5638,-0.045,-0.055,
5639,-0.05,-0.05,
5640,-0.035,-0.03,
5641,-0.025,-0.015,
5642,-0.03,-0.035,
5643,-0.055,-0.04,
5644,-0.065,-0.07,
5645,-0.07,-0.065,
5646,-0.07,-0.05,
5647,-0.06,-0.045,
5648,-0.045,-0.04,
5649,-0.06,-0.055,
5650,-0.07,-0.08,
5651,-0.065,-0.065,
5652,-0.065,-0.05,
5653,-0.045,-0.05,
5654,-0.055,-0.045,
5655,-0.075,-0.05,
5656,-0.085,-0.075,
5657,-0.095,-0.07,
5658,-0.1,-0.06,
5659,-0.08,-0.045,
5660,-0.07,-0.045,
5661,-0.09,-0.055,
5662,-0.095,-0.08,
5663,-0.115,-0.065,
5664,-0.105,-0.06,
5665,-0.105,-0.045,
5666,-0.105,-0.045,
5667,-0.13,-0.065,
5668,-0.14,-0.08,
5669,-0.155,-0.075,
5670,-0.14,-0.065,
5671,-0.125,-0.06,
5672,-0.125,-0.06,
5673,-0.125,-0.075,
5674,-0.135,-0.085,
5675,-0.14,-0.08,
5676,-0.145,-0.05,
5677,-0.13,-0.045,
5678,-0.13,-0.06,
5679,-0.165,-0.075,
5680,-0.17,-0.085,
5681,-0.185,-0.07,
5682,-0.19,-0.07,
5683,-0.16,-0.055,
5684,-0.145,-0.055,
5685,-0.145,-0.065,
5686,-0.155,-0.075,
5687,-0.15,-0.075,
5688,-0.17,-0.065,
5689,-0.16,-0.055,
5690,-0.155,-0.06,
5691,-0.16,-0.085,
5692,-0.175,-0.095,
5693,-0.19,-0.08,
5694,-0.18,-0.075,
5695,-0.185,-0.07,
5696,-0.175,-0.075,
5697,-0.17,-0.08,
5698,-0.18,-0.1,
5699,-0.175,-0.095,
5700,-0.19,-0.075,
5701,-0.16,-0.07,
5702,-0.165,-0.075,
5703,-0.165,-0.085,
5704,-0.175,-0.095,
5705,-0.18,-0.095,
5706,-0.195,-0.085,
5707,-0.17,-0.085,
5708,-0.18,-0.085,
5709,-0.195,-0.085,
5710,-0.195,-0.11,
5711,-0.21,-0.095,
5712,-0.195,-0.09,
5713,-0.19,-0.085,
5714,-0.185,-0.095,
5715,-0.175,-0.105,
5716,-0.195,-0.115,
5717,-0.205,-0.11,
5718,-0.195,-0.095,
5719,-0.18,-0.085,
5720,-0.165,-0.095,
5721,-0.18,-0.105,
5722,-0.205,-0.125,
5723,-0.205,-0.115,
5724,-0.19,-0.105,
5725,-0.185,-0.08,
5726,-0.17,-0.085,
5727,-0.175,-0.09,
5728,-0.195,-0.1,
5729,-0.2,-0.105,
5730,-0.2,-0.095,
5731,-0.19,-0.08,
5732,-0.18,-0.095,
5733,-0.2,-0.1,
5734,-0.205,-0.105,
5735,-0.215,-0.1,
5736,-0.2,-0.085,
5737,-0.19,-0.08,
5738,-0.19,-0.095,
5739,-0.2,-0.115,
5740,-0.21,-0.13,
5741,-0.185,-0.115,
5742,-0.19,-0.1,
5743,-0.185,-0.075,
5744,-0.18,-0.085,
5745,-0.19,-0.1,
5746,-0.2,-0.115,
5747,-0.205,-0.11,
5748,-0.19,-0.095,
5749,-0.18,-0.08,
5750,-0.19,-0.08,
5751,-0.175,-0.095,
5752,-0.205,-0.11,
5753,-0.21,-0.11,
5754,-0.21,-0.1,
5755,-0.185,-0.085,
5756,-0.175,-0.09,
5757,-0.185,-0.1,
5758,-0.185,-0.115,
5759,-0.19,-0.11,
5760,-0.185,-0.095,
5761,-0.175,-0.08,
5762,-0.175,-0.08,
5763,-0.185,-0.11,
5764,-0.185,-0.105,
5765,-0.195,-0.095,
5766,-0.185,-0.08,
5767,-0.175,-0.075,
5768,-0.185,-0.085,
5769,-0.18,-0.105,
5770,-0.2,-0.11,
5771,-0.195,-0.1,
5772,-0.19,-0.085,
5773,-0.175,-0.075,
5774,-0.175,-0.09,
5775,-0.19,-0.1,
5776,-0.195,-0.11,
5777,-0.2,-0.115,
5778,-0.205,-0.08,
5779,-0.185,-0.07,
5780,-0.19,-0.07,
5781,-0.195,-0.085,
5782,-0.2,-0.105,
5783,-0.2,-0.09,
5784,-0.2,-0.075,
5785,-0.175,-0.065,
5786,-0.17,-0.075,
5787,-0.175,-0.095,
5788,-0.195,-0.105,
5789,-0.2,-0.1,
5790,-0.195,-0.09,
5791,-0.195,-0.08,
5792,-0.185,-0.09,
5793,-0.2,-0.105,
5794,-0.215,-0.1,
5795,-0.215,-0.09,
5796,-0.2,-0.095,
5797,-0.195,-0.08,
5798,-0.19,-0.075,
5799,-0.2,-0.09,
5800,-0.21,-0.1,
5801,-0.21,-0.085,
5802,-0.215,-0.085,
5803,-0.195,-0.065,
5804,-0.18,-0.085,
5805,-0.195,-0.085,
5806,-0.205,-0.095,
5807,-0.215,-0.095,
5808,-0.205,-0.08,
5809,-0.18,-0.065,
5810,-0.19,-0.075,
5811,-0.195,-0.085,
5812,-0.225,-0.095,
5813,-0.22,-0.09,
5814,-0.225,-0.095,
5815,-0.22,-0.065,
5816,-0.205,-0.065,
5817,-0.205,-0.09,
5818,-0.21,-0.09,
5819,-0.215,-0.09,
5820,-0.21,-0.07,
5821,-0.19,-0.05,
5822,-0.195,-0.07,
5823,-0.195,-0.07,
5824,-0.2,-0.075,
5825,-0.205,-0.075,
5826,-0.205,-0.065,
5827,-0.19,-0.05,
5828,-0.18,-0.05,
5829,-0.18,-0.07,
5830,-0.2,-0.07,
5831,-0.215,-0.075,
5832,-0.195,-0.06,
5833,-0.18,-0.055,
5834,-0.175,-0.06,
5835,-0.18,-0.075,
5836,-0.185,-0.09,
5837,-0.165,-0.095,
5838,-0.15,-0.095,
5839,-0.155,-0.11,
5840,-0.12,-0.12,
5841,-0.135,-0.13,
5842,-0.13,-0.15,
5843,-0.12,-0.145,
5844,-0.1,-0.13,
5845,-0.085,-0.12,
5846,-0.065,-0.13,
5847,-0.065,-0.15,
5848,-0.095,-0.15,
5849,-0.09,-0.13,
5850,-0.11,-0.105,
5851,-0.095,-0.09,
5852,-0.1,-0.1,
5853,-0.11,-0.1,
5854,-0.14,-0.07,
5855,-0.145,-0.06,
5856,-0.13,-0.045,
5857,-0.115,-0.04,
5858,-0.12,-0.05,
5859,-0.13,-0.065,
5860,-0.16,-0.075,
5861,-0.18,-0.09,
5862,-0.195,-0.07,
5863,-0.175,-0.06,
5864,-0.17,-0.06,
5865,-0.185,-0.08,
5866,-0.21,-0.095,
5867,-0.21,-0.085,
5868,-0.2,-0.08,
5869,-0.17,-0.065,
5870,-0.165,-0.07,
5871,-0.175,-0.085,
5872,-0.19,-0.1,
5873,-0.185,-0.075,
5874,-0.17,-0.05,
5875,-0.16,-0.04,
5876,-0.14,-0.04,
5877,-0.165,-0.03,
5878,-0.16,-0.005,
5879,-0.17,0.03,
5880,-0.15,0.05,
5881,-0.125,0.03,
5882,-0.12,-0.025,
5883,-0.13,-0.12,
5884,-0.145,-0.275,
5885,-0.17,-0.45,
5886,-0.15,-0.63,
5887,-0.095,-0.78,
5888,0.03,-0.895,
5889,0.16,-0.945,
5890,0.29,-0.925,
5891,0.405,-0.835,
5892,0.49,-0.69,N
5893,0.465,-0.54,
5894,0.325,-0.385,
5895,0.085,-0.285,
5896,-0.08,-0.175,
5897,-0.16,-0.07,
5898,-0.2,0.005,
5899,-0.175,0.03,
5900,-0.15,0.04,
5901,-0.155,0.03,
5902,-0.13,0.015,
5903,-0.135,0.015,
5904,-0.125,0.025,
5905,-0.105,0.045,
5906,-0.105,0.035,
5907,-0.135,0.02,
5908,-0.145,0.005,
5909,-0.14,0.02,
5910,-0.11,0.03,
5911,-0.11,0.04,
5912,-0.11,0.025,
5913,-0.115,0.02,
5914,-0.13,0.015,
5915,-0.13,0.02,
5916,-0.115,0.025,
5917,-0.105,0.04,
5918,-0.1,0.025,
5919,-0.105,0.02,
5920,-0.125,0.015,
5921,-0.12,0.02,
5922,-0.105,0.025,
5923,-0.095,0.045,
5924,-0.1,0.04,
5925,-0.085,0.015,
5926,-0.11,0.005,
5927,-0.11,0.01,
5928,-0.09,0.035,
5929,-0.085,0.045,
5930,-0.08,0.035,
5931,-0.08,0.03,
5932,-0.095,0.015,
5933,-0.095,0.02,
5934,-0.105,0.025,
5935,-0.065,0.03,
5936,-0.055,0.025,
5937,-0.065,0.02,
5938,-0.08,0.0,
5939,-0.08,0.0,
5940,-0.065,0.02,
5941,-0.065,0.035,
5942,-0.055,0.03,
5943,-0.06,0.01,
5944,-0.09,0.005,
5945,-0.085,0.01,
5946,-0.08,0.015,
5947,-0.065,0.025,
5948,-0.06,0.03,
5949,-0.075,0.03,
5950,-0.08,0.015,
5951,-0.09,0.01,
5952,-0.08,0.02,
5953,-0.08,0.03,
5954,-0.06,0.02,
5955,-0.075,0.015,
5956,-0.095,0.005,
5957,-0.09,0.005,
5958,-0.085,0.025,
5959,-0.065,0.035,
5960,-0.075,0.04,
5961,-0.065,0.02,
5962,-0.09,0.005,
5963,-0.085,0.01,
5964,-0.065,0.01,
5965,-0.06,0.035,
5966,-0.055,0.03,
5967,-0.07,0.015,
5968,-0.075,-0.005,
5969,-0.095,0.01,
5970,-0.07,0.01,
5971,-0.075,0.025,
5972,-0.065,0.015,
5973,-0.075,0.015,
5974,-0.095,0.005,
5975,-0.09,0.005,
5976,-0.095,0.005,
5977,-0.075,0.025,
5978,-0.09,0.015,
5979,-0.095,-0.005,
5980,-0.115,-0.02,
5981,-0.125,-0.02,
5982,-0.12,0.0,
5983,-0.12,0.005,
5984,-0.105,-0.005,
5985,-0.12,-0.02,
5986,-0.145,-0.04,
5987,-0.17,-0.045,
5988,-0.16,-0.015,
5989,-0.145,-0.01,
5990,-0.15,-0.015,
5991,-0.155,-0.025,
5992,-0.165,-0.03,
5993,-0.175,-0.02,
5994,-0.16,-0.005,
5995,-0.165,0.0,
5996,-0.165,-0.01,
5997,-0.155,-0.03,
5998,-0.165,-0.035,
5999,-0.17,-0.035,
6000,-0.16,-0.015,
6001,-0.15,-0.005,
6002,-0.14,-0.015,
6003,-0.15,-0.025,
6004,-0.15,-0.045,
6005,-0.16,-0.04,
6006,-0.17,-0.02,
6007,-0.155,-0.025,
6008,-0.155,-0.025,
6009,-0.145,-0.025,
6010,-0.155,-0.04,
6011,-0.16,-0.045,
6012,-0.145,-0.025,
6013,-0.14,-0.02,
6014,-0.14,-0.025,
6015,-0.155,-0.035,
6016,-0.145,-0.045,
6017,-0.165,-0.045,
6018,-0.155,-0.025,
6019,-0.14,-0.025,
6020,-0.13,-0.025,
6021,-0.14,-0.03,
6022,-0.155,-0.055,
6023,-0.17,-0.05,
6024,-0.155,-0.04,
6025,-0.145,-0.015,
6026,-0.135,-0.035,
6027,-0.135,-0.045,
6028,-0.145,-0.06,
6029,-0.15,-0.055,
6030,-0.155,-0.035,
6031,-0.135,-0.025,
6032,-0.145,-0.03,
6033,-0.145,-0.035,
6034,-0.15,-0.06,
6035,-0.17,-0.055,
6036,-0.15,-0.035,
6037,-0.125,-0.03,
6038,-0.14,-0.04,
6039,-0.15,-0.06,
6040,-0.16,-0.065,
6041,-0.15,-0.045,
6042,-0.135,-0.03,
6043,-0.155,-0.035,
6044,-0.14,-0.035,
6045,-0.135,-0.055,
6046,-0.15,-0.065,
6047,-0.145,-0.07,
6048,-0.135,-0.05,
6049,-0.125,-0.035,
6050,-0.12,-0.045,
6051,-0.125,-0.055,
6052,-0.13,-0.055,
6053,-0.125,-0.05,
6054,-0.125,-0.03,
6055,-0.115,-0.03,
6056,-0.11,-0.04,
6057,-0.115,-0.05,
6058,-0.135,-0.06,
6059,-0.12,-0.06,
6060,-0.115,-0.03,
6061,-0.12,-0.03,
6062,-0.12,-0.04,
6063,-0.12,-0.055,
6064,-0.135,-0.06,
6065,-0.125,-0.04,
6066,-0.125,-0.035,
6067,-0.115,-0.015,
6068,-0.1,-0.04,
6069,-0.1,-0.045,
6070,-0.12,-0.045,
6071,-0.115,-0.045,
6072,-0.125,-0.03,
6073,-0.095,-0.025,
6074,-0.1,-0.035,
6075,-0.105,-0.04,
6076,-0.12,-0.05,
6077,-0.13,-0.05,
6078,-0.135,-0.035,
6079,-0.115,-0.02,
6080,-0.105,-0.04,
6081,-0.115,-0.05,
6082,-0.12,-0.055,
6083,-0.11,-0.05,
6084,-0.115,-0.035,
6085,-0.1,-0.03,
6086,-0.095,-0.02,
6087,-0.09,-0.04,
6088,-0.1,-0.05,
6089,-0.11,-0.045,
6090,-0.11,-0.035,
6091,-0.09,-0.02,
6092,-0.085,-0.03,
6093,-0.085,-0.035,
6094,-0.1,-0.045,
6095,-0.1,-0.045,
6096,-0.11,-0.035,
6097,-0.105,-0.02,
6098,-0.09,-0.035,
6099,-0.09,-0.035,
6100,-0.105,-0.055,
6101,-0.11,-0.045,
6102,-0.09,-0.04,
6103,-0.085,-0.015,
6104,-0.085,-0.015,
6105,-0.095,-0.035,
6106,-0.1,-0.045,
6107,-0.11,-0.055,
6108,-0.105,-0.035,
6109,-0.08,-0.04,
6110,-0.08,-0.04,
6111,-0.095,-0.04,
6112,-0.1,-0.045,
6113,-0.11,-0.035,
6114,-0.105,-0.025,
6115,-0.085,-0.015,
6116,-0.08,-0.03,
6117,-0.08,-0.04,
6118,-0.095,-0.06,
6119,-0.11,-0.045,
6120,-0.1,-0.035,
6121,-0.09,-0.02,
6122,-0.085,-0.02,
6123,-0.075,-0.03,
6124,-0.1,-0.045,
6125,-0.105,-0.035,
6126,-0.095,-0.025,
6127,-0.09,-0.005,
6128,-0.075,-0.02,
6129,-0.085,-0.015,
6130,-0.09,-0.02,
6131,-0.09,-0.025,
6132,-0.075,-0.035,
6133,-0.07,-0.03,
6134,-0.055,-0.04,
6135,-0.06,-0.05,
6136,-0.075,-0.075,
6137,-0.07,-0.065,
6138,-0.065,-0.05,
6139,-0.045,-0.045,
6140,-0.04,-0.065,
6141,-0.04,-0.08,
6142,-0.045,-0.105,
6143,-0.04,-0.11,
6144,-0.02,-0.1,
6145,-0.01,-0.085,
6146,0.005,-0.11,
6147,0.0,-0.125,
6148,-0.005,-0.135,
6149,-0.005,-0.115,
6150,0.01,-0.115,
6151,0.01,-0.075,
6152,-0.005,-0.075,
6153,-0.035,-0.09,
6154,-0.05,-0.085,
6155,-0.055,-0.055,
6156,-0.045,-0.03,
6157,-0.045,-0.005,
6158,-0.025,-0.015,
6159,-0.04,-0.03,
6160,-0.07,-0.05,
6161,-0.095,-0.045,
6162,-0.085,-0.04,
6163,-0.08,-0.025,
6164,-0.1,-0.03,
6165,-0.125,-0.035,
6166,-0.125,-0.05,
6167,-0.125,-0.05,
6168,-0.125,-0.04,
6169,-0.105,-0.02,
6170,-0.1,-0.035,
6171,-0.11,-0.05,
6172,-0.115,-0.055,
6173,-0.125,-0.04,
6174,-0.085,-0.035,
6175,-0.09,-0.025,
6176,-0.07,-0.03,
6177,-0.075,-0.035,
6178,-0.09,-0.025,
6179,-0.08,0.015,
6180,-0.07,0.08,
6181,-0.055,0.105,
6182,-0.045,0.09,
6183,-0.035,0.01,
6184,-0.045,-0.125,
6185,-0.065,-0.3,
6186,-0.03,-0.495,
6187,0.015,-0.705,
6188,0.125,-0.9,
6189,0.25,-1.02,
6190,0.37,-1.065,
6191,0.49,-1.035,
6192,0.595,-0.945,
6193,0.665,-0.82,N
6194,0.685,-0.685,
6195,0.59,-0.54,
6196,0.395,-0.415,
6197,0.185,-0.255,
6198,0.055,-0.125,
6199,-0.015,-0.02,
6200,-0.035,0.02,
6201,-0.06,0.045,
6202,-0.075,0.035,
6203,-0.08,0.04,
6204,-0.08,0.055,
6205,-0.075,0.07,
6206,-0.07,0.07,
6207,-0.08,0.06,
6208,-0.1,0.04,
6209,-0.11,0.035,
6210,-0.1,0.045,
6211,-0.09,0.06,
6212,-0.08,0.05,
6213,-0.085,0.055,
6214,-0.095,0.035,
6215,-0.1,0.04,
6216,-0.1,0.055,
6217,-0.1,0.07,
6218,-0.09,0.065,
6219,-0.1,0.04,
6220,-0.09,0.03,
6221,-0.105,0.04,
6222,-0.095,0.065,
6223,-0.085,0.07,
6224,-0.075,0.065,
6225,-0.09,0.05,
6226,-0.1,0.035,
6227,-0.105,0.03,
6228,-0.1,0.045,
6229,-0.09,0.07,
6230,-0.08,0.045,
6231,-0.095,0.035,
6232,-0.1,0.04,
6233,-0.11,0.035,
6234,-0.1,0.055,
6235,-0.095,0.07,
6236,-0.085,0.06,
6237,-0.09,0.04,
6238,-0.095,0.035,
6239,-0.1,0.035,
6240,-0.095,0.07,
6241,-0.08,0.065,
6242,-0.08,0.055,
6243,-0.085,0.05,
6244,-0.1,0.025,
6245,-0.12,0.035,
6246,-0.09,0.04,
6247,-0.08,0.065,
6248,-0.08,0.06,
6249,-0.09,0.04,
6250,-0.105,0.04,
6251,-0.1,0.035,
6252,-0.105,0.05,
6253,-0.075,0.07,
6254,-0.075,0.06,
6255,-0.09,0.055,
6256,-0.105,0.035,
6257,-0.105,0.04,
6258,-0.09,0.055,
6259,-0.075,0.07,
6260,-0.08,0.06,
6261,-0.085,0.05,
6262,-0.095,0.045,
6263,-0.1,0.045,
6264,-0.085,0.07,
6265,-0.075,0.08,
6266,-0.085,0.075,
6267,-0.085,0.055,
6268,-0.105,0.05,
6269,-0.11,0.055,
6270,-0.095,0.06,
6271,-0.08,0.075,
6272,-0.07,0.07,
6273,-0.08,0.055,
6274,-0.095,0.045,
6275,-0.095,0.055,
6276,-0.1,0.06,
6277,-0.085,0.065,
6278,-0.085,0.055,
6279,-0.095,0.055,
6280,-0.115,0.03,
6281,-0.125,0.04,
6282,-0.13,0.05,
6283,-0.105,0.05,
6284,-0.1,0.04,
6285,-0.125,0.025,
6286,-0.14,0.01,
6287,-0.15,0.015,
6288,-0.13,0.035,
6289,-0.125,0.045,
6290,-0.12,0.02,
6291,-0.13,0.0,
6292,-0.15,-0.005,
6293,-0.155,0.01,
6294,-0.16,0.02,
6295,-0.155,0.035,
6296,-0.165,0.01,
6297,-0.15,0.0,
6298,-0.18,-0.005,
6299,-0.18,-0.02,
6300,-0.16,-0.01,
6301,-0.155,0.005,
6302,-0.145,0.0,
6303,-0.16,-0.015,
6304,-0.18,-0.025,
6305,-0.185,-0.02,
6306,-0.17,-0.005,
6307,-0.175,0.005,
6308,-0.16,-0.005,
6309,-0.165,-0.025,
6310,-0.19,-0.025,
6311,-0.19,-0.02,
6312,-0.17,-0.005,
6313,-0.175,0.005,
6314,-0.16,-0.01,
6315,-0.18,-0.03,
6316,-0.175,-0.035,
6317,-0.175,-0.04,
6318,-0.18,-0.015,
6319,-0.165,-0.005,
6320,-0.165,-0.015,
6321,-0.17,-0.02,
6322,-0.19,-0.03,
6323,-0.195,-0.025,
6324,-0.18,-0.015,
6325,-0.165,-0.005,
6326,-0.165,-0.015,
6327,-0.16,-0.03,
6328,-0.18,-0.03,
6329,-0.185,-0.03,
6330,-0.17,-0.02,
6331,-0.17,-0.01,
6332,-0.15,-0.035,
6333,-0.175,-0.045,
6334,-0.19,-0.045,
6335,-0.19,-0.055,
6336,-0.185,-0.02,
6337,-0.18,-0.015,
6338,-0.175,-0.03,
6339,-0.185,-0.045,
6340,-0.19,-0.06,
6341,-0.205,-0.06,
6342,-0.195,-0.035,
6343,-0.2,-0.025,
6344,-0.175,-0.04,
6345,-0.18,-0.045,
6346,-0.185,-0.055,
6347,-0.2,-0.055,
6348,-0.18,-0.04,
6349,-0.175,-0.025,
6350,-0.185,-0.035,
6351,-0.19,-0.05,
6352,-0.21,-0.055,
6353,-0.2,-0.045,
6354,-0.185,-0.035,
6355,-0.18,-0.02,
6356,-0.175,-0.035,
6357,-0.195,-0.05,
6358,-0.205,-0.06,
6359,-0.205,-0.055,
6360,-0.185,-0.035,
6361,-0.175,-0.025,
6362,-0.17,-0.03,
6363,-0.17,-0.055,
6364,-0.195,-0.06,
6365,-0.2,-0.06,
6366,-0.2,-0.055,
6367,-0.19,-0.035,
6368,-0.175,-0.04,
6369,-0.17,-0.055,
6370,-0.18,-0.065,
6371,-0.2,-0.07,
6372,-0.195,-0.055,
6373,-0.205,-0.03,
6374,-0.205,-0.04,
6375,-0.19,-0.06,
6376,-0.205,-0.07,
6377,-0.215,-0.055,
6378,-0.2,-0.045,
6379,-0.185,-0.04,
6380,-0.175,-0.04,
6381,-0.205,-0.06,
6382,-0.195,-0.065,
6383,-0.195,-0.065,
6384,-0.195,-0.045,
6385,-0.185,-0.035,
6386,-0.175,-0.035,
6387,-0.17,-0.05,
6388,-0.195,-0.06,
6389,-0.2,-0.05,
6390,-0.19,-0.04,
6391,-0.185,-0.035,
6392,-0.17,-0.045,
6393,-0.195,-0.05,
6394,-0.2,-0.065,
6395,-0.2,-0.06,
6396,-0.2,-0.045,
6397,-0.19,-0.03,
6398,-0.19,-0.04,
6399,-0.19,-0.055,
6400,-0.205,-0.065,
6401,-0.215,-0.05,
6402,-0.2,-0.045,
6403,-0.195,-0.035,
6404,-0.195,-0.035,
6405,-0.2,-0.04,
6406,-0.205,-0.07,
6407,-0.21,-0.06,
6408,-0.21,-0.045,
6409,-0.185,-0.03,
6410,-0.175,-0.04,
6411,-0.185,-0.05,
6412,-0.2,-0.055,
6413,-0.205,-0.055,
6414,-0.2,-0.04,
6415,-0.185,-0.025,
6416,-0.18,-0.03,
6417,-0.19,-0.045,
6418,-0.21,-0.045,
6419,-0.205,-0.03,
6420,-0.195,-0.015,
6421,-0.17,-0.015,
6422,-0.165,-0.03,
6423,-0.175,-0.045,
6424,-0.2,-0.055,
6425,-0.205,-0.055,
6426,-0.185,-0.05,
6427,-0.185,-0.04,
6428,-0.17,-0.04,
6429,-0.16,-0.05,
6430,-0.17,-0.07,
6431,-0.175,-0.085,
6432,-0.16,-0.09,
6433,-0.14,-0.09,
6434,-0.125,-0.09,
6435,-0.12,-0.105,
6436,-0.135,-0.12,
6437,-0.135,-0.13,
6438,-0.13,-0.115,
6439,-0.12,-0.11,
6440,-0.115,-0.14,
6441,-0.115,-0.12,
6442,-0.135,-0.11,
6443,-0.145,-0.095,
6444,-0.15,-0.085,
6445,-0.165,-0.055,
6446,-0.16,-0.045,
6447,-0.165,-0.065,
6448,-0.19,-0.06,
6449,-0.195,-0.04,
6450,-0.185,-0.035,
6451,-0.175,-0.03,
6452,-0.185,-0.025,
6453,-0.2,-0.05,
6454,-0.23,-0.065,
6455,-0.24,-0.05,
6456,-0.24,-0.04,
6457,-0.235,-0.04,
6458,-0.24,-0.045,
6459,-0.245,-0.06,
6460,-0.25,-0.075,
6461,-0.265,-0.055,
