,MLII,V1,symbol
0,-0.93,-0.16,
1,-0.93,-0.16,
2,-0.93,-0.16,
3,-0.93,-0.16,
4,-0.93,-0.16,
5,-0.93,-0.16,
6,-0.93,-0.16,
7,-0.93,-0.16,
8,-0.925,-0.16,
9,-0.925,-0.17,
10,-0.92,-0.16,
11,-0.915,-0.16,
12,-0.91,-0.15,
13,-0.9,-0.145,
14,-0.875,-0.135,
15,-0.87,-0.13,
16,-0.85,-0.125,
17,-0.84,-0.13,
18,-0.815,-0.13,
19,-0.815,-0.15,
20,-0.805,-0.17,
21,-0.785,-0.18,
22,-0.775,-0.175,
23,-0.77,-0.18,
24,-0.74,-0.185,
25,-0.735,-0.19,
26,-0.71,-0.19,
27,-0.7,-0.19,
28,-0.675,-0.19,
29,-0.67,-0.195,
30,-0.66,-0.21,
31,-0.655,-0.225,
32,-0.665,-0.235,
33,-0.66,-0.26,
34,-0.665,-0.27,
35,-0.665,-0.27,
36,-0.66,-0.27,
37,-0.67,-0.275,
38,-0.65,-0.265,
39,-0.655,-0.26,
40,-0.64,-0.255,
41,-0.63,-0.27,
42,-0.64,-0.285,
43,-0.635,-0.3,
44,-0.645,-0.31,
45,-0.65,-0.315,
46,-0.66,-0.325,
47,-0.665,-0.315,
48,-0.67,-0.315,
49,-0.665,-0.31,
50,-0.66,-0.315,
51,-0.65,-0.305,
52,-0.645,-0.31,
53,-0.65,-0.32,
54,-0.65,-0.315,
55,-0.65,-0.33,
56,-0.66,-0.345,
57,-0.67,-0.34,
58,-0.675,-0.35,
59,-0.68,-0.35,
60,-0.685,-0.34,
61,-0.69,-0.325,
62,-0.67,-0.33,
63,-0.675,-0.325,
64,-0.67,-0.32,
65,-0.675,-0.32,
66,-0.69,-0.33,
67,-0.695,-0.34,
68,-0.695,-0.345,
69,-0.68,-0.365,
70,-0.7,-0.36,
71,-0.695,-0.365,
72,-0.7,-0.355,
73,-0.695,-0.35,
74,-0.7,-0.34,
75,-0.69,-0.33,
76,-0.69,-0.335,
77,-0.695,-0.34,
78,-0.69,-0.335,
79,-0.695,-0.35,
80,-0.695,-0.35,
81,-0.7,-0.36,
82,-0.7,-0.36,
83,-0.7,-0.355,
84,-0.7,-0.36,
85,-0.7,-0.35,
86,-0.685,-0.34,
87,-0.685,-0.33,
88,-0.675,-0.335,
89,-0.67,-0.345,
90,-0.665,-0.35,
91,-0.67,-0.35,
92,-0.675,-0.37,
93,-0.67,-0.37,
94,-0.675,-0.37,
95,-0.685,-0.375,
96,-0.68,-0.37,+
97,-0.68,-0.365,
98,-0.66,-0.36,
99,-0.655,-0.36,
100,-0.645,-0.35,
101,-0.655,-0.35,
102,-0.63,-0.375,
103,-0.64,-0.375,
104,-0.63,-0.38,
105,-0.64,-0.38,
106,-0.65,-0.385,
107,-0.65,-0.385,
108,-0.66,-0.385,
109,-0.65,-0.38,
110,-0.645,-0.38,
111,-0.625,-0.365,
112,-0.615,-0.37,
113,-0.625,-0.355,
114,-0.625,-0.365,
115,-0.62,-0.385,
116,-0.635,-0.385,
117,-0.635,-0.4,
118,-0.635,-0.405,
119,-0.635,-0.405,
120,-0.63,-0.4,
121,-0.625,-0.395,
122,-0.625,-0.395,
123,-0.605,-0.38,
124,-0.595,-0.37,
125,-0.58,-0.38,
126,-0.575,-0.37,
127,-0.565,-0.385,
128,-0.57,-0.405,
129,-0.565,-0.4,
130,-0.575,-0.405,
131,-0.565,-0.4,
132,-0.55,-0.39,
133,-0.55,-0.38,
134,-0.535,-0.385,
135,-0.52,-0.365,
136,-0.505,-0.365,
137,-0.495,-0.37,
138,-0.485,-0.365,
139,-0.48,-0.38,
140,-0.48,-0.395,
141,-0.47,-0.395,
142,-0.475,-0.42,
143,-0.465,-0.425,
144,-0.445,-0.43,
145,-0.45,-0.435,
146,-0.435,-0.435,
147,-0.43,-0.445,
148,-0.435,-0.45,
149,-0.445,-0.47,
150,-0.465,-0.465,
151,-0.47,-0.47,
152,-0.495,-0.475,
153,-0.515,-0.475,
154,-0.53,-0.48,
155,-0.55,-0.455,
156,-0.55,-0.46,
157,-0.575,-0.445,
158,-0.56,-0.425,
159,-0.565,-0.42,
160,-0.565,-0.4,
161,-0.575,-0.415,
162,-0.6,-0.415,
163,-0.61,-0.41,
164,-0.625,-0.415,
165,-0.64,-0.425,
166,-0.645,-0.435,
167,-0.65,-0.43,
168,-0.635,-0.42,
169,-0.63,-0.405,
170,-0.62,-0.41,
171,-0.605,-0.405,
172,-0.595,-0.405,
173,-0.605,-0.405,
174,-0.59,-0.415,
175,-0.59,-0.42,
176,-0.595,-0.435,
177,-0.605,-0.43,
178,-0.605,-0.445,
179,-0.625,-0.45,
180,-0.62,-0.435,
181,-0.595,-0.43,
182,-0.585,-0.42,
183,-0.58,-0.425,
184,-0.565,-0.415,
185,-0.555,-0.425,
186,-0.55,-0.425,
187,-0.545,-0.435,
188,-0.52,-0.44,
189,-0.505,-0.445,
190,-0.47,-0.465,
191,-0.435,-0.455,
192,-0.355,-0.45,
193,-0.28,-0.44,
194,-0.17,-0.425,
195,-0.05,-0.435,
196,0.065,-0.435,
197,0.24,-0.45,
198,0.41,-0.495,
199,0.615,-0.545,
200,0.81,-0.62,
201,0.98,-0.73,
202,1.115,-0.85,
203,1.23,-0.955,
204,1.335,-1.08,N
205,1.445,-1.19,
206,1.5,-1.29,
207,1.455,-1.41,
208,1.24,-1.505,
209,0.855,-1.6,
210,0.405,-1.625,
211,-0.06,-1.61,
212,-0.45,-1.525,
213,-0.71,-1.42,
214,-0.84,-1.3,
215,-0.87,-1.165,
216,-0.82,-1.05,
217,-0.765,-0.945,
218,-0.73,-0.85,
219,-0.695,-0.78,
220,-0.67,-0.7,
221,-0.665,-0.64,
222,-0.665,-0.575,
223,-0.675,-0.525,
224,-0.69,-0.485,
225,-0.705,-0.47,
226,-0.72,-0.455,
227,-0.72,-0.455,
228,-0.725,-0.45,
229,-0.74,-0.445,
230,-0.725,-0.42,
231,-0.71,-0.415,
232,-0.71,-0.395,
233,-0.735,-0.395,
234,-0.725,-0.395,
235,-0.72,-0.42,
236,-0.73,-0.42,
237,-0.735,-0.42,
238,-0.75,-0.43,
239,-0.745,-0.425,
240,-0.755,-0.41,
241,-0.765,-0.41,
242,-0.76,-0.4,
243,-0.755,-0.4,
244,-0.76,-0.39,
245,-0.75,-0.385,
246,-0.765,-0.38,
247,-0.765,-0.395,
248,-0.77,-0.4,
249,-0.77,-0.405,
250,-0.785,-0.4,
251,-0.775,-0.39,
252,-0.775,-0.4,
253,-0.775,-0.38,
254,-0.775,-0.38,
255,-0.775,-0.375,
256,-0.775,-0.365,
257,-0.77,-0.35,
258,-0.77,-0.365,
259,-0.78,-0.375,
260,-0.785,-0.38,
261,-0.795,-0.395,
262,-0.81,-0.38,
263,-0.82,-0.385,
264,-0.825,-0.375,
265,-0.815,-0.37,
266,-0.815,-0.365,
267,-0.81,-0.36,
268,-0.805,-0.35,
269,-0.8,-0.355,
270,-0.815,-0.36,
271,-0.82,-0.355,
272,-0.825,-0.37,
273,-0.84,-0.37,
274,-0.845,-0.37,
275,-0.865,-0.355,
276,-0.86,-0.355,
277,-0.875,-0.355,
278,-0.855,-0.34,
279,-0.855,-0.32,
280,-0.86,-0.32,
281,-0.855,-0.32,
282,-0.86,-0.315,
283,-0.87,-0.315,
284,-0.89,-0.315,
285,-0.9,-0.315,
286,-0.9,-0.315,
287,-0.895,-0.325,
288,-0.895,-0.315,
289,-0.91,-0.285,
290,-0.905,-0.29,
291,-0.89,-0.275,
292,-0.885,-0.25,
293,-0.865,-0.26,
294,-0.87,-0.245,
295,-0.88,-0.245,
296,-0.885,-0.255,
297,-0.89,-0.25,
298,-0.9,-0.265,
299,-0.88,-0.26,
300,-0.875,-0.255,
301,-0.865,-0.24,
302,-0.84,-0.23,
303,-0.83,-0.22,
304,-0.805,-0.22,
305,-0.795,-0.23,
306,-0.775,-0.24,
307,-0.76,-0.25,
308,-0.76,-0.25,
309,-0.75,-0.26,
310,-0.74,-0.27,
311,-0.73,-0.275,
312,-0.725,-0.275,
313,-0.7,-0.27,
314,-0.685,-0.27,
315,-0.655,-0.275,
316,-0.645,-0.265,
317,-0.635,-0.28,
318,-0.63,-0.3,
319,-0.61,-0.31,
320,-0.61,-0.32,
321,-0.615,-0.335,
322,-0.615,-0.345,
323,-0.62,-0.355,
324,-0.625,-0.355,
325,-0.62,-0.36,
326,-0.6,-0.35,
327,-0.595,-0.36,
328,-0.575,-0.355,
329,-0.58,-0.365,
330,-0.58,-0.37,
331,-0.595,-0.38,
332,-0.59,-0.39,
333,-0.585,-0.41,
334,-0.595,-0.41,
335,-0.59,-0.405,
336,-0.595,-0.4,
337,-0.605,-0.395,
338,-0.59,-0.4,
339,-0.605,-0.395,
340,-0.59,-0.395,
341,-0.595,-0.385,
342,-0.59,-0.4,
343,-0.605,-0.41,
344,-0.6,-0.415,
345,-0.61,-0.425,
346,-0.61,-0.425,
347,-0.61,-0.43,
348,-0.61,-0.42,
349,-0.61,-0.415,
350,-0.62,-0.415,
351,-0.615,-0.405,
352,-0.61,-0.41,
353,-0.6,-0.415,
354,-0.605,-0.415,
355,-0.63,-0.41,
356,-0.625,-0.415,
357,-0.64,-0.43,
358,-0.645,-0.44,
359,-0.645,-0.435,
360,-0.64,-0.435,
361,-0.63,-0.425,
362,-0.635,-0.405,
363,-0.625,-0.4,
364,-0.625,-0.395,
365,-0.61,-0.405,
366,-0.62,-0.4,
367,-0.62,-0.42,
368,-0.62,-0.42,
369,-0.645,-0.415,
370,-0.65,-0.42,
371,-0.66,-0.425,
372,-0.65,-0.42,
373,-0.655,-0.41,
374,-0.63,-0.395,
375,-0.615,-0.4,
376,-0.61,-0.39,
377,-0.61,-0.41,
378,-0.605,-0.405,
379,-0.61,-0.4,
380,-0.615,-0.42,
381,-0.62,-0.42,
382,-0.62,-0.425,
383,-0.63,-0.43,
384,-0.635,-0.425,
385,-0.625,-0.41,
386,-0.605,-0.405,
387,-0.585,-0.405,
388,-0.58,-0.4,
389,-0.58,-0.405,
390,-0.59,-0.41,
391,-0.59,-0.41,
392,-0.59,-0.425,
393,-0.585,-0.42,
394,-0.605,-0.43,
395,-0.595,-0.43,
396,-0.605,-0.425,
397,-0.6,-0.415,
398,-0.6,-0.4,
399,-0.59,-0.415,
400,-0.575,-0.395,
401,-0.56,-0.41,
402,-0.565,-0.405,
403,-0.55,-0.415,
404,-0.55,-0.42,
405,-0.56,-0.435,
406,-0.56,-0.43,
407,-0.57,-0.43,
408,-0.555,-0.42,
409,-0.545,-0.43,
410,-0.535,-0.41,
411,-0.525,-0.41,
412,-0.515,-0.395,
413,-0.515,-0.39,
414,-0.505,-0.395,
415,-0.51,-0.4,
416,-0.495,-0.41,
417,-0.5,-0.41,
418,-0.5,-0.415,
419,-0.49,-0.41,
420,-0.475,-0.4,
421,-0.455,-0.405,
422,-0.44,-0.395,
423,-0.43,-0.39,
424,-0.425,-0.4,
425,-0.395,-0.41,
426,-0.385,-0.43,
427,-0.4,-0.46,
428,-0.4,-0.475,
429,-0.42,-0.5,
430,-0.445,-0.51,
431,-0.455,-0.515,
432,-0.47,-0.49,
433,-0.485,-0.485,
434,-0.49,-0.465,
435,-0.52,-0.445,
436,-0.525,-0.43,
437,-0.525,-0.43,
438,-0.545,-0.435,
439,-0.56,-0.435,
440,-0.58,-0.43,
441,-0.6,-0.435,
442,-0.625,-0.445,
443,-0.645,-0.435,
444,-0.62,-0.43,
445,-0.63,-0.435,
446,-0.61,-0.43,
447,-0.615,-0.415,
448,-0.6,-0.41,
449,-0.595,-0.41,
450,-0.595,-0.415,
451,-0.585,-0.41,
452,-0.6,-0.44,
453,-0.61,-0.445,
454,-0.62,-0.455,
455,-0.61,-0.45,
456,-0.605,-0.45,
457,-0.6,-0.435,
458,-0.6,-0.43,
459,-0.585,-0.435,
460,-0.57,-0.42,
461,-0.545,-0.435,
462,-0.535,-0.445,
463,-0.525,-0.445,
464,-0.49,-0.445,
465,-0.47,-0.465,
466,-0.41,-0.47,
467,-0.335,-0.475,
468,-0.255,-0.465,
469,-0.145,-0.45,
470,-0.015,-0.46,
471,0.11,-0.45,
472,0.28,-0.465,
473,0.43,-0.505,
474,0.6,-0.545,
475,0.78,-0.605,
476,0.93,-0.685,
477,1.065,-0.79,
478,1.165,-0.89,
479,1.25,-0.995,
480,1.325,-1.085,N
481,1.405,-1.17,
482,1.445,-1.275,
483,1.445,-1.36,
484,1.325,-1.465,
485,1.075,-1.56,
486,0.71,-1.63,
487,0.29,-1.66,
488,-0.1,-1.65,
489,-0.425,-1.585,
490,-0.65,-1.475,
491,-0.765,-1.345,
492,-0.78,-1.22,
493,-0.77,-1.105,
494,-0.735,-1.0,
495,-0.725,-0.925,
496,-0.695,-0.85,
497,-0.69,-0.79,
498,-0.69,-0.75,
499,-0.68,-0.685,
500,-0.69,-0.615,
501,-0.69,-0.565,
502,-0.71,-0.515,
503,-0.71,-0.495,
504,-0.72,-0.455,
505,-0.73,-0.45,
506,-0.725,-0.44,
507,-0.715,-0.43,
508,-0.715,-0.435,
509,-0.71,-0.42,
510,-0.715,-0.42,
511,-0.725,-0.41,
512,-0.725,-0.42,
513,-0.74,-0.425,
514,-0.745,-0.435,
515,-0.755,-0.415,
516,-0.76,-0.42,
517,-0.765,-0.41,
518,-0.745,-0.39,
519,-0.75,-0.385,
520,-0.745,-0.38,
521,-0.745,-0.375,
522,-0.755,-0.385,
523,-0.745,-0.39,
524,-0.76,-0.4,
525,-0.775,-0.4,
526,-0.77,-0.4,
527,-0.785,-0.4,
528,-0.79,-0.395,
529,-0.775,-0.39,
530,-0.78,-0.385,
531,-0.76,-0.37,
532,-0.765,-0.365,
533,-0.77,-0.365,
534,-0.775,-0.375,
535,-0.765,-0.37,
536,-0.79,-0.37,
537,-0.785,-0.385,
538,-0.795,-0.385,
539,-0.795,-0.385,
540,-0.79,-0.38,
541,-0.805,-0.365,
542,-0.785,-0.365,
543,-0.795,-0.35,
544,-0.79,-0.35,
545,-0.79,-0.345,
546,-0.795,-0.355,
547,-0.8,-0.35,
548,-0.81,-0.355,
549,-0.82,-0.365,
550,-0.825,-0.365,
551,-0.83,-0.365,
552,-0.845,-0.35,
553,-0.845,-0.355,
554,-0.84,-0.335,
555,-0.835,-0.325,
556,-0.83,-0.315,
557,-0.83,-0.315,
558,-0.84,-0.32,
559,-0.85,-0.325,
560,-0.865,-0.32,
561,-0.875,-0.33,
562,-0.9,-0.32,
563,-0.9,-0.32,
564,-0.89,-0.31,
565,-0.885,-0.31,
566,-0.885,-0.28,
567,-0.88,-0.265,
568,-0.87,-0.265,
569,-0.88,-0.255,
570,-0.875,-0.25,
571,-0.865,-0.26,
572,-0.885,-0.265,
573,-0.885,-0.26,
574,-0.885,-0.26,
575,-0.89,-0.245,
576,-0.885,-0.245,
577,-0.87,-0.225,
578,-0.87,-0.215,
579,-0.85,-0.225,
580,-0.835,-0.2,
581,-0.825,-0.22,
582,-0.805,-0.22,
583,-0.79,-0.22,
584,-0.785,-0.23,
585,-0.76,-0.235,
586,-0.77,-0.245,
587,-0.745,-0.245,
588,-0.73,-0.245,
589,-0.72,-0.25,
590,-0.7,-0.245,
591,-0.68,-0.25,
592,-0.66,-0.245,
593,-0.645,-0.255,
594,-0.65,-0.26,
595,-0.63,-0.27,
596,-0.64,-0.295,
597,-0.63,-0.305,
598,-0.63,-0.32,
599,-0.64,-0.315,
600,-0.625,-0.325,
601,-0.63,-0.325,
602,-0.61,-0.315,
603,-0.605,-0.315,
604,-0.59,-0.33,
605,-0.585,-0.325,
606,-0.585,-0.33,
607,-0.59,-0.335,
608,-0.585,-0.355,
609,-0.605,-0.37,
610,-0.61,-0.375,
611,-0.625,-0.37,
612,-0.615,-0.37,
613,-0.605,-0.365,
614,-0.6,-0.37,
615,-0.6,-0.365,
616,-0.595,-0.375,
617,-0.585,-0.375,
618,-0.595,-0.39,
619,-0.605,-0.38,
620,-0.61,-0.39,
621,-0.615,-0.39,
622,-0.605,-0.41,
623,-0.615,-0.41,
624,-0.635,-0.425,
625,-0.625,-0.395,
626,-0.62,-0.395,
627,-0.62,-0.385,
628,-0.61,-0.385,
629,-0.595,-0.375,
630,-0.6,-0.385,
631,-0.605,-0.395,
632,-0.625,-0.395,
633,-0.625,-0.41,
634,-0.65,-0.41,
635,-0.65,-0.42,
636,-0.655,-0.415,
637,-0.64,-0.4,
638,-0.65,-0.395,
639,-0.64,-0.39,
640,-0.645,-0.38,
641,-0.62,-0.385,
642,-0.62,-0.38,
643,-0.64,-0.385,
644,-0.64,-0.395,
645,-0.635,-0.4,
646,-0.645,-0.395,
647,-0.655,-0.39,
648,-0.655,-0.395,
649,-0.665,-0.39,
650,-0.675,-0.39,
651,-0.66,-0.375,
652,-0.66,-0.37,
653,-0.655,-0.37,
654,-0.64,-0.385,
655,-0.64,-0.39,
656,-0.645,-0.395,
657,-0.665,-0.39,
658,-0.665,-0.395,
659,-0.665,-0.4,
660,-0.65,-0.4,
661,-0.66,-0.385,
662,-0.645,-0.38,
663,-0.63,-0.37,
664,-0.62,-0.37,
665,-0.61,-0.365,
666,-0.61,-0.38,
667,-0.61,-0.375,
668,-0.61,-0.385,
669,-0.615,-0.395,
670,-0.615,-0.385,
671,-0.61,-0.39,
672,-0.62,-0.39,
673,-0.61,-0.385,
674,-0.615,-0.385,
675,-0.61,-0.38,
676,-0.59,-0.355,
677,-0.585,-0.365,
678,-0.59,-0.37,
679,-0.575,-0.365,
680,-0.575,-0.38,
681,-0.58,-0.405,
682,-0.58,-0.41,
683,-0.58,-0.395,
684,-0.575,-0.39,
685,-0.56,-0.38,
686,-0.555,-0.375,
687,-0.545,-0.36,
688,-0.53,-0.355,
689,-0.525,-0.355,
690,-0.525,-0.37,
691,-0.52,-0.365,
692,-0.51,-0.37,
693,-0.52,-0.38,
694,-0.52,-0.38,
695,-0.52,-0.375,
696,-0.5,-0.375,
697,-0.49,-0.365,
698,-0.48,-0.35,
699,-0.465,-0.345,
700,-0.44,-0.355,
701,-0.425,-0.37,
702,-0.415,-0.375,
703,-0.415,-0.38,
704,-0.41,-0.415,
705,-0.42,-0.43,
706,-0.43,-0.45,
707,-0.44,-0.465,
708,-0.445,-0.46,
709,-0.445,-0.465,
710,-0.455,-0.46,
711,-0.455,-0.455,
712,-0.465,-0.435,
713,-0.475,-0.43,
714,-0.49,-0.43,
715,-0.51,-0.42,
716,-0.515,-0.42,
717,-0.535,-0.425,
718,-0.555,-0.425,
719,-0.56,-0.425,
720,-0.58,-0.415,
721,-0.605,-0.4,
722,-0.595,-0.4,
723,-0.605,-0.39,
724,-0.595,-0.37,
725,-0.6,-0.385,
726,-0.605,-0.385,
727,-0.6,-0.395,
728,-0.61,-0.39,
729,-0.625,-0.395,
730,-0.63,-0.405,
731,-0.615,-0.415,
732,-0.615,-0.405,
733,-0.605,-0.4,
734,-0.6,-0.4,
735,-0.59,-0.395,
736,-0.585,-0.385,
737,-0.57,-0.395,
738,-0.575,-0.395,
739,-0.565,-0.395,
740,-0.555,-0.4,
741,-0.55,-0.41,
742,-0.54,-0.425,
743,-0.525,-0.42,
744,-0.505,-0.415,
745,-0.455,-0.42,
746,-0.4,-0.41,
747,-0.32,-0.405,
748,-0.235,-0.405,
749,-0.125,-0.385,
750,-0.005,-0.405,
751,0.13,-0.42,
752,0.295,-0.45,
753,0.47,-0.51,
754,0.675,-0.56,
755,0.875,-0.64,
756,1.03,-0.74,
757,1.175,-0.845,
758,1.275,-0.96,
759,1.355,-1.07,N
760,1.425,-1.165,
761,1.445,-1.29,
762,1.37,-1.395,
763,1.185,-1.51,
764,0.885,-1.59,
765,0.525,-1.655,
766,0.145,-1.675,
767,-0.2,-1.645,
768,-0.465,-1.55,
769,-0.635,-1.45,
770,-0.715,-1.31,
771,-0.74,-1.195,
772,-0.72,-1.085,
773,-0.71,-0.99,
774,-0.7,-0.925,
775,-0.7,-0.865,
776,-0.7,-0.82,
777,-0.705,-0.765,
778,-0.695,-0.705,
779,-0.69,-0.655,
780,-0.69,-0.58,
781,-0.68,-0.525,
782,-0.685,-0.475,
783,-0.68,-0.435,
784,-0.685,-0.395,
785,-0.69,-0.39,
786,-0.695,-0.39,
787,-0.705,-0.405,
788,-0.7,-0.405,
789,-0.695,-0.395,
790,-0.73,-0.405,
791,-0.735,-0.405,
792,-0.735,-0.375,
793,-0.745,-0.37,
794,-0.74,-0.36,
795,-0.73,-0.36,
796,-0.74,-0.35,
797,-0.72,-0.365,
798,-0.735,-0.36,
799,-0.725,-0.37,
800,-0.73,-0.375,
801,-0.74,-0.375,
802,-0.745,-0.375,
803,-0.76,-0.375,
804,-0.755,-0.37,
805,-0.75,-0.36,
806,-0.76,-0.35,
807,-0.75,-0.345,
808,-0.75,-0.33,
809,-0.74,-0.345,
810,-0.75,-0.335,
811,-0.745,-0.345,
812,-0.76,-0.345,
813,-0.77,-0.355,
814,-0.785,-0.355,
815,-0.795,-0.355,
816,-0.795,-0.345,
817,-0.79,-0.345,
818,-0.79,-0.325,
819,-0.785,-0.32,
820,-0.775,-0.315,
821,-0.78,-0.305,
822,-0.78,-0.32,
823,-0.785,-0.33,
824,-0.79,-0.335,
825,-0.815,-0.33,
826,-0.815,-0.33,
827,-0.835,-0.33,
828,-0.825,-0.325,
829,-0.83,-0.315,
830,-0.825,-0.31,
831,-0.825,-0.285,
832,-0.82,-0.285,
833,-0.82,-0.28,
834,-0.83,-0.285,
835,-0.825,-0.285,
836,-0.835,-0.285,
837,-0.845,-0.29,
838,-0.855,-0.285,
839,-0.865,-0.285,
840,-0.875,-0.265,
841,-0.86,-0.26,
842,-0.86,-0.255,
843,-0.87,-0.25,
844,-0.865,-0.225,
845,-0.865,-0.22,
846,-0.85,-0.23,
847,-0.86,-0.23,
848,-0.865,-0.22,
849,-0.875,-0.22,
850,-0.87,-0.225,
851,-0.865,-0.235,
852,-0.87,-0.22,
853,-0.865,-0.205,
854,-0.86,-0.175,
855,-0.85,-0.18,
856,-0.84,-0.17,
857,-0.835,-0.16,
858,-0.82,-0.175,
859,-0.815,-0.175,
860,-0.81,-0.19,
861,-0.8,-0.19,
862,-0.795,-0.2,
863,-0.79,-0.185,
864,-0.77,-0.18,
865,-0.76,-0.19,
866,-0.75,-0.185,
867,-0.735,-0.19,
868,-0.715,-0.17,
869,-0.68,-0.175,
870,-0.67,-0.2,
871,-0.665,-0.21,
872,-0.655,-0.215,
873,-0.645,-0.23,
874,-0.64,-0.24,
875,-0.645,-0.245,
876,-0.64,-0.25,
877,-0.625,-0.245,
878,-0.61,-0.25,
879,-0.595,-0.26,
880,-0.6,-0.245,
881,-0.585,-0.26,
882,-0.58,-0.275,
883,-0.58,-0.295,
884,-0.595,-0.3,
885,-0.595,-0.315,
886,-0.59,-0.305,
887,-0.58,-0.33,
888,-0.585,-0.335,
889,-0.58,-0.325,
890,-0.575,-0.31,
891,-0.575,-0.315,
892,-0.56,-0.3,
893,-0.555,-0.32,
894,-0.57,-0.32,
895,-0.565,-0.335,
896,-0.58,-0.35,
897,-0.59,-0.35,
898,-0.595,-0.355,
899,-0.6,-0.365,
900,-0.59,-0.36,
901,-0.605,-0.36,
902,-0.595,-0.34,
903,-0.585,-0.35,
904,-0.58,-0.34,
905,-0.58,-0.355,
906,-0.58,-0.345,
907,-0.595,-0.355,
908,-0.6,-0.355,
909,-0.6,-0.375,
910,-0.605,-0.375,
911,-0.615,-0.37,
912,-0.62,-0.365,
913,-0.615,-0.35,
914,-0.6,-0.35,
915,-0.605,-0.345,
916,-0.605,-0.335,
917,-0.585,-0.34,
918,-0.595,-0.35,
919,-0.605,-0.35,
920,-0.615,-0.36,
921,-0.615,-0.365,
922,-0.62,-0.355,
923,-0.62,-0.37,
924,-0.625,-0.355,
925,-0.62,-0.36,
926,-0.62,-0.35,
927,-0.61,-0.34,
928,-0.605,-0.33,
929,-0.6,-0.33,
930,-0.61,-0.335,
931,-0.61,-0.345,
932,-0.62,-0.34,
933,-0.62,-0.335,
934,-0.63,-0.35,
935,-0.63,-0.36,
936,-0.64,-0.345,
937,-0.625,-0.335,
938,-0.615,-0.325,
939,-0.605,-0.325,
940,-0.6,-0.315,
941,-0.59,-0.32,
942,-0.59,-0.325,
943,-0.595,-0.33,
944,-0.595,-0.335,
945,-0.595,-0.345,
946,-0.595,-0.345,
947,-0.595,-0.355,
948,-0.59,-0.34,
949,-0.59,-0.345,
950,-0.58,-0.34,
951,-0.59,-0.32,
952,-0.565,-0.315,
953,-0.565,-0.325,
954,-0.56,-0.325,
955,-0.55,-0.33,
956,-0.555,-0.335,
957,-0.57,-0.335,
958,-0.585,-0.345,
959,-0.57,-0.355,
960,-0.565,-0.33,
961,-0.55,-0.33,
962,-0.55,-0.33,
963,-0.53,-0.325,
964,-0.505,-0.3,
965,-0.5,-0.305,
966,-0.49,-0.315,
967,-0.495,-0.315,
968,-0.5,-0.31,
969,-0.495,-0.32,
970,-0.51,-0.315,
971,-0.52,-0.32,
972,-0.5,-0.32,
973,-0.485,-0.31,
974,-0.47,-0.29,
975,-0.46,-0.285,
976,-0.455,-0.28,
977,-0.425,-0.275,
978,-0.41,-0.285,
979,-0.395,-0.29,
980,-0.4,-0.3,
981,-0.395,-0.32,
982,-0.4,-0.335,
983,-0.395,-0.335,
984,-0.4,-0.35,
985,-0.395,-0.36,
986,-0.415,-0.355,
987,-0.405,-0.37,
988,-0.395,-0.37,
989,-0.4,-0.355,
990,-0.415,-0.365,
991,-0.44,-0.345,
992,-0.455,-0.35,
993,-0.475,-0.36,
994,-0.49,-0.335,
995,-0.51,-0.34,
996,-0.535,-0.315,
997,-0.54,-0.33,
998,-0.54,-0.32,
999,-0.545,-0.295,
1000,-0.55,-0.295,
1001,-0.56,-0.305,
1002,-0.575,-0.295,
1003,-0.58,-0.305,
1004,-0.575,-0.31,
1005,-0.585,-0.31,
1006,-0.585,-0.315,
1007,-0.59,-0.305,
1008,-0.59,-0.315,
1009,-0.575,-0.305,
1010,-0.58,-0.295,
1011,-0.58,-0.305,
1012,-0.555,-0.295,
1013,-0.555,-0.295,
1014,-0.535,-0.285,
1015,-0.54,-0.31,
1016,-0.545,-0.32,
1017,-0.54,-0.325,
1018,-0.53,-0.34,
1019,-0.53,-0.335,
1020,-0.495,-0.325,
1021,-0.47,-0.32,
1022,-0.425,-0.3,
1023,-0.345,-0.3,
1024,-0.225,-0.3,
1025,-0.095,-0.3,
1026,0.055,-0.32,
1027,0.23,-0.335,
1028,0.42,-0.375,
1029,0.625,-0.415,
1030,0.82,-0.49,
1031,0.99,-0.57,
1032,1.125,-0.685,
1033,1.22,-0.785,
1034,1.295,-0.91,N
1035,1.37,-1.005,
1036,1.4,-1.115,
1037,1.345,-1.24,
1038,1.18,-1.345,
1039,0.87,-1.445,
1040,0.475,-1.505,
1041,0.06,-1.525,
1042,-0.3,-1.485,
1043,-0.58,-1.38,
1044,-0.73,-1.255,
1045,-0.8,-1.12,
1046,-0.78,-0.985,
1047,-0.75,-0.875,
1048,-0.715,-0.795,
1049,-0.675,-0.73,
1050,-0.655,-0.665,
1051,-0.645,-0.595,
1052,-0.65,-0.535,
1053,-0.655,-0.475,
1054,-0.65,-0.42,
1055,-0.655,-0.355,
1056,-0.665,-0.33,
1057,-0.675,-0.29,
1058,-0.675,-0.28,
1059,-0.675,-0.27,
1060,-0.67,-0.27,
1061,-0.665,-0.275,
1062,-0.665,-0.28,
1063,-0.66,-0.27,
1064,-0.685,-0.275,
1065,-0.69,-0.265,
1066,-0.71,-0.27,
1067,-0.695,-0.255,
1068,-0.7,-0.255,
1069,-0.7,-0.25,
1070,-0.69,-0.235,
1071,-0.695,-0.225,
1072,-0.7,-0.23,
1073,-0.7,-0.23,
1074,-0.695,-0.23,
1075,-0.705,-0.245,
1076,-0.705,-0.245,
1077,-0.715,-0.245,
1078,-0.73,-0.26,
1079,-0.735,-0.24,
1080,-0.73,-0.23,
1081,-0.725,-0.225,
1082,-0.72,-0.215,
1083,-0.74,-0.21,
1084,-0.74,-0.2,
1085,-0.735,-0.215,
1086,-0.73,-0.215,
1087,-0.725,-0.225,
1088,-0.735,-0.215,
1089,-0.735,-0.235,
1090,-0.75,-0.23,
1091,-0.75,-0.205,
1092,-0.75,-0.215,
1093,-0.75,-0.21,
1094,-0.76,-0.195,
1095,-0.755,-0.19,
1096,-0.755,-0.19,
1097,-0.755,-0.19,
1098,-0.765,-0.19,
1099,-0.77,-0.2,
1100,-0.785,-0.205,
1101,-0.795,-0.2,
1102,-0.8,-0.205,
1103,-0.805,-0.195,
1104,-0.81,-0.19,
1105,-0.82,-0.18,
1106,-0.82,-0.165,
1107,-0.815,-0.155,
1108,-0.815,-0.145,
1109,-0.82,-0.16,
1110,-0.825,-0.145,
1111,-0.835,-0.17,
1112,-0.835,-0.155,
1113,-0.845,-0.16,
1114,-0.86,-0.15,
1115,-0.855,-0.145,
1116,-0.85,-0.12,
1117,-0.85,-0.11,
1118,-0.85,-0.105,
1119,-0.855,-0.085,
1120,-0.83,-0.09,
1121,-0.835,-0.08,
1122,-0.835,-0.09,
1123,-0.835,-0.08,
1124,-0.84,-0.075,
1125,-0.84,-0.08,
1126,-0.84,-0.08,
1127,-0.84,-0.06,
1128,-0.82,-0.07,
1129,-0.815,-0.05,
1130,-0.785,-0.035,
1131,-0.78,-0.04,
1132,-0.765,-0.04,
1133,-0.75,-0.055,
1134,-0.74,-0.05,
1135,-0.73,-0.06,
1136,-0.725,-0.075,
1137,-0.7,-0.075,
1138,-0.7,-0.08,
1139,-0.68,-0.075,
1140,-0.67,-0.07,
1141,-0.635,-0.075,
1142,-0.62,-0.06,
1143,-0.605,-0.065,
1144,-0.59,-0.08,
1145,-0.58,-0.095,
1146,-0.58,-0.1,
1147,-0.585,-0.125,
1148,-0.58,-0.135,
1149,-0.585,-0.14,
1150,-0.595,-0.15,
1151,-0.57,-0.145,
1152,-0.575,-0.155,
1153,-0.565,-0.155,
1154,-0.54,-0.15,
1155,-0.54,-0.16,
1156,-0.54,-0.15,
1157,-0.54,-0.175,
1158,-0.535,-0.18,
1159,-0.55,-0.185,
1160,-0.565,-0.205,
1161,-0.555,-0.205,
1162,-0.57,-0.21,
1163,-0.57,-0.215,
1164,-0.565,-0.2,
1165,-0.545,-0.2,
1166,-0.545,-0.21,
1167,-0.54,-0.195,
1168,-0.54,-0.19,
1169,-0.545,-0.21,
1170,-0.555,-0.21,
1171,-0.575,-0.22,
1172,-0.58,-0.235,
1173,-0.59,-0.23,
1174,-0.585,-0.245,
1175,-0.59,-0.245,
1176,-0.585,-0.24,
1177,-0.565,-0.22,
1178,-0.565,-0.215,
1179,-0.565,-0.215,
1180,-0.56,-0.21,
1181,-0.575,-0.22,
1182,-0.565,-0.23,
1183,-0.585,-0.245,
1184,-0.595,-0.24,
1185,-0.605,-0.245,
1186,-0.605,-0.24,
1187,-0.615,-0.245,
1188,-0.61,-0.24,
1189,-0.61,-0.22,
1190,-0.6,-0.22,
1191,-0.6,-0.22,
1192,-0.595,-0.21,
1193,-0.605,-0.215,
1194,-0.6,-0.22,
1195,-0.615,-0.235,
1196,-0.62,-0.23,
1197,-0.63,-0.24,
1198,-0.625,-0.24,
1199,-0.62,-0.24,
1200,-0.62,-0.24,
1201,-0.62,-0.23,
1202,-0.61,-0.215,
1203,-0.605,-0.21,
1204,-0.595,-0.205,
1205,-0.595,-0.215,
1206,-0.585,-0.215,
1207,-0.59,-0.23,
1208,-0.6,-0.23,
1209,-0.6,-0.245,
1210,-0.605,-0.25,
1211,-0.6,-0.24,
1212,-0.6,-0.235,
1213,-0.59,-0.23,
1214,-0.59,-0.22,
1215,-0.59,-0.225,
1216,-0.575,-0.215,
1217,-0.565,-0.235,
1218,-0.565,-0.23,
1219,-0.585,-0.245,
1220,-0.575,-0.245,
1221,-0.58,-0.25,
1222,-0.57,-0.255,
1223,-0.58,-0.245,
1224,-0.58,-0.24,
1225,-0.57,-0.24,
1226,-0.56,-0.235,
1227,-0.565,-0.235,
1228,-0.54,-0.225,
1229,-0.54,-0.23,
1230,-0.54,-0.24,
1231,-0.535,-0.25,
1232,-0.545,-0.255,
1233,-0.54,-0.26,
1234,-0.545,-0.27,
1235,-0.55,-0.265,
1236,-0.535,-0.26,
1237,-0.535,-0.255,
1238,-0.51,-0.24,
1239,-0.51,-0.24,
1240,-0.485,-0.225,
1241,-0.485,-0.245,
1242,-0.49,-0.235,
1243,-0.46,-0.245,
1244,-0.47,-0.245,
1245,-0.47,-0.245,
1246,-0.465,-0.245,
1247,-0.465,-0.245,
1248,-0.45,-0.24,
1249,-0.43,-0.235,
1250,-0.42,-0.24,
1251,-0.4,-0.245,
1252,-0.4,-0.25,
1253,-0.39,-0.285,
1254,-0.41,-0.295,
1255,-0.41,-0.315,
1256,-0.43,-0.34,
1257,-0.43,-0.335,
1258,-0.445,-0.355,
1259,-0.46,-0.335,
1260,-0.46,-0.325,
1261,-0.485,-0.315,
1262,-0.495,-0.29,
1263,-0.51,-0.28,
1264,-0.51,-0.28,
1265,-0.51,-0.28,
1266,-0.53,-0.29,
1267,-0.545,-0.285,
1268,-0.565,-0.285,
1269,-0.585,-0.295,
1270,-0.59,-0.28,
1271,-0.615,-0.28,
1272,-0.62,-0.27,
1273,-0.625,-0.275,
1274,-0.615,-0.255,
1275,-0.605,-0.25,
1276,-0.6,-0.255,
1277,-0.59,-0.265,
1278,-0.585,-0.255,
1279,-0.6,-0.265,
1280,-0.59,-0.275,
1281,-0.59,-0.275,
1282,-0.605,-0.285,
1283,-0.595,-0.29,
1284,-0.595,-0.27,
1285,-0.595,-0.27,
1286,-0.58,-0.255,
1287,-0.57,-0.26,
1288,-0.555,-0.27,
1289,-0.56,-0.27,
1290,-0.545,-0.275,
1291,-0.535,-0.285,
1292,-0.515,-0.285,
1293,-0.5,-0.3,
1294,-0.46,-0.305,
1295,-0.405,-0.295,
1296,-0.315,-0.29,
1297,-0.205,-0.285,
1298,-0.08,-0.265,
1299,0.075,-0.275,
1300,0.265,-0.275,
1301,0.46,-0.305,
1302,0.66,-0.35,
1303,0.855,-0.425,
1304,1.005,-0.535,
1305,1.13,-0.66,
1306,1.22,-0.77,N
1307,1.29,-0.89,
1308,1.355,-0.995,
1309,1.35,-1.11,
1310,1.22,-1.23,
1311,0.905,-1.325,
1312,0.48,-1.415,
1313,0.0,-1.42,
1314,-0.445,-1.37,
1315,-0.75,-1.27,
1316,-0.905,-1.11,
1317,-0.935,-0.97,
1318,-0.9,-0.85,
1319,-0.835,-0.755,
1320,-0.76,-0.665,
1321,-0.695,-0.6,
1322,-0.655,-0.535,
1323,-0.64,-0.45,
1324,-0.645,-0.38,
1325,-0.655,-0.34,
1326,-0.67,-0.305,
1327,-0.675,-0.29,
1328,-0.695,-0.275,
1329,-0.71,-0.28,
1330,-0.72,-0.285,
1331,-0.735,-0.27,
1332,-0.745,-0.275,
1333,-0.73,-0.255,
1334,-0.725,-0.25,
1335,-0.725,-0.24,
1336,-0.7,-0.23,
1337,-0.705,-0.245,
1338,-0.715,-0.235,
1339,-0.715,-0.245,
1340,-0.725,-0.245,
1341,-0.75,-0.245,
1342,-0.755,-0.255,
1343,-0.755,-0.245,
1344,-0.765,-0.245,
1345,-0.75,-0.225,
1346,-0.74,-0.225,
1347,-0.745,-0.215,
1348,-0.735,-0.225,
1349,-0.74,-0.215,
1350,-0.75,-0.215,
1351,-0.755,-0.23,
1352,-0.77,-0.235,
1353,-0.77,-0.24,
1354,-0.77,-0.235,
1355,-0.78,-0.23,
1356,-0.785,-0.225,
1357,-0.78,-0.225,
1358,-0.785,-0.205,
1359,-0.775,-0.2,
1360,-0.77,-0.19,
1361,-0.77,-0.195,
1362,-0.78,-0.2,
1363,-0.79,-0.21,
1364,-0.8,-0.205,
1365,-0.805,-0.22,
1366,-0.81,-0.22,
1367,-0.81,-0.205,
1368,-0.82,-0.21,
1369,-0.835,-0.19,
1370,-0.82,-0.19,
1371,-0.82,-0.185,
1372,-0.81,-0.17,
1373,-0.83,-0.18,
1374,-0.84,-0.175,
1375,-0.835,-0.17,
1376,-0.84,-0.19,
1377,-0.86,-0.185,
1378,-0.87,-0.18,
1379,-0.865,-0.17,
1380,-0.875,-0.165,
1381,-0.87,-0.145,
1382,-0.875,-0.145,
1383,-0.875,-0.125,
1384,-0.88,-0.125,
1385,-0.87,-0.12,
1386,-0.875,-0.11,
1387,-0.865,-0.105,
1388,-0.895,-0.105,
1389,-0.89,-0.1,
1390,-0.885,-0.115,
1391,-0.885,-0.105,
1392,-0.86,-0.095,
1393,-0.865,-0.075,
1394,-0.85,-0.07,
1395,-0.83,-0.065,
1396,-0.81,-0.06,
1397,-0.805,-0.075,
1398,-0.79,-0.07,
1399,-0.77,-0.075,
1400,-0.76,-0.075,
1401,-0.76,-0.09,
1402,-0.745,-0.085,
1403,-0.725,-0.095,
1404,-0.72,-0.095,
1405,-0.69,-0.105,
1406,-0.67,-0.085,
1407,-0.645,-0.08,
1408,-0.63,-0.09,
1409,-0.63,-0.125,
1410,-0.62,-0.12,
1411,-0.615,-0.135,
1412,-0.635,-0.155,
1413,-0.62,-0.16,
1414,-0.615,-0.17,
1415,-0.62,-0.175,
1416,-0.615,-0.18,
1417,-0.61,-0.185,
1418,-0.595,-0.175,
1419,-0.575,-0.17,
1420,-0.57,-0.175,
1421,-0.56,-0.175,
1422,-0.56,-0.205,
1423,-0.58,-0.205,
1424,-0.585,-0.21,
1425,-0.585,-0.225,
1426,-0.6,-0.225,
1427,-0.595,-0.225,
1428,-0.6,-0.225,
1429,-0.605,-0.215,
1430,-0.585,-0.21,
1431,-0.58,-0.2,
1432,-0.57,-0.205,
1433,-0.575,-0.22,
1434,-0.58,-0.21,
1435,-0.59,-0.22,
1436,-0.61,-0.235,
1437,-0.615,-0.24,
1438,-0.63,-0.25,
1439,-0.62,-0.25,
1440,-0.62,-0.23,
1441,-0.61,-0.235,
1442,-0.615,-0.225,
1443,-0.61,-0.22,
1444,-0.6,-0.22,
1445,-0.6,-0.22,
1446,-0.61,-0.235,
1447,-0.61,-0.24,
1448,-0.615,-0.24,
1449,-0.62,-0.24,
1450,-0.63,-0.245,
1451,-0.63,-0.24,
1452,-0.64,-0.235,
1453,-0.65,-0.23,
1454,-0.635,-0.235,
1455,-0.63,-0.225,
1456,-0.63,-0.22,
1457,-0.625,-0.23,
1458,-0.635,-0.24,
1459,-0.63,-0.245,
1460,-0.64,-0.245,
1461,-0.64,-0.24,
1462,-0.64,-0.255,
1463,-0.645,-0.25,
1464,-0.655,-0.245,
1465,-0.65,-0.24,
1466,-0.645,-0.225,
1467,-0.62,-0.23,
1468,-0.63,-0.215,
1469,-0.625,-0.225,
1470,-0.62,-0.235,
1471,-0.625,-0.245,
1472,-0.625,-0.25,
1473,-0.63,-0.245,
1474,-0.625,-0.25,
1475,-0.625,-0.245,
1476,-0.62,-0.24,
1477,-0.615,-0.25,
1478,-0.6,-0.235,
1479,-0.605,-0.24,
1480,-0.59,-0.23,
1481,-0.595,-0.225,
1482,-0.6,-0.24,
1483,-0.595,-0.25,
1484,-0.59,-0.25,
1485,-0.605,-0.255,
1486,-0.6,-0.27,
1487,-0.61,-0.265,
1488,-0.605,-0.25,
1489,-0.615,-0.25,
1490,-0.61,-0.24,
1491,-0.605,-0.23,
1492,-0.575,-0.235,
1493,-0.57,-0.24,
1494,-0.58,-0.245,
1495,-0.59,-0.24,
1496,-0.585,-0.255,
1497,-0.585,-0.265,
1498,-0.575,-0.27,
1499,-0.575,-0.27,
1500,-0.565,-0.255,
1501,-0.555,-0.255,
1502,-0.55,-0.25,
1503,-0.54,-0.245,
1504,-0.525,-0.24,
1505,-0.54,-0.245,
1506,-0.535,-0.255,
1507,-0.53,-0.25,
1508,-0.535,-0.265,
1509,-0.53,-0.26,
1510,-0.53,-0.265,
1511,-0.535,-0.245,
1512,-0.52,-0.24,
1513,-0.515,-0.24,
1514,-0.495,-0.23,
1515,-0.49,-0.235,
1516,-0.46,-0.235,
1517,-0.44,-0.25,
1518,-0.43,-0.265,
1519,-0.44,-0.285,
1520,-0.44,-0.315,
1521,-0.445,-0.325,
1522,-0.45,-0.36,
1523,-0.475,-0.36,
1524,-0.47,-0.365,
1525,-0.495,-0.345,
1526,-0.49,-0.335,
1527,-0.49,-0.32,
1528,-0.51,-0.3,
1529,-0.525,-0.295,
1530,-0.55,-0.3,
1531,-0.56,-0.29,
1532,-0.58,-0.3,
1533,-0.6,-0.31,
1534,-0.615,-0.3,
1535,-0.635,-0.285,
1536,-0.635,-0.29,
1537,-0.645,-0.27,
1538,-0.64,-0.27,
1539,-0.62,-0.27,
1540,-0.615,-0.26,
1541,-0.615,-0.27,
1542,-0.615,-0.28,
1543,-0.615,-0.29,
1544,-0.61,-0.3,
1545,-0.625,-0.305,
1546,-0.635,-0.31,
1547,-0.63,-0.295,
1548,-0.635,-0.3,
1549,-0.63,-0.295,
1550,-0.62,-0.285,
1551,-0.615,-0.285,
1552,-0.595,-0.275,
1553,-0.59,-0.285,
1554,-0.585,-0.29,
1555,-0.575,-0.305,
1556,-0.57,-0.31,
1557,-0.555,-0.315,
1558,-0.535,-0.325,
1559,-0.5,-0.315,
1560,-0.455,-0.31,
1561,-0.38,-0.295,
1562,-0.28,-0.295,
1563,-0.185,-0.275,
1564,-0.05,-0.27,
1565,0.085,-0.275,
1566,0.235,-0.305,
1567,0.41,-0.315,
1568,0.58,-0.36,
1569,0.74,-0.425,
1570,0.89,-0.5,
1571,1.015,-0.585,
1572,1.1,-0.695,
1573,1.195,-0.78,
1574,1.26,-0.875,N
1575,1.35,-0.94,
1576,1.38,-1.04,
1577,1.31,-1.145,
1578,1.14,-1.23,
1579,0.85,-1.33,
1580,0.485,-1.4,
1581,0.1,-1.41,
1582,-0.245,-1.42,
1583,-0.525,-1.385,
1584,-0.705,-1.315,
1585,-0.805,-1.205,
1586,-0.825,-1.105,
1587,-0.815,-0.99,
1588,-0.785,-0.9,
1589,-0.77,-0.835,
1590,-0.755,-0.76,
1591,-0.74,-0.71,
1592,-0.73,-0.64,
1593,-0.725,-0.575,
1594,-0.725,-0.51,
1595,-0.72,-0.425,
1596,-0.715,-0.385,
1597,-0.715,-0.33,
1598,-0.725,-0.32,
1599,-0.715,-0.305,
1600,-0.715,-0.3,
1601,-0.715,-0.305,
1602,-0.725,-0.305,
1603,-0.74,-0.305,
1604,-0.745,-0.305,
1605,-0.75,-0.31,
1606,-0.765,-0.315,
1607,-0.775,-0.3,
1608,-0.775,-0.31,
1609,-0.765,-0.295,
1610,-0.77,-0.285,
1611,-0.765,-0.285,
1612,-0.76,-0.27,
1613,-0.76,-0.265,
1614,-0.765,-0.275,
1615,-0.77,-0.275,
1616,-0.785,-0.295,
1617,-0.78,-0.295,
1618,-0.79,-0.3,
1619,-0.79,-0.3,
1620,-0.8,-0.285,
1621,-0.795,-0.28,
1622,-0.785,-0.275,
1623,-0.79,-0.265,
1624,-0.77,-0.255,
1625,-0.785,-0.275,
1626,-0.795,-0.27,
1627,-0.8,-0.28,
1628,-0.815,-0.285,
1629,-0.805,-0.285,
1630,-0.825,-0.29,
1631,-0.825,-0.29,
1632,-0.83,-0.285,
1633,-0.825,-0.265,
1634,-0.815,-0.255,
1635,-0.825,-0.255,
1636,-0.815,-0.255,
1637,-0.835,-0.25,
1638,-0.835,-0.255,
1639,-0.835,-0.26,
1640,-0.835,-0.27,
1641,-0.845,-0.27,
1642,-0.855,-0.275,
1643,-0.865,-0.27,
1644,-0.87,-0.265,
1645,-0.865,-0.26,
1646,-0.86,-0.245,
1647,-0.86,-0.23,
1648,-0.865,-0.23,
1649,-0.865,-0.23,
1650,-0.88,-0.23,
1651,-0.875,-0.245,
1652,-0.88,-0.245,
1653,-0.905,-0.255,
1654,-0.905,-0.245,
1655,-0.915,-0.245,
1656,-0.915,-0.23,
1657,-0.915,-0.22,
1658,-0.915,-0.21,
1659,-0.91,-0.2,
1660,-0.9,-0.18,
1661,-0.885,-0.195,
1662,-0.885,-0.195,
1663,-0.89,-0.2,
1664,-0.9,-0.2,
1665,-0.885,-0.195,
1666,-0.89,-0.195,
1667,-0.89,-0.185,
1668,-0.88,-0.18,
1669,-0.875,-0.175,
1670,-0.845,-0.175,
1671,-0.845,-0.155,
1672,-0.84,-0.165,
1673,-0.815,-0.17,
1674,-0.82,-0.17,
1675,-0.805,-0.185,
1676,-0.79,-0.185,
1677,-0.77,-0.19,
1678,-0.75,-0.2,
1679,-0.74,-0.205,
1680,-0.7,-0.205,
1681,-0.69,-0.205,
1682,-0.67,-0.21,
1683,-0.65,-0.21,
1684,-0.625,-0.21,
1685,-0.615,-0.225,
1686,-0.61,-0.24,
1687,-0.6,-0.255,
1688,-0.595,-0.275,
1689,-0.6,-0.285,
1690,-0.605,-0.285,
1691,-0.6,-0.285,
1692,-0.595,-0.29,
1693,-0.59,-0.29,
1694,-0.58,-0.29,
1695,-0.58,-0.29,
1696,-0.565,-0.285,
1697,-0.57,-0.3,
1698,-0.565,-0.31,
1699,-0.56,-0.31,
1700,-0.575,-0.33,
1701,-0.565,-0.345,
1702,-0.575,-0.35,
1703,-0.575,-0.34,
1704,-0.57,-0.34,
1705,-0.565,-0.335,
1706,-0.575,-0.34,
1707,-0.565,-0.33,
1708,-0.55,-0.335,
1709,-0.56,-0.34,
1710,-0.56,-0.345,
1711,-0.56,-0.355,
1712,-0.57,-0.37,
1713,-0.565,-0.37,
1714,-0.575,-0.37,
1715,-0.58,-0.36,
1716,-0.58,-0.365,
1717,-0.58,-0.36,
1718,-0.57,-0.365,
1719,-0.555,-0.36,
1720,-0.575,-0.345,
1721,-0.575,-0.365,
1722,-0.58,-0.37,
1723,-0.595,-0.375,
1724,-0.595,-0.385,
1725,-0.59,-0.395,
1726,-0.61,-0.39,
1727,-0.61,-0.39,
1728,-0.61,-0.38,
1729,-0.595,-0.37,
1730,-0.59,-0.365,
1731,-0.585,-0.36,
1732,-0.58,-0.36,
1733,-0.59,-0.375,
1734,-0.58,-0.37,
1735,-0.59,-0.38,
1736,-0.59,-0.385,
1737,-0.6,-0.385,
1738,-0.6,-0.385,
1739,-0.61,-0.385,
1740,-0.605,-0.39,
1741,-0.605,-0.37,
1742,-0.59,-0.37,
1743,-0.58,-0.36,
1744,-0.57,-0.365,
1745,-0.57,-0.37,
1746,-0.57,-0.36,
1747,-0.585,-0.375,
1748,-0.57,-0.38,
1749,-0.58,-0.385,
1750,-0.575,-0.395,
1751,-0.585,-0.395,
1752,-0.58,-0.39,
1753,-0.575,-0.375,
1754,-0.565,-0.385,
1755,-0.56,-0.36,
1756,-0.56,-0.36,
1757,-0.545,-0.37,
1758,-0.545,-0.37,
1759,-0.535,-0.39,
1760,-0.55,-0.4,
1761,-0.55,-0.39,
1762,-0.56,-0.41,
1763,-0.555,-0.4,
1764,-0.545,-0.395,
1765,-0.555,-0.39,
1766,-0.54,-0.385,
1767,-0.535,-0.38,
1768,-0.52,-0.37,
1769,-0.505,-0.38,
1770,-0.52,-0.385,
1771,-0.515,-0.395,
1772,-0.52,-0.41,
1773,-0.515,-0.41,
1774,-0.52,-0.42,
1775,-0.525,-0.41,
1776,-0.51,-0.405,
1777,-0.51,-0.405,
1778,-0.495,-0.39,
1779,-0.48,-0.39,
1780,-0.465,-0.38,
1781,-0.46,-0.39,
1782,-0.455,-0.39,
1783,-0.45,-0.395,
1784,-0.46,-0.395,
1785,-0.465,-0.395,
1786,-0.465,-0.405,
1787,-0.46,-0.39,
1788,-0.445,-0.385,
1789,-0.435,-0.385,
1790,-0.415,-0.375,
1791,-0.405,-0.375,
1792,-0.38,-0.375,
1793,-0.365,-0.385,
1794,-0.355,-0.39,
1795,-0.355,-0.42,
1796,-0.36,-0.425,
1797,-0.37,-0.445,
1798,-0.37,-0.475,
1799,-0.385,-0.48,
1800,-0.4,-0.48,
1801,-0.405,-0.485,
1802,-0.41,-0.48,
1803,-0.405,-0.455,
1804,-0.405,-0.455,
1805,-0.41,-0.445,
1806,-0.415,-0.445,
1807,-0.445,-0.445,
1808,-0.465,-0.45,
1809,-0.485,-0.45,
1810,-0.49,-0.44,
1811,-0.505,-0.44,
1812,-0.51,-0.44,
1813,-0.515,-0.425,
1814,-0.53,-0.405,
1815,-0.52,-0.41,
1816,-0.525,-0.4,
1817,-0.54,-0.4,
1818,-0.555,-0.405,
1819,-0.555,-0.415,
1820,-0.56,-0.41,
1821,-0.56,-0.425,
1822,-0.555,-0.435,
1823,-0.565,-0.425,
1824,-0.555,-0.415,
1825,-0.555,-0.425,
1826,-0.555,-0.41,
1827,-0.535,-0.4,
1828,-0.54,-0.4,
1829,-0.535,-0.41,
1830,-0.515,-0.41,
1831,-0.515,-0.42,
1832,-0.52,-0.435,
1833,-0.52,-0.44,
1834,-0.505,-0.445,
1835,-0.505,-0.445,
1836,-0.49,-0.445,
1837,-0.475,-0.43,
1838,-0.445,-0.42,
1839,-0.425,-0.41,
1840,-0.37,-0.405,
1841,-0.32,-0.425,
1842,-0.255,-0.43,
1843,-0.175,-0.435,
1844,-0.085,-0.45,
1845,0.025,-0.45,
1846,0.145,-0.46,
1847,0.29,-0.475,
1848,0.47,-0.495,
1849,0.68,-0.53,
1850,0.86,-0.575,
1851,1.04,-0.675,
1852,1.185,-0.775,
1853,1.32,-0.885,
1854,1.42,-0.99,
1855,1.525,-1.105,N
1856,1.615,-1.215,
1857,1.635,-1.32,
1858,1.57,-1.42,
1859,1.345,-1.52,
1860,1.02,-1.59,
1861,0.61,-1.625,
1862,0.215,-1.635,
1863,-0.15,-1.59,
1864,-0.415,-1.51,
1865,-0.575,-1.42,
1866,-0.65,-1.31,
1867,-0.66,-1.195,
1868,-0.66,-1.095,
1869,-0.655,-1.025,
1870,-0.655,-0.96,
1871,-0.66,-0.895,
1872,-0.635,-0.83,
1873,-0.63,-0.765,
1874,-0.62,-0.69,
1875,-0.605,-0.62,
1876,-0.6,-0.56,
1877,-0.6,-0.495,
1878,-0.605,-0.46,
1879,-0.615,-0.455,
1880,-0.625,-0.445,
1881,-0.64,-0.465,
1882,-0.65,-0.45,
1883,-0.66,-0.44,
1884,-0.665,-0.435,
1885,-0.655,-0.42,
1886,-0.67,-0.41,
1887,-0.65,-0.4,
1888,-0.645,-0.38,
1889,-0.65,-0.385,
1890,-0.66,-0.4,
1891,-0.66,-0.39,
1892,-0.67,-0.405,
1893,-0.67,-0.41,
1894,-0.695,-0.41,
1895,-0.685,-0.4,
1896,-0.69,-0.39,
1897,-0.7,-0.395,
1898,-0.705,-0.39,
1899,-0.69,-0.38,
1900,-0.685,-0.355,
1901,-0.68,-0.37,
1902,-0.68,-0.375,
1903,-0.685,-0.385,
1904,-0.695,-0.38,
1905,-0.705,-0.395,
1906,-0.72,-0.395,
1907,-0.725,-0.385,
1908,-0.735,-0.38,
1909,-0.73,-0.37,
1910,-0.73,-0.37,
1911,-0.735,-0.36,
1912,-0.73,-0.355,
1913,-0.72,-0.355,
1914,-0.725,-0.345,
1915,-0.73,-0.365,
1916,-0.74,-0.37,
1917,-0.745,-0.365,
1918,-0.76,-0.37,
1919,-0.78,-0.36,
1920,-0.785,-0.355,
1921,-0.79,-0.35,
1922,-0.785,-0.35,
1923,-0.775,-0.33,
1924,-0.77,-0.325,
1925,-0.765,-0.32,
1926,-0.78,-0.325,
1927,-0.78,-0.325,
1928,-0.795,-0.32,
1929,-0.8,-0.335,
1930,-0.815,-0.33,
1931,-0.825,-0.335,
1932,-0.825,-0.325,
1933,-0.835,-0.32,
1934,-0.83,-0.29,
1935,-0.83,-0.29,
1936,-0.83,-0.265,
1937,-0.825,-0.27,
1938,-0.84,-0.27,
1939,-0.835,-0.275,
1940,-0.845,-0.285,
1941,-0.83,-0.27,
1942,-0.85,-0.27,
1943,-0.85,-0.26,
1944,-0.84,-0.255,
1945,-0.84,-0.245,
1946,-0.83,-0.23,
1947,-0.815,-0.22,
1948,-0.805,-0.215,
1949,-0.805,-0.215,
1950,-0.785,-0.205,
1951,-0.785,-0.215,
1952,-0.775,-0.235,
1953,-0.77,-0.23,
1954,-0.765,-0.24,
1955,-0.765,-0.235,
1956,-0.75,-0.22,
1957,-0.73,-0.23,
1958,-0.71,-0.225,
1959,-0.68,-0.23,
1960,-0.655,-0.225,
1961,-0.645,-0.225,
1962,-0.625,-0.25,
1963,-0.625,-0.255,
1964,-0.62,-0.265,
1965,-0.625,-0.27,
1966,-0.61,-0.29,
1967,-0.605,-0.3,
1968,-0.58,-0.31,
1969,-0.59,-0.3,
1970,-0.56,-0.315,
1971,-0.56,-0.325,
1972,-0.555,-0.32,
1973,-0.545,-0.33,
1974,-0.545,-0.34,
1975,-0.54,-0.355,
1976,-0.535,-0.37,
1977,-0.54,-0.37,
1978,-0.545,-0.385,
1979,-0.55,-0.385,
1980,-0.545,-0.39,
1981,-0.54,-0.38,
1982,-0.535,-0.385,
1983,-0.54,-0.375,
1984,-0.52,-0.375,
1985,-0.515,-0.385,
1986,-0.53,-0.375,
1987,-0.54,-0.395,
1988,-0.55,-0.405,
1989,-0.56,-0.405,
1990,-0.55,-0.41,
1991,-0.56,-0.405,
1992,-0.56,-0.4,
1993,-0.565,-0.395,
1994,-0.545,-0.4,
1995,-0.55,-0.4,
1996,-0.55,-0.39,
1997,-0.55,-0.4,
1998,-0.555,-0.39,
1999,-0.565,-0.405,
2000,-0.565,-0.415,
2001,-0.575,-0.42,
2002,-0.585,-0.415,
2003,-0.585,-0.41,
2004,-0.585,-0.415,
2005,-0.59,-0.41,
2006,-0.585,-0.395,
2007,-0.58,-0.395,
2008,-0.585,-0.385,
2009,-0.58,-0.385,
2010,-0.6,-0.395,
2011,-0.58,-0.405,
2012,-0.59,-0.39,
2013,-0.585,-0.415,
2014,-0.6,-0.41,
2015,-0.6,-0.4,
2016,-0.605,-0.405,
2017,-0.6,-0.4,
2018,-0.595,-0.395,
2019,-0.595,-0.395,
2020,-0.585,-0.385,
2021,-0.585,-0.385,
2022,-0.575,-0.39,
2023,-0.575,-0.395,
2024,-0.595,-0.405,
2025,-0.585,-0.41,
2026,-0.6,-0.405,
2027,-0.605,-0.405,
2028,-0.6,-0.415,
2029,-0.585,-0.405,
2030,-0.58,-0.4,
2031,-0.57,-0.385,
2032,-0.575,-0.375,
2033,-0.565,-0.385,
2034,-0.57,-0.385,
2035,-0.57,-0.405,
2036,-0.58,-0.405,
2037,-0.575,-0.41,
2038,-0.575,-0.415,
2039,-0.58,-0.41,
2040,-0.57,-0.405,
2041,-0.565,-0.395,
2042,-0.56,-0.395,
2043,-0.56,-0.385,
2044,-0.56,-0.385,
2045,-0.54,-0.395,
2046,-0.54,-0.405,
2047,-0.53,-0.395,
2048,-0.54,-0.405,
2049,-0.52,-0.4,
2050,-0.53,-0.42,
2051,-0.52,-0.425,
2052,-0.52,-0.415,
2053,-0.515,-0.41,
2054,-0.5,-0.385,
2055,-0.5,-0.385,
2056,-0.49,-0.37,
2057,-0.475,-0.37,
2058,-0.475,-0.385,
2059,-0.47,-0.38,
2060,-0.465,-0.385,
2061,-0.47,-0.385,
2062,-0.46,-0.4,
2063,-0.465,-0.395,
2064,-0.455,-0.39,
2065,-0.445,-0.385,
2066,-0.415,-0.385,
2067,-0.405,-0.385,
2068,-0.39,-0.39,
2069,-0.385,-0.41,
2070,-0.375,-0.42,
2071,-0.385,-0.445,
2072,-0.39,-0.46,
2073,-0.405,-0.48,
2074,-0.425,-0.5,
2075,-0.425,-0.495,
2076,-0.445,-0.485,
2077,-0.45,-0.48,
2078,-0.46,-0.455,
2079,-0.47,-0.425,
2080,-0.465,-0.43,
2081,-0.475,-0.42,
2082,-0.495,-0.43,
2083,-0.515,-0.425,
2084,-0.525,-0.42,
2085,-0.54,-0.435,
2086,-0.56,-0.435,
2087,-0.575,-0.44,
2088,-0.6,-0.42,
2089,-0.595,-0.415,
2090,-0.59,-0.405,
2091,-0.585,-0.41,
2092,-0.58,-0.395,
2093,-0.575,-0.4,
2094,-0.575,-0.415,
2095,-0.585,-0.42,
2096,-0.585,-0.425,
2097,-0.6,-0.43,
2098,-0.605,-0.445,
2099,-0.61,-0.435,
2100,-0.605,-0.43,
2101,-0.61,-0.42,
2102,-0.595,-0.415,
2103,-0.585,-0.41,
2104,-0.575,-0.405,
2105,-0.545,-0.415,
2106,-0.54,-0.415,
2107,-0.53,-0.42,
2108,-0.555,-0.435,
2109,-0.53,-0.44,
2110,-0.53,-0.46,
2111,-0.505,-0.45,
2112,-0.48,-0.445,
2113,-0.425,-0.44,
2114,-0.34,-0.44,
2115,-0.25,-0.43,
2116,-0.13,-0.435,
2117,0.025,-0.435,
2118,0.205,-0.455,
2119,0.42,-0.495,
2120,0.625,-0.57,
2121,0.83,-0.665,
2122,1.015,-0.775,
2123,1.17,-0.895,
2124,1.28,-1.03,
2125,1.37,-1.145,N
2126,1.44,-1.25,
2127,1.435,-1.355,
2128,1.3,-1.465,
2129,1.065,-1.56,
2130,0.715,-1.63,
2131,0.33,-1.68,
2132,-0.045,-1.675,
2133,-0.355,-1.615,
2134,-0.585,-1.535,
2135,-0.705,-1.42,
2136,-0.745,-1.295,
2137,-0.75,-1.185,
2138,-0.72,-1.08,
2139,-0.695,-1.0,
2140,-0.7,-0.93,
2141,-0.695,-0.88,
2142,-0.69,-0.82,
2143,-0.685,-0.755,
2144,-0.68,-0.695,
2145,-0.685,-0.62,
2146,-0.69,-0.555,
2147,-0.715,-0.515,
2148,-0.715,-0.465,
2149,-0.71,-0.455,
2150,-0.715,-0.44,
2151,-0.71,-0.435,
2152,-0.725,-0.425,
2153,-0.7,-0.42,
2154,-0.71,-0.42,
2155,-0.715,-0.405,
2156,-0.72,-0.415,
2157,-0.725,-0.425,
2158,-0.73,-0.42,
2159,-0.74,-0.415,
2160,-0.745,-0.42,
2161,-0.755,-0.41,
2162,-0.755,-0.395,
2163,-0.76,-0.39,
2164,-0.745,-0.38,
2165,-0.735,-0.385,
2166,-0.74,-0.39,
2167,-0.74,-0.405,
2168,-0.755,-0.4,
2169,-0.765,-0.405,
2170,-0.77,-0.4,
2171,-0.78,-0.395,
2172,-0.77,-0.39,
2173,-0.78,-0.39,
2174,-0.775,-0.36,
2175,-0.78,-0.37,
2176,-0.765,-0.365,
2177,-0.775,-0.365,
2178,-0.785,-0.375,
2179,-0.78,-0.375,
2180,-0.78,-0.375,
2181,-0.795,-0.385,
2182,-0.8,-0.39,
2183,-0.82,-0.38,
2184,-0.81,-0.375,
2185,-0.81,-0.37,
2186,-0.805,-0.36,
2187,-0.81,-0.345,
2188,-0.805,-0.34,
2189,-0.81,-0.33,
2190,-0.81,-0.35,
2191,-0.825,-0.345,
2192,-0.825,-0.36,
2193,-0.845,-0.35,
2194,-0.855,-0.37,
2195,-0.855,-0.355,
2196,-0.86,-0.345,
2197,-0.875,-0.335,
2198,-0.87,-0.335,
2199,-0.87,-0.32,
2200,-0.87,-0.305,
2201,-0.875,-0.3,
2202,-0.88,-0.295,
2203,-0.875,-0.31,
2204,-0.895,-0.3,
2205,-0.895,-0.305,
2206,-0.91,-0.3,
2207,-0.915,-0.285,
2208,-0.915,-0.295,
2209,-0.93,-0.275,
2210,-0.915,-0.265,
2211,-0.915,-0.25,
2212,-0.905,-0.24,
2213,-0.895,-0.24,
2214,-0.9,-0.225,
2215,-0.9,-0.235,
2216,-0.895,-0.23,
2217,-0.905,-0.24,
2218,-0.9,-0.235,
2219,-0.92,-0.23,
2220,-0.905,-0.225,
2221,-0.89,-0.22,
2222,-0.87,-0.21,
2223,-0.86,-0.19,
2224,-0.84,-0.19,
2225,-0.83,-0.19,
2226,-0.815,-0.2,
2227,-0.81,-0.21,
2228,-0.8,-0.22,
2229,-0.785,-0.22,
2230,-0.77,-0.235,
2231,-0.76,-0.24,
2232,-0.75,-0.25,
2233,-0.725,-0.235,
2234,-0.715,-0.245,
2235,-0.69,-0.235,
2236,-0.67,-0.24,
2237,-0.655,-0.26,
2238,-0.655,-0.255,
2239,-0.65,-0.285,
2240,-0.64,-0.3,
2241,-0.65,-0.305,
2242,-0.655,-0.32,
2243,-0.66,-0.335,
2244,-0.65,-0.33,
2245,-0.64,-0.325,
2246,-0.64,-0.32,
2247,-0.625,-0.325,
2248,-0.615,-0.325,
2249,-0.61,-0.325,
2250,-0.62,-0.335,
2251,-0.625,-0.345,
2252,-0.63,-0.37,
2253,-0.63,-0.37,
2254,-0.63,-0.395,
2255,-0.63,-0.395,
2256,-0.64,-0.38,
2257,-0.645,-0.385,
2258,-0.645,-0.38,
2259,-0.61,-0.37,
2260,-0.62,-0.37,
2261,-0.61,-0.38,
2262,-0.61,-0.37,
2263,-0.62,-0.39,
2264,-0.635,-0.41,
2265,-0.635,-0.405,
2266,-0.645,-0.42,
2267,-0.65,-0.42,
2268,-0.64,-0.41,
2269,-0.65,-0.395,
2270,-0.635,-0.4,
2271,-0.65,-0.39,
2272,-0.645,-0.37,
2273,-0.64,-0.385,
2274,-0.655,-0.39,
2275,-0.665,-0.39,
2276,-0.665,-0.4,
2277,-0.67,-0.41,
2278,-0.67,-0.41,
2279,-0.675,-0.405,
2280,-0.67,-0.405,
2281,-0.68,-0.395,
2282,-0.665,-0.385,
2283,-0.655,-0.38,
2284,-0.655,-0.37,
2285,-0.655,-0.37,
2286,-0.655,-0.385,
2287,-0.655,-0.39,
2288,-0.66,-0.385,
2289,-0.68,-0.385,
2290,-0.67,-0.395,
2291,-0.68,-0.385,
2292,-0.68,-0.39,
2293,-0.67,-0.38,
2294,-0.665,-0.38,
2295,-0.66,-0.365,
2296,-0.66,-0.365,
2297,-0.64,-0.36,
2298,-0.65,-0.38,
2299,-0.645,-0.375,
2300,-0.645,-0.395,
2301,-0.645,-0.385,
2302,-0.65,-0.405,
2303,-0.645,-0.39,
2304,-0.64,-0.395,
2305,-0.635,-0.38,
2306,-0.635,-0.385,
2307,-0.64,-0.37,
2308,-0.62,-0.365,
2309,-0.6,-0.37,
2310,-0.6,-0.38,
2311,-0.595,-0.385,
2312,-0.595,-0.38,
2313,-0.605,-0.39,
2314,-0.6,-0.4,
2315,-0.595,-0.39,
2316,-0.59,-0.385,
2317,-0.595,-0.385,
2318,-0.58,-0.375,
2319,-0.575,-0.36,
2320,-0.555,-0.36,
2321,-0.555,-0.35,
2322,-0.545,-0.35,
2323,-0.53,-0.37,
2324,-0.54,-0.36,
2325,-0.525,-0.37,
2326,-0.52,-0.36,
2327,-0.52,-0.36,
2328,-0.5,-0.365,
2329,-0.49,-0.36,
2330,-0.465,-0.36,
2331,-0.455,-0.37,
2332,-0.44,-0.37,
2333,-0.43,-0.385,
2334,-0.445,-0.4,
2335,-0.445,-0.425,
2336,-0.47,-0.455,
2337,-0.475,-0.455,
2338,-0.505,-0.465,
2339,-0.525,-0.465,
2340,-0.535,-0.44,
2341,-0.55,-0.415,
2342,-0.55,-0.4,
2343,-0.56,-0.39,
2344,-0.57,-0.375,
2345,-0.575,-0.385,
2346,-0.605,-0.385,
2347,-0.61,-0.385,
2348,-0.63,-0.38,
2349,-0.635,-0.39,
2350,-0.655,-0.39,
2351,-0.65,-0.385,
2352,-0.65,-0.395,
2353,-0.65,-0.385,
2354,-0.64,-0.375,
2355,-0.635,-0.375,
2356,-0.63,-0.355,
2357,-0.61,-0.365,
2358,-0.63,-0.38,
2359,-0.62,-0.385,
2360,-0.63,-0.385,
2361,-0.61,-0.4,
2362,-0.615,-0.4,
2363,-0.625,-0.4,
2364,-0.605,-0.4,
2365,-0.595,-0.39,
2366,-0.585,-0.375,
2367,-0.57,-0.375,
2368,-0.535,-0.375,
2369,-0.5,-0.38,
2370,-0.455,-0.385,
2371,-0.395,-0.4,
2372,-0.32,-0.405,
2373,-0.22,-0.4,
2374,-0.095,-0.415,
2375,0.04,-0.415,
2376,0.21,-0.44,
2377,0.4,-0.465,
2378,0.625,-0.515,
2379,0.815,-0.575,
2380,0.99,-0.68,
2381,1.12,-0.795,
2382,1.215,-0.94,
2383,1.285,-1.05,N
2384,1.345,-1.17,
2385,1.33,-1.29,
2386,1.215,-1.41,
2387,1.035,-1.515,
2388,0.74,-1.585,
2389,0.395,-1.635,
2390,0.05,-1.635,
2391,-0.25,-1.6,
2392,-0.5,-1.535,
2393,-0.64,-1.445,
2394,-0.73,-1.34,
2395,-0.76,-1.23,
2396,-0.755,-1.125,
2397,-0.75,-1.03,
2398,-0.75,-0.95,
2399,-0.755,-0.875,
2400,-0.75,-0.795,
2401,-0.74,-0.725,
2402,-0.725,-0.64,
2403,-0.715,-0.555,
2404,-0.715,-0.485,
2405,-0.705,-0.43,
2406,-0.715,-0.395,
2407,-0.72,-0.38,
2408,-0.75,-0.365,
2409,-0.74,-0.385,
2410,-0.755,-0.37,
2411,-0.765,-0.365,
2412,-0.76,-0.36,
2413,-0.755,-0.355,
2414,-0.76,-0.345,
2415,-0.76,-0.33,
2416,-0.765,-0.325,
2417,-0.745,-0.325,
2418,-0.76,-0.325,
2419,-0.755,-0.32,
2420,-0.77,-0.34,
2421,-0.76,-0.345,
2422,-0.765,-0.34,
2423,-0.77,-0.345,
2424,-0.77,-0.335,
2425,-0.77,-0.325,
2426,-0.775,-0.32,
2427,-0.77,-0.315,
2428,-0.765,-0.31,
2429,-0.765,-0.315,
2430,-0.775,-0.32,
2431,-0.77,-0.315,
2432,-0.79,-0.315,
2433,-0.8,-0.33,
2434,-0.8,-0.33,
2435,-0.805,-0.33,
2436,-0.805,-0.315,
2437,-0.8,-0.31,
2438,-0.8,-0.295,
2439,-0.81,-0.305,
2440,-0.8,-0.3,
2441,-0.8,-0.29,
2442,-0.815,-0.295,
2443,-0.815,-0.305,
2444,-0.82,-0.305,
2445,-0.845,-0.3,
2446,-0.85,-0.325,
2447,-0.845,-0.305,
2448,-0.835,-0.315,
2449,-0.84,-0.29,
2450,-0.84,-0.28,
2451,-0.83,-0.28,
2452,-0.83,-0.27,
2453,-0.83,-0.26,
2454,-0.84,-0.28,
2455,-0.855,-0.27,
2456,-0.86,-0.28,
2457,-0.865,-0.28,
2458,-0.895,-0.27,
2459,-0.905,-0.285,
2460,-0.9,-0.27,
2461,-0.9,-0.26,
2462,-0.9,-0.24,
2463,-0.89,-0.23,
2464,-0.895,-0.22,
2465,-0.89,-0.215,
2466,-0.89,-0.215,
2467,-0.91,-0.225,
2468,-0.92,-0.215,
2469,-0.92,-0.22,
2470,-0.915,-0.225,
2471,-0.92,-0.215,
2472,-0.92,-0.195,
2473,-0.915,-0.185,
2474,-0.9,-0.17,
2475,-0.89,-0.165,
2476,-0.895,-0.155,
2477,-0.87,-0.135,
2478,-0.865,-0.16,
2479,-0.86,-0.145,
2480,-0.87,-0.16,
2481,-0.85,-0.16,
2482,-0.855,-0.17,
2483,-0.835,-0.155,
2484,-0.82,-0.16,
2485,-0.795,-0.155,
2486,-0.77,-0.15,
2487,-0.745,-0.15,
2488,-0.74,-0.15,
2489,-0.7,-0.15,
2490,-0.69,-0.175,
2491,-0.68,-0.18,
2492,-0.68,-0.19,
2493,-0.67,-0.21,
2494,-0.67,-0.215,
2495,-0.66,-0.23,
2496,-0.65,-0.23,
2497,-0.65,-0.23,
2498,-0.63,-0.24,
2499,-0.62,-0.25,
2500,-0.615,-0.235,
2501,-0.6,-0.245,
2502,-0.595,-0.265,
2503,-0.6,-0.265,
2504,-0.6,-0.28,
2505,-0.605,-0.29,
2506,-0.61,-0.295,
2507,-0.615,-0.31,
2508,-0.61,-0.305,
2509,-0.61,-0.3,
2510,-0.615,-0.3,
2511,-0.605,-0.29,
2512,-0.6,-0.29,
2513,-0.6,-0.295,
2514,-0.585,-0.305,
2515,-0.59,-0.32,
2516,-0.59,-0.31,
2517,-0.595,-0.34,
2518,-0.615,-0.34,
2519,-0.62,-0.34,
2520,-0.615,-0.325,
2521,-0.62,-0.32,
2522,-0.605,-0.315,
2523,-0.605,-0.305,
2524,-0.595,-0.315,
2525,-0.595,-0.3,
2526,-0.585,-0.32,
2527,-0.595,-0.305,
2528,-0.605,-0.325,
2529,-0.61,-0.335,
2530,-0.615,-0.33,
2531,-0.63,-0.335,
2532,-0.625,-0.33,
2533,-0.625,-0.315,
2534,-0.625,-0.31,
2535,-0.62,-0.305,
2536,-0.61,-0.3,
2537,-0.615,-0.305,
2538,-0.605,-0.31,
2539,-0.61,-0.31,
2540,-0.62,-0.305,
2541,-0.63,-0.315,
2542,-0.63,-0.315,
2543,-0.625,-0.32,
2544,-0.635,-0.315,
2545,-0.64,-0.3,
2546,-0.63,-0.29,
2547,-0.63,-0.285,
2548,-0.63,-0.28,
2549,-0.63,-0.28,
2550,-0.62,-0.28,
2551,-0.625,-0.29,
2552,-0.63,-0.3,
2553,-0.63,-0.3,
2554,-0.63,-0.31,
2555,-0.635,-0.3,
2556,-0.635,-0.29,
2557,-0.625,-0.29,
2558,-0.62,-0.28,
2559,-0.615,-0.28,
2560,-0.605,-0.27,
2561,-0.595,-0.27,
2562,-0.585,-0.285,
2563,-0.59,-0.28,
2564,-0.585,-0.28,
2565,-0.59,-0.29,
2566,-0.6,-0.3,
2567,-0.595,-0.295,
2568,-0.585,-0.285,
2569,-0.58,-0.275,
2570,-0.565,-0.27,
2571,-0.555,-0.27,
2572,-0.545,-0.255,
2573,-0.535,-0.255,
2574,-0.525,-0.255,
2575,-0.53,-0.26,
2576,-0.535,-0.275,
2577,-0.54,-0.285,
2578,-0.53,-0.27,
2579,-0.53,-0.27,
2580,-0.515,-0.265,
2581,-0.52,-0.26,
2582,-0.505,-0.245,
2583,-0.48,-0.24,
2584,-0.48,-0.23,
2585,-0.465,-0.23,
2586,-0.435,-0.245,
2587,-0.415,-0.245,
2588,-0.41,-0.26,
2589,-0.405,-0.27,
2590,-0.405,-0.29,
2591,-0.42,-0.3,
2592,-0.415,-0.305,
2593,-0.43,-0.31,
2594,-0.425,-0.32,
2595,-0.425,-0.33,
2596,-0.435,-0.33,
2597,-0.425,-0.32,
2598,-0.44,-0.31,
2599,-0.45,-0.31,
2600,-0.475,-0.32,
2601,-0.485,-0.305,
2602,-0.505,-0.3,
2603,-0.525,-0.305,
2604,-0.54,-0.295,
2605,-0.545,-0.285,
2606,-0.535,-0.265,
2607,-0.55,-0.26,
2608,-0.555,-0.26,
2609,-0.56,-0.245,
2610,-0.575,-0.26,
2611,-0.585,-0.265,
2612,-0.595,-0.265,
2613,-0.605,-0.27,
2614,-0.615,-0.275,
2615,-0.615,-0.28,
2616,-0.605,-0.265,
2617,-0.61,-0.27,
2618,-0.605,-0.245,
2619,-0.595,-0.255,
2620,-0.595,-0.24,
2621,-0.59,-0.25,
2622,-0.58,-0.255,
2623,-0.575,-0.27,
2624,-0.585,-0.27,
2625,-0.575,-0.285,
2626,-0.575,-0.28,
2627,-0.585,-0.295,
2628,-0.58,-0.28,
2629,-0.555,-0.285,
2630,-0.56,-0.285,
2631,-0.535,-0.27,
2632,-0.485,-0.27,
2633,-0.43,-0.265,
2634,-0.365,-0.27,
2635,-0.275,-0.26,
2636,-0.16,-0.285,
2637,-0.025,-0.29,
2638,0.12,-0.305,
2639,0.285,-0.315,
2640,0.48,-0.34,
2641,0.665,-0.38,
2642,0.845,-0.46,
2643,0.995,-0.545,
2644,1.11,-0.655,
2645,1.2,-0.78,
2646,1.27,-0.885,N
2647,1.335,-0.995,
2648,1.36,-1.095,
2649,1.29,-1.2,
2650,1.105,-1.32,
2651,0.815,-1.41,
2652,0.445,-1.465,
2653,0.075,-1.485,
2654,-0.275,-1.46,
2655,-0.53,-1.395,
2656,-0.69,-1.28,
2657,-0.75,-1.165,
2658,-0.77,-1.05,
2659,-0.76,-0.945,
2660,-0.745,-0.87,
2661,-0.72,-0.81,
2662,-0.72,-0.75,
2663,-0.72,-0.69,
2664,-0.71,-0.635,
2665,-0.705,-0.565,
2666,-0.685,-0.495,
2667,-0.69,-0.43,
2668,-0.685,-0.37,
2669,-0.67,-0.315,
2670,-0.675,-0.29,
2671,-0.68,-0.27,
2672,-0.705,-0.27,
2673,-0.705,-0.265,
2674,-0.715,-0.285,
2675,-0.715,-0.28,
2676,-0.72,-0.25,
2677,-0.72,-0.255,
2678,-0.715,-0.24,
2679,-0.715,-0.225,
2680,-0.715,-0.215,
2681,-0.695,-0.21,
2682,-0.715,-0.23,
2683,-0.72,-0.225,
2684,-0.73,-0.22,
2685,-0.72,-0.23,
2686,-0.74,-0.23,
2687,-0.75,-0.23,
2688,-0.745,-0.22,
2689,-0.75,-0.215,
2690,-0.74,-0.195,
2691,-0.735,-0.2,
2692,-0.735,-0.19,
2693,-0.735,-0.19,
2694,-0.73,-0.2,
2695,-0.745,-0.185,
2696,-0.755,-0.2,
2697,-0.765,-0.21,
2698,-0.765,-0.21,
2699,-0.77,-0.195,
2700,-0.775,-0.195,
2701,-0.78,-0.19,
2702,-0.78,-0.185,
2703,-0.765,-0.175,
2704,-0.755,-0.155,
2705,-0.755,-0.165,
2706,-0.765,-0.18,
2707,-0.765,-0.17,
2708,-0.775,-0.18,
2709,-0.79,-0.175,
2710,-0.805,-0.195,
2711,-0.815,-0.185,
2712,-0.81,-0.17,
2713,-0.82,-0.175,
2714,-0.82,-0.15,
2715,-0.815,-0.15,
2716,-0.805,-0.14,
2717,-0.815,-0.125,
2718,-0.815,-0.145,
2719,-0.83,-0.14,
2720,-0.84,-0.15,
2721,-0.845,-0.15,
2722,-0.845,-0.145,
2723,-0.86,-0.145,
2724,-0.865,-0.135,
2725,-0.865,-0.12,
2726,-0.87,-0.1,
2727,-0.855,-0.1,
2728,-0.85,-0.095,
2729,-0.865,-0.075,
2730,-0.87,-0.09,
2731,-0.875,-0.09,
2732,-0.88,-0.085,
2733,-0.885,-0.08,
2734,-0.885,-0.075,
2735,-0.89,-0.075,
2736,-0.89,-0.075,
2737,-0.89,-0.05,
2738,-0.87,-0.05,
2739,-0.86,-0.03,
2740,-0.855,-0.03,
2741,-0.84,-0.02,
2742,-0.835,-0.025,
2743,-0.835,-0.035,
2744,-0.825,-0.035,
2745,-0.835,-0.035,
2746,-0.835,-0.05,
2747,-0.82,-0.045,
2748,-0.825,-0.035,
2749,-0.815,-0.035,
2750,-0.79,-0.04,
2751,-0.77,-0.01,
2752,-0.745,-0.005,
2753,-0.725,-0.01,
2754,-0.72,-0.03,
2755,-0.695,-0.035,
2756,-0.7,-0.055,
2757,-0.69,-0.05,
2758,-0.685,-0.06,
2759,-0.68,-0.07,
2760,-0.675,-0.07,
2761,-0.665,-0.065,
2762,-0.635,-0.065,
2763,-0.63,-0.07,
2764,-0.615,-0.07,
2765,-0.605,-0.08,
2766,-0.595,-0.09,
2767,-0.595,-0.095,
2768,-0.6,-0.115,
2769,-0.6,-0.135,
2770,-0.6,-0.14,
2771,-0.6,-0.15,
2772,-0.605,-0.14,
2773,-0.605,-0.15,
2774,-0.6,-0.14,
2775,-0.595,-0.135,
2776,-0.58,-0.15,
2777,-0.565,-0.145,
2778,-0.565,-0.15,
2779,-0.585,-0.165,
2780,-0.59,-0.185,
2781,-0.59,-0.19,
2782,-0.59,-0.19,
2783,-0.605,-0.195,
2784,-0.61,-0.175,
2785,-0.615,-0.19,
2786,-0.62,-0.185,
2787,-0.61,-0.17,
2788,-0.6,-0.18,
2789,-0.58,-0.17,
2790,-0.59,-0.19,
2791,-0.59,-0.195,
2792,-0.605,-0.205,
2793,-0.605,-0.2,
2794,-0.61,-0.2,
2795,-0.62,-0.21,
2796,-0.625,-0.2,
2797,-0.63,-0.205,
2798,-0.615,-0.185,
2799,-0.625,-0.185,
2800,-0.61,-0.18,
2801,-0.615,-0.175,
2802,-0.615,-0.18,
2803,-0.625,-0.18,
2804,-0.635,-0.2,
2805,-0.625,-0.2,
2806,-0.66,-0.195,
2807,-0.65,-0.2,
2808,-0.655,-0.19,
2809,-0.665,-0.195,
2810,-0.655,-0.185,
2811,-0.65,-0.18,
2812,-0.645,-0.18,
2813,-0.625,-0.165,
2814,-0.615,-0.18,
2815,-0.625,-0.18,
2816,-0.63,-0.19,
2817,-0.625,-0.195,
2818,-0.64,-0.21,
2819,-0.65,-0.205,
2820,-0.65,-0.19,
2821,-0.65,-0.205,
2822,-0.645,-0.19,
2823,-0.64,-0.185,
2824,-0.645,-0.185,
2825,-0.61,-0.185,
2826,-0.615,-0.195,
2827,-0.61,-0.185,
2828,-0.615,-0.2,
2829,-0.635,-0.19,
2830,-0.615,-0.21,
2831,-0.635,-0.215,
2832,-0.625,-0.2,
2833,-0.615,-0.215,
2834,-0.61,-0.195,
2835,-0.605,-0.185,
2836,-0.585,-0.18,
2837,-0.585,-0.175,
2838,-0.57,-0.185,
2839,-0.565,-0.185,
2840,-0.565,-0.185,
2841,-0.57,-0.21,
2842,-0.575,-0.215,
2843,-0.555,-0.21,
2844,-0.57,-0.2,
2845,-0.56,-0.205,
2846,-0.555,-0.19,
2847,-0.54,-0.18,
2848,-0.525,-0.175,
2849,-0.505,-0.16,
2850,-0.475,-0.175,
2851,-0.47,-0.185,
2852,-0.45,-0.205,
2853,-0.445,-0.22,
2854,-0.445,-0.225,
2855,-0.45,-0.255,
2856,-0.45,-0.265,
2857,-0.455,-0.28,
2858,-0.46,-0.285,
2859,-0.47,-0.28,
2860,-0.475,-0.255,
2861,-0.47,-0.255,
2862,-0.495,-0.235,
2863,-0.515,-0.25,
2864,-0.535,-0.24,
2865,-0.55,-0.24,
2866,-0.57,-0.23,
2867,-0.59,-0.23,
2868,-0.595,-0.215,
2869,-0.61,-0.23,
2870,-0.615,-0.21,
2871,-0.625,-0.205,
2872,-0.635,-0.195,
2873,-0.63,-0.195,
2874,-0.625,-0.21,
2875,-0.625,-0.205,
2876,-0.625,-0.21,
2877,-0.625,-0.22,
2878,-0.625,-0.23,
2879,-0.64,-0.23,
2880,-0.64,-0.23,
2881,-0.66,-0.225,
2882,-0.645,-0.225,
2883,-0.64,-0.205,
2884,-0.615,-0.195,
2885,-0.6,-0.21,
2886,-0.595,-0.225,
2887,-0.585,-0.22,
2888,-0.585,-0.225,
2889,-0.585,-0.235,
2890,-0.585,-0.235,
2891,-0.575,-0.245,
2892,-0.555,-0.235,
2893,-0.52,-0.22,
2894,-0.495,-0.22,
2895,-0.435,-0.225,
2896,-0.37,-0.22,
2897,-0.285,-0.21,
2898,-0.19,-0.22,
2899,-0.075,-0.22,
2900,0.035,-0.225,
2901,0.21,-0.25,
2902,0.39,-0.27,
2903,0.58,-0.3,
2904,0.78,-0.375,
2905,0.945,-0.465,
2906,1.09,-0.56,
2907,1.185,-0.68,
2908,1.295,-0.78,N
2909,1.36,-0.89,
2910,1.375,-1.015,
2911,1.27,-1.125,
2912,1.005,-1.25,
2913,0.62,-1.33,
2914,0.145,-1.385,
2915,-0.29,-1.375,
2916,-0.615,-1.305,
2917,-0.825,-1.2,
2918,-0.905,-1.06,
2919,-0.905,-0.93,
2920,-0.86,-0.83,
2921,-0.81,-0.725,
2922,-0.765,-0.66,
2923,-0.74,-0.6,
2924,-0.73,-0.535,
2925,-0.715,-0.465,
2926,-0.735,-0.395,
2927,-0.74,-0.34,
2928,-0.75,-0.28,
2929,-0.755,-0.25,
2930,-0.745,-0.215,
2931,-0.74,-0.21,
2932,-0.75,-0.2,
2933,-0.76,-0.2,
2934,-0.755,-0.215,
2935,-0.755,-0.185,
2936,-0.76,-0.2,
2937,-0.75,-0.205,
2938,-0.77,-0.2,
2939,-0.78,-0.205,
2940,-0.78,-0.19,
2941,-0.775,-0.185,
2942,-0.775,-0.185,
2943,-0.775,-0.17,
2944,-0.78,-0.155,
2945,-0.765,-0.15,
2946,-0.78,-0.16,
2947,-0.77,-0.175,
2948,-0.78,-0.175,
2949,-0.795,-0.18,
2950,-0.795,-0.175,
2951,-0.8,-0.18,
2952,-0.81,-0.17,
2953,-0.815,-0.165,
2954,-0.805,-0.15,
2955,-0.8,-0.15,
2956,-0.79,-0.14,
2957,-0.79,-0.14,
2958,-0.795,-0.15,
2959,-0.795,-0.15,
2960,-0.815,-0.17,
2961,-0.835,-0.16,
2962,-0.845,-0.165,
2963,-0.845,-0.16,
2964,-0.84,-0.165,
2965,-0.845,-0.155,
2966,-0.82,-0.135,
2967,-0.83,-0.145,
2968,-0.815,-0.135,
2969,-0.81,-0.125,
2970,-0.825,-0.135,
2971,-0.825,-0.135,
2972,-0.825,-0.13,
2973,-0.845,-0.145,
2974,-0.855,-0.14,
2975,-0.86,-0.14,
2976,-0.875,-0.14,
2977,-0.875,-0.12,
2978,-0.865,-0.125,
2979,-0.865,-0.12,
2980,-0.87,-0.1,
2981,-0.87,-0.09,
2982,-0.87,-0.1,
2983,-0.89,-0.1,
2984,-0.89,-0.1,
2985,-0.89,-0.1,
2986,-0.915,-0.115,
2987,-0.915,-0.1,
2988,-0.915,-0.09,
2989,-0.915,-0.085,
2990,-0.925,-0.07,
2991,-0.905,-0.05,
2992,-0.91,-0.045,
2993,-0.905,-0.04,
2994,-0.905,-0.04,
2995,-0.91,-0.04,
2996,-0.93,-0.04,
2997,-0.91,-0.035,
2998,-0.91,-0.04,
2999,-0.915,-0.045,
3000,-0.91,-0.03,
3001,-0.9,-0.01,
3002,-0.88,-0.005,
3003,-0.865,-0.01,
3004,-0.85,0.0,
3005,-0.83,0.015,
3006,-0.825,0.0,
3007,-0.805,-0.005,
3008,-0.8,-0.01,
3009,-0.8,-0.015,
3010,-0.79,-0.03,
3011,-0.785,-0.03,
3012,-0.77,-0.025,
3013,-0.76,-0.035,
3014,-0.735,-0.03,
3015,-0.72,-0.02,
3016,-0.715,-0.02,
3017,-0.7,-0.025,
3018,-0.69,-0.04,
3019,-0.685,-0.055,
3020,-0.66,-0.065,
3021,-0.665,-0.08,
3022,-0.67,-0.08,
3023,-0.665,-0.1,
3024,-0.66,-0.085,
3025,-0.665,-0.09,
3026,-0.655,-0.085,
3027,-0.645,-0.09,
3028,-0.63,-0.1,
3029,-0.63,-0.085,
3030,-0.62,-0.1,
3031,-0.63,-0.11,
3032,-0.615,-0.13,
3033,-0.625,-0.135,
3034,-0.64,-0.14,
3035,-0.64,-0.145,
3036,-0.65,-0.135,
3037,-0.65,-0.14,
3038,-0.665,-0.14,
3039,-0.65,-0.125,
3040,-0.635,-0.135,
3041,-0.645,-0.13,
3042,-0.635,-0.14,
3043,-0.64,-0.145,
3044,-0.64,-0.15,
3045,-0.645,-0.16,
3046,-0.655,-0.17,
3047,-0.665,-0.18,
3048,-0.67,-0.175,
3049,-0.655,-0.165,
3050,-0.655,-0.165,
3051,-0.66,-0.16,
3052,-0.645,-0.145,
3053,-0.645,-0.145,
3054,-0.655,-0.16,
3055,-0.66,-0.165,
3056,-0.665,-0.165,
3057,-0.675,-0.17,
3058,-0.685,-0.185,
3059,-0.69,-0.19,
3060,-0.685,-0.185,
3061,-0.695,-0.17,
3062,-0.68,-0.17,
3063,-0.68,-0.165,
3064,-0.685,-0.165,
3065,-0.675,-0.165,
3066,-0.675,-0.165,
3067,-0.67,-0.165,
3068,-0.68,-0.185,
3069,-0.685,-0.185,
3070,-0.7,-0.19,
3071,-0.695,-0.185,
3072,-0.705,-0.185,
3073,-0.715,-0.175,
3074,-0.705,-0.18,
3075,-0.71,-0.18,
3076,-0.69,-0.175,
3077,-0.69,-0.165,
3078,-0.685,-0.175,
3079,-0.69,-0.17,
3080,-0.685,-0.185,
3081,-0.695,-0.19,
3082,-0.7,-0.19,
3083,-0.7,-0.19,
3084,-0.69,-0.195,
3085,-0.685,-0.185,
3086,-0.68,-0.175,
3087,-0.67,-0.185,
3088,-0.685,-0.165,
3089,-0.66,-0.165,
3090,-0.655,-0.18,
3091,-0.67,-0.185,
3092,-0.67,-0.185,
3093,-0.67,-0.195,
3094,-0.665,-0.21,
3095,-0.67,-0.205,
3096,-0.67,-0.195,
3097,-0.66,-0.195,
3098,-0.645,-0.185,
3099,-0.635,-0.19,
3100,-0.62,-0.175,
3101,-0.62,-0.175,
3102,-0.61,-0.18,
3103,-0.615,-0.19,
3104,-0.6,-0.2,
3105,-0.6,-0.21,
3106,-0.6,-0.205,
3107,-0.61,-0.21,
3108,-0.6,-0.195,
3109,-0.58,-0.19,
3110,-0.57,-0.185,
3111,-0.565,-0.175,
3112,-0.545,-0.18,
3113,-0.525,-0.175,
3114,-0.515,-0.18,
3115,-0.51,-0.19,
3116,-0.5,-0.205,
3117,-0.495,-0.205,
3118,-0.485,-0.23,
3119,-0.495,-0.24,
3120,-0.49,-0.25,
3121,-0.495,-0.25,
3122,-0.495,-0.26,
3123,-0.495,-0.265,
3124,-0.49,-0.27,
3125,-0.485,-0.275,
3126,-0.495,-0.285,
3127,-0.5,-0.29,
3128,-0.52,-0.28,
3129,-0.535,-0.29,
3130,-0.565,-0.29,
3131,-0.58,-0.275,
3132,-0.6,-0.26,
3133,-0.61,-0.255,
3134,-0.62,-0.24,
3135,-0.615,-0.23,
3136,-0.625,-0.23,
3137,-0.635,-0.21,
3138,-0.655,-0.235,
3139,-0.66,-0.23,
3140,-0.665,-0.23,
3141,-0.67,-0.235,
3142,-0.685,-0.255,
3143,-0.675,-0.25,
3144,-0.68,-0.245,
3145,-0.68,-0.24,
3146,-0.67,-0.24,
3147,-0.655,-0.24,
3148,-0.655,-0.23,
3149,-0.64,-0.225,
3150,-0.64,-0.235,
3151,-0.645,-0.245,
3152,-0.645,-0.245,
3153,-0.635,-0.25,
3154,-0.63,-0.27,
3155,-0.635,-0.265,
3156,-0.625,-0.265,
3157,-0.615,-0.26,
3158,-0.585,-0.26,
3159,-0.56,-0.25,
3160,-0.53,-0.26,
3161,-0.49,-0.255,
3162,-0.44,-0.26,
3163,-0.355,-0.265,
3164,-0.275,-0.255,
3165,-0.155,-0.265,
3166,-0.03,-0.27,
3167,0.105,-0.285,
3168,0.3,-0.305,
3169,0.515,-0.34,
3170,0.73,-0.395,
3171,0.915,-0.48,
3172,1.07,-0.59,
3173,1.175,-0.695,
3174,1.29,-0.805,
3175,1.375,-0.925,N
3176,1.445,-1.03,
3177,1.42,-1.135,
3178,1.27,-1.235,
3179,0.965,-1.325,
3180,0.58,-1.39,
3181,0.135,-1.42,
3182,-0.265,-1.415,
3183,-0.565,-1.35,
3184,-0.75,-1.255,
3185,-0.83,-1.15,
3186,-0.835,-1.04,
3187,-0.81,-0.955,
3188,-0.775,-0.875,
3189,-0.745,-0.8,
3190,-0.735,-0.755,
3191,-0.735,-0.685,
3192,-0.735,-0.625,
3193,-0.72,-0.565,
3194,-0.71,-0.49,
3195,-0.71,-0.42,
3196,-0.705,-0.365,
3197,-0.695,-0.325,
3198,-0.71,-0.3,
3199,-0.72,-0.295,
3200,-0.72,-0.29,
3201,-0.745,-0.31,
3202,-0.745,-0.305,
3203,-0.765,-0.3,
3204,-0.745,-0.3,
3205,-0.75,-0.275,
3206,-0.76,-0.27,
3207,-0.75,-0.26,
3208,-0.735,-0.26,
3209,-0.73,-0.245,
3210,-0.735,-0.25,
3211,-0.73,-0.265,
3212,-0.74,-0.26,
3213,-0.755,-0.265,
3214,-0.75,-0.28,
3215,-0.755,-0.275,
3216,-0.765,-0.27,
3217,-0.765,-0.26,
3218,-0.76,-0.25,
3219,-0.765,-0.24,
3220,-0.76,-0.235,
3221,-0.75,-0.245,
3222,-0.76,-0.235,
3223,-0.765,-0.25,
3224,-0.775,-0.245,
3225,-0.795,-0.255,
3226,-0.79,-0.26,
3227,-0.8,-0.26,
3228,-0.805,-0.245,
3229,-0.795,-0.255,
3230,-0.8,-0.24,
3231,-0.8,-0.23,
3232,-0.8,-0.21,
3233,-0.795,-0.22,
3234,-0.795,-0.22,
3235,-0.8,-0.235,
3236,-0.805,-0.225,
3237,-0.82,-0.235,
3238,-0.825,-0.25,
3239,-0.855,-0.25,
3240,-0.86,-0.24,
3241,-0.845,-0.23,
3242,-0.84,-0.225,
3243,-0.84,-0.225,
3244,-0.84,-0.2,
3245,-0.835,-0.19,
3246,-0.835,-0.2,
3247,-0.835,-0.205,
3248,-0.855,-0.205,
3249,-0.86,-0.2,
3250,-0.86,-0.2,
3251,-0.875,-0.205,
3252,-0.87,-0.195,
3253,-0.89,-0.18,
3254,-0.875,-0.155,
3255,-0.875,-0.155,
3256,-0.865,-0.15,
3257,-0.865,-0.145,
3258,-0.865,-0.16,
3259,-0.87,-0.14,
3260,-0.88,-0.145,
3261,-0.875,-0.16,
3262,-0.885,-0.15,
3263,-0.89,-0.15,
3264,-0.885,-0.15,
3265,-0.875,-0.145,
3266,-0.865,-0.135,
3267,-0.865,-0.13,
3268,-0.845,-0.125,
3269,-0.825,-0.115,
3270,-0.815,-0.12,
3271,-0.805,-0.13,
3272,-0.805,-0.13,
3273,-0.79,-0.13,
3274,-0.79,-0.145,
3275,-0.775,-0.155,
3276,-0.77,-0.135,
3277,-0.755,-0.14,
3278,-0.725,-0.14,
3279,-0.705,-0.135,
3280,-0.685,-0.12,
3281,-0.665,-0.135,
3282,-0.645,-0.16,
3283,-0.635,-0.16,
3284,-0.63,-0.175,
3285,-0.625,-0.185,
3286,-0.62,-0.2,
3287,-0.605,-0.215,
3288,-0.6,-0.215,
3289,-0.59,-0.22,
3290,-0.575,-0.225,
3291,-0.58,-0.22,
3292,-0.56,-0.225,
3293,-0.555,-0.225,
3294,-0.55,-0.235,
3295,-0.555,-0.25,
3296,-0.56,-0.275,
3297,-0.565,-0.275,
3298,-0.57,-0.29,
3299,-0.575,-0.29,
3300,-0.565,-0.285,
3301,-0.57,-0.29,
3302,-0.565,-0.28,
3303,-0.56,-0.28,
3304,-0.55,-0.275,
3305,-0.55,-0.285,
3306,-0.55,-0.3,
3307,-0.555,-0.295,
3308,-0.565,-0.305,
3309,-0.57,-0.31,
3310,-0.58,-0.325,
3311,-0.58,-0.33,
3312,-0.595,-0.33,
3313,-0.6,-0.33,
3314,-0.59,-0.315,
3315,-0.59,-0.315,
3316,-0.565,-0.315,
3317,-0.565,-0.295,
3318,-0.56,-0.315,
3319,-0.57,-0.315,
3320,-0.575,-0.325,
3321,-0.58,-0.32,
3322,-0.6,-0.335,
3323,-0.595,-0.345,
3324,-0.605,-0.33,
3325,-0.61,-0.33,
3326,-0.595,-0.32,
3327,-0.605,-0.32,
3328,-0.59,-0.31,
3329,-0.58,-0.305,
3330,-0.595,-0.31,
3331,-0.615,-0.32,
3332,-0.6,-0.325,
3333,-0.61,-0.335,
3334,-0.625,-0.34,
3335,-0.615,-0.34,
3336,-0.625,-0.33,
3337,-0.635,-0.315,
3338,-0.62,-0.315,
3339,-0.615,-0.315,
3340,-0.595,-0.3,
3341,-0.6,-0.295,
3342,-0.595,-0.31,
3343,-0.595,-0.32,
3344,-0.595,-0.32,
3345,-0.6,-0.33,
3346,-0.61,-0.335,
3347,-0.62,-0.345,
3348,-0.62,-0.335,
3349,-0.615,-0.335,
3350,-0.605,-0.32,
3351,-0.605,-0.31,
3352,-0.595,-0.305,
3353,-0.585,-0.31,
3354,-0.585,-0.315,
3355,-0.575,-0.31,
3356,-0.575,-0.33,
3357,-0.59,-0.34,
3358,-0.59,-0.34,
3359,-0.595,-0.335,
3360,-0.605,-0.345,
3361,-0.6,-0.335,
3362,-0.575,-0.33,
3363,-0.565,-0.325,
3364,-0.555,-0.325,
3365,-0.54,-0.315,
3366,-0.535,-0.32,
3367,-0.545,-0.325,
3368,-0.545,-0.335,
3369,-0.525,-0.335,
3370,-0.525,-0.325,
3371,-0.525,-0.34,
3372,-0.52,-0.335,
3373,-0.51,-0.32,
3374,-0.515,-0.315,
3375,-0.5,-0.305,
3376,-0.49,-0.305,
3377,-0.475,-0.305,
3378,-0.465,-0.31,
3379,-0.46,-0.3,
3380,-0.45,-0.315,
3381,-0.45,-0.32,
3382,-0.435,-0.33,
3383,-0.43,-0.335,
3384,-0.425,-0.345,
3385,-0.42,-0.345,
3386,-0.41,-0.34,
3387,-0.405,-0.355,
3388,-0.395,-0.355,
3389,-0.39,-0.365,
3390,-0.395,-0.385,
3391,-0.405,-0.4,
3392,-0.42,-0.4,
3393,-0.43,-0.415,
3394,-0.435,-0.41,
3395,-0.455,-0.41,
3396,-0.48,-0.395,
3397,-0.49,-0.385,
3398,-0.5,-0.36,
3399,-0.495,-0.35,
3400,-0.515,-0.345,
3401,-0.53,-0.335,
3402,-0.53,-0.34,
3403,-0.53,-0.34,
3404,-0.545,-0.355,
3405,-0.57,-0.36,
3406,-0.585,-0.355,
3407,-0.605,-0.35,
3408,-0.62,-0.355,
3409,-0.615,-0.335,
3410,-0.625,-0.34,
3411,-0.605,-0.335,
3412,-0.595,-0.33,
3413,-0.59,-0.335,
3414,-0.585,-0.32,
3415,-0.59,-0.34,
3416,-0.6,-0.35,
3417,-0.6,-0.35,
3418,-0.615,-0.35,
3419,-0.61,-0.355,
3420,-0.605,-0.345,
3421,-0.605,-0.36,
3422,-0.59,-0.35,
3423,-0.595,-0.35,
3424,-0.57,-0.34,
3425,-0.555,-0.335,
3426,-0.55,-0.345,
3427,-0.55,-0.345,
3428,-0.56,-0.36,
3429,-0.55,-0.36,
3430,-0.53,-0.365,
3431,-0.495,-0.38,
3432,-0.445,-0.375,
3433,-0.36,-0.37,
3434,-0.275,-0.365,
3435,-0.145,-0.365,
3436,0.005,-0.36,
3437,0.185,-0.37,
3438,0.4,-0.42,
3439,0.63,-0.47,
3440,0.84,-0.54,
3441,1.025,-0.655,
3442,1.165,-0.79,
3443,1.275,-0.895,
3444,1.37,-1.01,N
3445,1.47,-1.115,
3446,1.51,-1.215,
3447,1.445,-1.31,
3448,1.215,-1.405,
3449,0.875,-1.48,
3450,0.465,-1.54,
3451,0.04,-1.535,
3452,-0.305,-1.525,
3453,-0.565,-1.455,
3454,-0.715,-1.365,
3455,-0.775,-1.26,
3456,-0.785,-1.135,
3457,-0.75,-1.03,
3458,-0.725,-0.94,
3459,-0.72,-0.88,
3460,-0.71,-0.79,
3461,-0.675,-0.72,
3462,-0.67,-0.655,
3463,-0.67,-0.595,
3464,-0.67,-0.54,
3465,-0.68,-0.475,
3466,-0.705,-0.44,
3467,-0.705,-0.405,
3468,-0.72,-0.38,
3469,-0.72,-0.365,
3470,-0.725,-0.355,
3471,-0.7,-0.345,
3472,-0.705,-0.345,
3473,-0.69,-0.32,
3474,-0.695,-0.325,
3475,-0.715,-0.325,
3476,-0.725,-0.325,
3477,-0.705,-0.325,
3478,-0.72,-0.34,
3479,-0.735,-0.34,
3480,-0.735,-0.32,
3481,-0.75,-0.32,
3482,-0.73,-0.31,
3483,-0.73,-0.295,
3484,-0.72,-0.305,
3485,-0.715,-0.295,
3486,-0.725,-0.285,
3487,-0.73,-0.3,
3488,-0.735,-0.3,
3489,-0.74,-0.305,
3490,-0.75,-0.315,
3491,-0.755,-0.315,
3492,-0.77,-0.31,
3493,-0.78,-0.31,
3494,-0.78,-0.3,
3495,-0.765,-0.29,
3496,-0.76,-0.285,
3497,-0.755,-0.27,
3498,-0.75,-0.275,
3499,-0.76,-0.27,
3500,-0.76,-0.275,
3501,-0.785,-0.29,
3502,-0.785,-0.29,
3503,-0.79,-0.29,
3504,-0.8,-0.3,
3505,-0.815,-0.28,
3506,-0.82,-0.275,
3507,-0.82,-0.265,
3508,-0.805,-0.255,
3509,-0.805,-0.255,
3510,-0.815,-0.26,
3511,-0.825,-0.255,
3512,-0.825,-0.26,
3513,-0.845,-0.26,
3514,-0.85,-0.27,
3515,-0.85,-0.26,
3516,-0.865,-0.25,
3517,-0.865,-0.24,
3518,-0.88,-0.24,
3519,-0.865,-0.22,
3520,-0.87,-0.21,
3521,-0.865,-0.2,
3522,-0.855,-0.2,
3523,-0.87,-0.19,
3524,-0.88,-0.195,
3525,-0.875,-0.205,
3526,-0.89,-0.2,
3527,-0.89,-0.195,
3528,-0.9,-0.18,
3529,-0.89,-0.18,
3530,-0.88,-0.16,
3531,-0.875,-0.15,
3532,-0.87,-0.14,
3533,-0.86,-0.135,
3534,-0.85,-0.135,
3535,-0.855,-0.14,
3536,-0.835,-0.14,
3537,-0.84,-0.15,
3538,-0.835,-0.145,
3539,-0.825,-0.155,
3540,-0.82,-0.145,
3541,-0.805,-0.14,
3542,-0.79,-0.14,
3543,-0.76,-0.14,
3544,-0.75,-0.125,
3545,-0.725,-0.135,
3546,-0.695,-0.13,
3547,-0.68,-0.145,
3548,-0.68,-0.155,
3549,-0.68,-0.18,
3550,-0.665,-0.185,
3551,-0.665,-0.2,
3552,-0.665,-0.2,
3553,-0.655,-0.205,
3554,-0.64,-0.205,
3555,-0.62,-0.21,
3556,-0.61,-0.195,
3557,-0.6,-0.215,
3558,-0.595,-0.225,
3559,-0.58,-0.24,
3560,-0.58,-0.255,
3561,-0.6,-0.265,
3562,-0.595,-0.27,
3563,-0.595,-0.295,
3564,-0.59,-0.295,
3565,-0.59,-0.29,
3566,-0.585,-0.275,
3567,-0.58,-0.28,
3568,-0.57,-0.275,
3569,-0.57,-0.28,
3570,-0.57,-0.28,
3571,-0.575,-0.295,
3572,-0.565,-0.3,
3573,-0.575,-0.31,
3574,-0.58,-0.32,
3575,-0.6,-0.325,
3576,-0.62,-0.33,
3577,-0.6,-0.32,
3578,-0.605,-0.315,
3579,-0.61,-0.315,
3580,-0.595,-0.305,
3581,-0.595,-0.305,
3582,-0.585,-0.315,
3583,-0.595,-0.32,
3584,-0.605,-0.325,
3585,-0.625,-0.34,
3586,-0.62,-0.35,
3587,-0.62,-0.345,
3588,-0.63,-0.35,
3589,-0.63,-0.33,
3590,-0.63,-0.325,
3591,-0.63,-0.32,
3592,-0.635,-0.31,
3593,-0.615,-0.305,
3594,-0.62,-0.32,
3595,-0.61,-0.315,
3596,-0.625,-0.325,
3597,-0.63,-0.345,
3598,-0.64,-0.34,
3599,-0.64,-0.335,
3600,-0.645,-0.335,
3601,-0.655,-0.32,
3602,-0.645,-0.315,
3603,-0.635,-0.315,
3604,-0.635,-0.305,
3605,-0.635,-0.3,
3606,-0.63,-0.3,
3607,-0.635,-0.31,
3608,-0.64,-0.315,
3609,-0.65,-0.32,
3610,-0.65,-0.315,
3611,-0.66,-0.33,
3612,-0.65,-0.32,
3613,-0.64,-0.32,
3614,-0.65,-0.3,
3615,-0.635,-0.305,
3616,-0.635,-0.29,
3617,-0.625,-0.29,
3618,-0.62,-0.3,
3619,-0.62,-0.3,
3620,-0.635,-0.305,
3621,-0.615,-0.31,
3622,-0.62,-0.31,
3623,-0.625,-0.32,
3624,-0.615,-0.325,
3625,-0.61,-0.315,
3626,-0.615,-0.31,
3627,-0.605,-0.305,
3628,-0.6,-0.3,
3629,-0.58,-0.29,
3630,-0.575,-0.295,
3631,-0.57,-0.305,
3632,-0.57,-0.31,
3633,-0.565,-0.32,
3634,-0.575,-0.325,
3635,-0.575,-0.335,
3636,-0.565,-0.32,
3637,-0.56,-0.315,
3638,-0.545,-0.3,
3639,-0.545,-0.295,
3640,-0.53,-0.29,
3641,-0.52,-0.285,
3642,-0.515,-0.285,
3643,-0.51,-0.3,
3644,-0.5,-0.295,
3645,-0.5,-0.3,
3646,-0.505,-0.305,
3647,-0.49,-0.305,
3648,-0.495,-0.295,
3649,-0.485,-0.31,
3650,-0.455,-0.3,
3651,-0.44,-0.3,
3652,-0.43,-0.305,
3653,-0.42,-0.305,
3654,-0.415,-0.325,
3655,-0.41,-0.345,
3656,-0.42,-0.375,
3657,-0.425,-0.385,
3658,-0.45,-0.41,
3659,-0.46,-0.415,
3660,-0.475,-0.42,
3661,-0.49,-0.385,
3662,-0.505,-0.37,
3663,-0.51,-0.36,
3664,-0.52,-0.335,
3665,-0.53,-0.325,
3666,-0.54,-0.33,
3667,-0.55,-0.325,
3668,-0.56,-0.345,
3669,-0.585,-0.34,
3670,-0.605,-0.34,
3671,-0.62,-0.335,
3672,-0.635,-0.335,
3673,-0.63,-0.33,
3674,-0.63,-0.32,
3675,-0.625,-0.31,
3676,-0.615,-0.305,
3677,-0.605,-0.3,
3678,-0.6,-0.315,
3679,-0.61,-0.305,
3680,-0.605,-0.32,
3681,-0.62,-0.33,
3682,-0.62,-0.34,
3683,-0.62,-0.33,
3684,-0.62,-0.32,
3685,-0.62,-0.33,
3686,-0.62,-0.33,
3687,-0.6,-0.315,
3688,-0.59,-0.31,
3689,-0.58,-0.31,
3690,-0.58,-0.315,
3691,-0.58,-0.315,
3692,-0.57,-0.32,
3693,-0.555,-0.33,
3694,-0.55,-0.34,
3695,-0.53,-0.34,
3696,-0.505,-0.35,
3697,-0.445,-0.345,
3698,-0.37,-0.335,
3699,-0.27,-0.33,
3700,-0.16,-0.325,
3701,-0.025,-0.32,
3702,0.125,-0.34,
3703,0.29,-0.365,
3704,0.48,-0.405,
3705,0.675,-0.465,
3706,0.86,-0.54,
3707,1.01,-0.635,
3708,1.125,-0.735,
3709,1.22,-0.85,
3710,1.32,-0.965,N
3711,1.415,-1.065,
3712,1.46,-1.17,
3713,1.415,-1.285,
3714,1.24,-1.4,
3715,0.925,-1.5,
3716,0.515,-1.565,
3717,0.085,-1.585,
3718,-0.285,-1.56,
3719,-0.575,-1.49,
3720,-0.735,-1.375,
3721,-0.81,-1.265,
3722,-0.81,-1.135,
3723,-0.775,-1.015,
3724,-0.745,-0.915,
3725,-0.72,-0.835,
3726,-0.705,-0.765,
3727,-0.695,-0.69,
3728,-0.69,-0.63,
3729,-0.69,-0.56,
3730,-0.695,-0.495,
3731,-0.72,-0.43,
3732,-0.725,-0.38,
3733,-0.715,-0.355,
3734,-0.73,-0.335,
3735,-0.725,-0.335,
3736,-0.72,-0.32,
3737,-0.72,-0.315,
3738,-0.715,-0.33,
3739,-0.73,-0.3,
3740,-0.745,-0.31,
3741,-0.74,-0.31,
3742,-0.74,-0.3,
3743,-0.75,-0.31,
3744,-0.755,-0.305,
3745,-0.755,-0.3,
3746,-0.755,-0.295,
3747,-0.74,-0.285,
3748,-0.745,-0.275,
3749,-0.735,-0.27,
3750,-0.735,-0.28,
3751,-0.745,-0.265,
3752,-0.75,-0.29,
3753,-0.755,-0.285,
3754,-0.755,-0.285,
3755,-0.765,-0.3,
3756,-0.775,-0.285,
3757,-0.78,-0.285,
3758,-0.775,-0.275,
3759,-0.76,-0.255,
3760,-0.765,-0.265,
3761,-0.76,-0.25,
3762,-0.755,-0.275,
3763,-0.765,-0.26,
3764,-0.77,-0.265,
3765,-0.775,-0.26,
3766,-0.77,-0.285,
3767,-0.8,-0.275,
3768,-0.805,-0.27,
3769,-0.815,-0.265,
3770,-0.805,-0.25,
3771,-0.81,-0.24,
3772,-0.805,-0.25,
3773,-0.82,-0.24,
3774,-0.825,-0.25,
3775,-0.82,-0.235,
3776,-0.825,-0.245,
3777,-0.84,-0.245,
3778,-0.845,-0.245,
3779,-0.85,-0.25,
3780,-0.87,-0.24,
3781,-0.87,-0.235,
3782,-0.87,-0.23,
3783,-0.865,-0.205,
3784,-0.87,-0.21,
3785,-0.87,-0.2,
3786,-0.875,-0.185,
3787,-0.88,-0.19,
3788,-0.885,-0.185,
3789,-0.885,-0.185,
3790,-0.9,-0.195,
3791,-0.9,-0.19,
3792,-0.91,-0.185,
3793,-0.91,-0.165,
3794,-0.92,-0.15,
3795,-0.9,-0.14,
3796,-0.9,-0.145,
3797,-0.89,-0.11,
3798,-0.88,-0.125,
3799,-0.88,-0.115,
3800,-0.88,-0.125,
3801,-0.86,-0.12,
3802,-0.855,-0.13,
3803,-0.85,-0.13,
3804,-0.84,-0.125,
3805,-0.82,-0.13,
3806,-0.805,-0.115,
3807,-0.77,-0.115,
3808,-0.755,-0.1,
3809,-0.735,-0.12,
3810,-0.71,-0.135,
3811,-0.7,-0.13,
3812,-0.695,-0.135,
3813,-0.675,-0.17,
3814,-0.66,-0.18,
3815,-0.665,-0.18,
3816,-0.65,-0.18,
3817,-0.635,-0.185,
3818,-0.635,-0.195,
3819,-0.635,-0.195,
3820,-0.615,-0.21,
3821,-0.605,-0.2,
3822,-0.6,-0.21,
3823,-0.605,-0.23,
3824,-0.595,-0.235,
3825,-0.6,-0.245,
3826,-0.6,-0.265,
3827,-0.615,-0.26,
3828,-0.595,-0.275,
3829,-0.62,-0.275,
3830,-0.615,-0.255,
3831,-0.605,-0.255,
3832,-0.59,-0.265,
3833,-0.59,-0.26,
3834,-0.585,-0.265,
3835,-0.595,-0.28,
3836,-0.58,-0.285,
3837,-0.595,-0.295,
3838,-0.59,-0.3,
3839,-0.6,-0.305,
3840,-0.61,-0.29,
3841,-0.6,-0.295,
3842,-0.6,-0.295,
3843,-0.605,-0.28,
3844,-0.59,-0.275,
3845,-0.595,-0.28,
3846,-0.585,-0.285,
3847,-0.59,-0.29,
3848,-0.595,-0.295,
3849,-0.61,-0.305,
3850,-0.615,-0.325,
3851,-0.635,-0.32,
3852,-0.645,-0.3,
3853,-0.64,-0.31,
3854,-0.625,-0.3,
3855,-0.625,-0.305,
3856,-0.61,-0.295,
3857,-0.615,-0.29,
3858,-0.62,-0.295,
3859,-0.62,-0.285,
3860,-0.62,-0.29,
3861,-0.625,-0.3,
3862,-0.64,-0.305,
3863,-0.655,-0.31,
3864,-0.655,-0.315,
3865,-0.65,-0.3,
3866,-0.645,-0.3,
3867,-0.64,-0.29,
3868,-0.655,-0.275,
3869,-0.63,-0.28,
3870,-0.635,-0.27,
3871,-0.645,-0.28,
3872,-0.645,-0.29,
3873,-0.645,-0.285,
3874,-0.65,-0.305,
3875,-0.645,-0.3,
3876,-0.65,-0.295,
3877,-0.65,-0.295,
3878,-0.64,-0.285,
3879,-0.625,-0.27,
3880,-0.62,-0.28,
3881,-0.615,-0.27,
3882,-0.61,-0.275,
3883,-0.605,-0.285,
3884,-0.615,-0.285,
3885,-0.61,-0.29,
3886,-0.61,-0.3,
3887,-0.61,-0.305,
3888,-0.61,-0.295,
3889,-0.6,-0.295,
3890,-0.605,-0.285,
3891,-0.59,-0.285,
3892,-0.575,-0.265,
3893,-0.555,-0.265,
3894,-0.535,-0.27,
3895,-0.555,-0.27,
3896,-0.54,-0.275,
3897,-0.54,-0.285,
3898,-0.55,-0.285,
3899,-0.55,-0.29,
3900,-0.535,-0.28,
3901,-0.53,-0.265,
3902,-0.54,-0.26,
3903,-0.515,-0.26,
3904,-0.515,-0.23,
3905,-0.485,-0.235,
3906,-0.48,-0.245,
3907,-0.455,-0.25,
3908,-0.445,-0.255,
3909,-0.445,-0.275,
3910,-0.45,-0.265,
3911,-0.44,-0.29,
3912,-0.43,-0.3,
3913,-0.43,-0.305,
3914,-0.425,-0.305,
3915,-0.43,-0.32,
3916,-0.43,-0.315,
3917,-0.435,-0.325,
3918,-0.43,-0.345,
3919,-0.445,-0.355,
3920,-0.45,-0.355,
3921,-0.465,-0.345,
3922,-0.48,-0.355,
3923,-0.49,-0.35,
3924,-0.525,-0.34,
3925,-0.53,-0.33,
3926,-0.555,-0.315,
3927,-0.545,-0.3,
3928,-0.55,-0.295,
3929,-0.555,-0.275,
3930,-0.565,-0.29,
3931,-0.585,-0.29,
3932,-0.59,-0.29,
3933,-0.63,-0.295,
3934,-0.625,-0.3,
3935,-0.635,-0.31,
3936,-0.65,-0.295,
3937,-0.645,-0.28,
3938,-0.64,-0.295,
3939,-0.62,-0.285,
3940,-0.61,-0.28,
3941,-0.6,-0.28,
3942,-0.6,-0.29,
3943,-0.595,-0.29,
3944,-0.6,-0.295,
3945,-0.615,-0.305,
3946,-0.605,-0.31,
3947,-0.61,-0.32,
3948,-0.595,-0.31,
3949,-0.58,-0.31,
3950,-0.57,-0.305,
3951,-0.555,-0.305,
3952,-0.54,-0.3,
3953,-0.505,-0.3,
3954,-0.465,-0.295,
3955,-0.415,-0.3,
3956,-0.335,-0.315,
3957,-0.245,-0.325,
3958,-0.12,-0.335,
3959,0.02,-0.35,
3960,0.185,-0.35,
3961,0.385,-0.375,
3962,0.59,-0.41,
3963,0.795,-0.47,
3964,0.975,-0.555,
3965,1.115,-0.645,
3966,1.23,-0.78,
3967,1.31,-0.895,N
3968,1.38,-1.01,
3969,1.4,-1.13,
3970,1.345,-1.26,
3971,1.155,-1.37,
3972,0.825,-1.46,
3973,0.42,-1.52,
3974,0.005,-1.54,
3975,-0.36,-1.5,
3976,-0.62,-1.395,
3977,-0.765,-1.28,
3978,-0.8,-1.15,
3979,-0.79,-1.04,
3980,-0.755,-0.945,
3981,-0.73,-0.875,
3982,-0.715,-0.815,
3983,-0.71,-0.77,
3984,-0.71,-0.705,
3985,-0.715,-0.65,
3986,-0.71,-0.57,
3987,-0.69,-0.51,
3988,-0.68,-0.435,
3989,-0.68,-0.37,
3990,-0.675,-0.345,
3991,-0.685,-0.32,
3992,-0.695,-0.305,
3993,-0.7,-0.305,
3994,-0.71,-0.31,
3995,-0.72,-0.315,
3996,-0.72,-0.315,
3997,-0.72,-0.3,
3998,-0.715,-0.275,
3999,-0.725,-0.27,
4000,-0.71,-0.255,
4001,-0.71,-0.245,
4002,-0.705,-0.245,
4003,-0.72,-0.245,
4004,-0.725,-0.26,
4005,-0.735,-0.26,
4006,-0.745,-0.27,
4007,-0.75,-0.27,
4008,-0.765,-0.255,
4009,-0.77,-0.255,
4010,-0.765,-0.25,
4011,-0.76,-0.25,
4012,-0.76,-0.25,
4013,-0.745,-0.235,
4014,-0.745,-0.24,
4015,-0.75,-0.24,
4016,-0.76,-0.235,
4017,-0.765,-0.245,
4018,-0.77,-0.25,
4019,-0.78,-0.26,
4020,-0.79,-0.25,
4021,-0.785,-0.24,
4022,-0.78,-0.24,
4023,-0.78,-0.23,
4024,-0.775,-0.225,
4025,-0.77,-0.2,
4026,-0.785,-0.22,
4027,-0.79,-0.22,
4028,-0.79,-0.22,
4029,-0.8,-0.23,
4030,-0.815,-0.22,
4031,-0.835,-0.235,
4032,-0.825,-0.225,
4033,-0.83,-0.225,
4034,-0.83,-0.205,
4035,-0.83,-0.2,
4036,-0.835,-0.19,
4037,-0.825,-0.19,
4038,-0.83,-0.175,
4039,-0.82,-0.18,
4040,-0.835,-0.19,
4041,-0.85,-0.185,
4042,-0.855,-0.19,
4043,-0.875,-0.18,
4044,-0.88,-0.185,
4045,-0.885,-0.185,
4046,-0.885,-0.16,
4047,-0.88,-0.15,
4048,-0.88,-0.135,
4049,-0.875,-0.125,
4050,-0.87,-0.115,
4051,-0.87,-0.125,
4052,-0.875,-0.13,
4053,-0.89,-0.12,
4054,-0.89,-0.125,
4055,-0.9,-0.12,
4056,-0.9,-0.11,
4057,-0.89,-0.1,
4058,-0.875,-0.085,
4059,-0.865,-0.075,
4060,-0.855,-0.07,
4061,-0.84,-0.065,
4062,-0.815,-0.06,
4063,-0.825,-0.065,
4064,-0.81,-0.075,
4065,-0.81,-0.08,
4066,-0.805,-0.07,
4067,-0.795,-0.085,
4068,-0.775,-0.08,
4069,-0.755,-0.07,
4070,-0.74,-0.08,
4071,-0.725,-0.07,
4072,-0.7,-0.065,
4073,-0.68,-0.06,
4074,-0.66,-0.07,
4075,-0.65,-0.075,
4076,-0.64,-0.08,
4077,-0.64,-0.1,
4078,-0.62,-0.125,
4079,-0.615,-0.12,
4080,-0.615,-0.13,
4081,-0.605,-0.135,
4082,-0.605,-0.13,
4083,-0.59,-0.145,
4084,-0.575,-0.13,
4085,-0.57,-0.14,
4086,-0.56,-0.15,
4087,-0.555,-0.155,
4088,-0.555,-0.165,
4089,-0.56,-0.185,
4090,-0.565,-0.185,
4091,-0.565,-0.2,
4092,-0.585,-0.2,
4093,-0.58,-0.205,
4094,-0.575,-0.19,
4095,-0.57,-0.2,
4096,-0.57,-0.19,
4097,-0.565,-0.185,
4098,-0.55,-0.19,
4099,-0.565,-0.205,
4100,-0.56,-0.21,
4101,-0.565,-0.205,
4102,-0.575,-0.21,
4103,-0.59,-0.23,
4104,-0.605,-0.23,
4105,-0.6,-0.23,
4106,-0.595,-0.215,
4107,-0.585,-0.21,
4108,-0.585,-0.205,
4109,-0.575,-0.195,
4110,-0.58,-0.21,
4111,-0.575,-0.21,
4112,-0.585,-0.225,
4113,-0.575,-0.225,
4114,-0.6,-0.22,
4115,-0.605,-0.24,
4116,-0.615,-0.235,
4117,-0.605,-0.23,
4118,-0.6,-0.215,
4119,-0.605,-0.215,
4120,-0.6,-0.21,
4121,-0.595,-0.205,
4122,-0.6,-0.195,
4123,-0.605,-0.205,
4124,-0.615,-0.21,
4125,-0.61,-0.21,
4126,-0.61,-0.22,
4127,-0.615,-0.23,
4128,-0.63,-0.225,
4129,-0.625,-0.215,
4130,-0.635,-0.2,
4131,-0.625,-0.2,
4132,-0.615,-0.19,
4133,-0.61,-0.185,
4134,-0.6,-0.19,
4135,-0.59,-0.195,
4136,-0.6,-0.19,
4137,-0.605,-0.205,
4138,-0.605,-0.21,
4139,-0.615,-0.205,
4140,-0.625,-0.2,
4141,-0.635,-0.2,
4142,-0.63,-0.185,
4143,-0.61,-0.18,
4144,-0.61,-0.18,
4145,-0.605,-0.175,
4146,-0.595,-0.17,
4147,-0.59,-0.17,
4148,-0.605,-0.195,
4149,-0.595,-0.195,
4150,-0.595,-0.21,
4151,-0.605,-0.205,
4152,-0.59,-0.2,
4153,-0.59,-0.2,
4154,-0.58,-0.195,
4155,-0.575,-0.19,
4156,-0.565,-0.175,
4157,-0.545,-0.17,
4158,-0.54,-0.17,
4159,-0.535,-0.19,
4160,-0.525,-0.195,
4161,-0.53,-0.2,
4162,-0.53,-0.21,
4163,-0.53,-0.205,
4164,-0.52,-0.205,
4165,-0.52,-0.185,
4166,-0.515,-0.19,
4167,-0.5,-0.185,
4168,-0.51,-0.17,
4169,-0.485,-0.15,
4170,-0.485,-0.155,
4171,-0.46,-0.165,
4172,-0.44,-0.17,
4173,-0.44,-0.18,
4174,-0.43,-0.185,
4175,-0.435,-0.195,
4176,-0.415,-0.21,
4177,-0.405,-0.21,
4178,-0.41,-0.22,
4179,-0.405,-0.22,
4180,-0.405,-0.215,
4181,-0.395,-0.225,
4182,-0.405,-0.24,
4183,-0.415,-0.255,
4184,-0.435,-0.255,
4185,-0.45,-0.265,
4186,-0.45,-0.26,
4187,-0.485,-0.25,
4188,-0.5,-0.255,
4189,-0.51,-0.235,
4190,-0.52,-0.225,
4191,-0.52,-0.215,
4192,-0.525,-0.2,
4193,-0.52,-0.2,
4194,-0.525,-0.205,
4195,-0.56,-0.205,
4196,-0.555,-0.195,
4197,-0.57,-0.205,
4198,-0.585,-0.21,
4199,-0.61,-0.2,
4200,-0.605,-0.2,
4201,-0.605,-0.195,
4202,-0.6,-0.195,
4203,-0.585,-0.19,
4204,-0.59,-0.19,
4205,-0.58,-0.18,
4206,-0.575,-0.175,
4207,-0.575,-0.185,
4208,-0.58,-0.19,
4209,-0.585,-0.215,
4210,-0.585,-0.21,
4211,-0.59,-0.225,
4212,-0.605,-0.205,
4213,-0.595,-0.215,
4214,-0.585,-0.21,
4215,-0.585,-0.205,
4216,-0.585,-0.19,
4217,-0.565,-0.205,
4218,-0.55,-0.205,
4219,-0.545,-0.21,
4220,-0.525,-0.21,
4221,-0.535,-0.22,
4222,-0.525,-0.235,
4223,-0.5,-0.235,
4224,-0.485,-0.225,
4225,-0.45,-0.24,
4226,-0.375,-0.24,
4227,-0.29,-0.225,
4228,-0.2,-0.225,
4229,-0.085,-0.21,
4230,0.065,-0.22,
4231,0.225,-0.245,
4232,0.43,-0.29,
4233,0.64,-0.335,
4234,0.85,-0.41,
4235,1.015,-0.51,
4236,1.15,-0.605,
4237,1.26,-0.715,
4238,1.355,-0.82,N
4239,1.425,-0.94,
4240,1.405,-1.045,
4241,1.245,-1.15,
4242,0.905,-1.255,
4243,0.465,-1.305,
4244,0.0,-1.33,
4245,-0.42,-1.295,
4246,-0.695,-1.215,
4247,-0.85,-1.105,
4248,-0.895,-1.0,
4249,-0.865,-0.895,
4250,-0.805,-0.8,
4251,-0.745,-0.72,
4252,-0.715,-0.645,
4253,-0.685,-0.585,
4254,-0.66,-0.535,
4255,-0.66,-0.49,
4256,-0.675,-0.43,
4257,-0.665,-0.37,
4258,-0.69,-0.335,
4259,-0.72,-0.295,
4260,-0.725,-0.255,
4261,-0.725,-0.23,
4262,-0.715,-0.225,
4263,-0.715,-0.205,
4264,-0.705,-0.2,
4265,-0.71,-0.185,
4266,-0.71,-0.185,
4267,-0.7,-0.195,
4268,-0.71,-0.185,
4269,-0.71,-0.185,
4270,-0.715,-0.2,
4271,-0.73,-0.195,
4272,-0.725,-0.195,
4273,-0.735,-0.19,
4274,-0.73,-0.175,
4275,-0.735,-0.16,
4276,-0.73,-0.15,
4277,-0.73,-0.155,
4278,-0.725,-0.15,
4279,-0.73,-0.145,
4280,-0.73,-0.145,
4281,-0.73,-0.165,
4282,-0.745,-0.165,
4283,-0.755,-0.16,
4284,-0.765,-0.17,
4285,-0.76,-0.165,
4286,-0.77,-0.145,
4287,-0.76,-0.15,
4288,-0.765,-0.14,
4289,-0.76,-0.125,
4290,-0.755,-0.135,
4291,-0.76,-0.13,
4292,-0.755,-0.135,
4293,-0.765,-0.155,
4294,-0.78,-0.155,
4295,-0.785,-0.16,
4296,-0.785,-0.15,
4297,-0.785,-0.15,
4298,-0.79,-0.135,
4299,-0.79,-0.13,
4300,-0.8,-0.125,
4301,-0.785,-0.12,
4302,-0.795,-0.11,
4303,-0.805,-0.12,
4304,-0.81,-0.13,
4305,-0.815,-0.125,
4306,-0.83,-0.13,
4307,-0.84,-0.135,
4308,-0.84,-0.13,
4309,-0.835,-0.13,
4310,-0.85,-0.13,
4311,-0.835,-0.11,
4312,-0.84,-0.1,
4313,-0.84,-0.085,
4314,-0.84,-0.08,
4315,-0.845,-0.08,
4316,-0.845,-0.075,
4317,-0.86,-0.09,
4318,-0.865,-0.085,
4319,-0.885,-0.095,
4320,-0.89,-0.08,
4321,-0.895,-0.075,
4322,-0.89,-0.06,
4323,-0.89,-0.06,
4324,-0.89,-0.045,
4325,-0.885,-0.025,
4326,-0.875,-0.035,
4327,-0.88,-0.025,
4328,-0.88,-0.03,
4329,-0.895,-0.025,
4330,-0.885,-0.035,
4331,-0.895,-0.035,
4332,-0.885,-0.03,
4333,-0.895,-0.015,
4334,-0.875,-0.015,
4335,-0.865,-0.005,
4336,-0.855,0.01,
4337,-0.835,0.005,
4338,-0.82,0.005,
4339,-0.81,0.005,
4340,-0.795,-0.005,
4341,-0.795,0.005,
4342,-0.775,-0.01,
4343,-0.77,-0.01,
4344,-0.765,-0.02,
4345,-0.745,-0.015,
4346,-0.725,-0.015,
4347,-0.705,-0.005,
4348,-0.685,0.005,
4349,-0.655,0.0,
4350,-0.66,-0.01,
4351,-0.645,-0.025,
4352,-0.635,-0.04,
4353,-0.635,-0.05,
4354,-0.62,-0.065,
4355,-0.62,-0.075,
4356,-0.615,-0.075,
4357,-0.61,-0.075,
4358,-0.61,-0.08,
4359,-0.61,-0.08,
4360,-0.59,-0.075,
4361,-0.58,-0.08,
4362,-0.575,-0.09,
4363,-0.57,-0.1,
4364,-0.575,-0.115,
4365,-0.575,-0.12,
4366,-0.575,-0.125,
4367,-0.58,-0.135,
4368,-0.59,-0.135,
4369,-0.595,-0.14,
4370,-0.595,-0.14,
4371,-0.59,-0.13,
4372,-0.585,-0.13,
4373,-0.565,-0.13,
4374,-0.57,-0.135,
4375,-0.58,-0.14,
4376,-0.58,-0.15,
4377,-0.58,-0.16,
4378,-0.595,-0.165,
4379,-0.595,-0.175,
4380,-0.605,-0.175,
4381,-0.605,-0.175,
4382,-0.615,-0.165,
4383,-0.595,-0.165,
4384,-0.605,-0.16,
4385,-0.6,-0.15,
4386,-0.605,-0.155,
4387,-0.6,-0.17,
4388,-0.6,-0.17,
4389,-0.61,-0.18,
4390,-0.615,-0.18,
4391,-0.625,-0.185,
4392,-0.635,-0.19,
4393,-0.635,-0.18,
4394,-0.64,-0.175,
4395,-0.635,-0.16,
4396,-0.645,-0.17,
4397,-0.63,-0.15,
4398,-0.62,-0.16,
4399,-0.635,-0.165,
4400,-0.625,-0.18,
4401,-0.64,-0.17,
4402,-0.63,-0.185,
4403,-0.64,-0.185,
4404,-0.66,-0.185,
4405,-0.665,-0.185,
4406,-0.66,-0.18,
4407,-0.66,-0.17,
4408,-0.645,-0.16,
4409,-0.645,-0.16,
4410,-0.64,-0.165,
4411,-0.66,-0.165,
4412,-0.64,-0.165,
4413,-0.65,-0.17,
4414,-0.65,-0.19,
4415,-0.65,-0.185,
4416,-0.655,-0.185,
4417,-0.655,-0.185,
4418,-0.645,-0.18,
4419,-0.635,-0.19,
4420,-0.645,-0.16,
4421,-0.65,-0.15,
4422,-0.625,-0.165,
4423,-0.615,-0.175,
4424,-0.615,-0.19,
4425,-0.635,-0.19,
4426,-0.625,-0.2,
4427,-0.625,-0.19,
4428,-0.63,-0.195,
4429,-0.63,-0.19,
4430,-0.63,-0.19,
4431,-0.625,-0.175,
4432,-0.61,-0.18,
4433,-0.59,-0.175,
4434,-0.575,-0.175,
4435,-0.575,-0.18,
4436,-0.575,-0.19,
4437,-0.575,-0.195,
4438,-0.57,-0.205,
4439,-0.585,-0.2,
4440,-0.575,-0.2,
4441,-0.58,-0.195,
4442,-0.565,-0.19,
4443,-0.56,-0.19,
4444,-0.545,-0.165,
4445,-0.535,-0.165,
4446,-0.53,-0.16,
4447,-0.53,-0.17,
4448,-0.525,-0.17,
4449,-0.53,-0.175,
4450,-0.515,-0.185,
4451,-0.525,-0.18,
4452,-0.515,-0.18,
4453,-0.5,-0.195,
4454,-0.49,-0.185,
4455,-0.485,-0.195,
4456,-0.465,-0.19,
4457,-0.445,-0.2,
4458,-0.43,-0.215,
4459,-0.435,-0.24,
4460,-0.435,-0.245,
4461,-0.46,-0.28,
4462,-0.465,-0.29,
4463,-0.49,-0.285,
4464,-0.495,-0.285,
4465,-0.52,-0.285,
4466,-0.525,-0.255,
4467,-0.535,-0.25,
4468,-0.54,-0.23,
4469,-0.55,-0.22,
4470,-0.56,-0.22,
4471,-0.57,-0.22,
4472,-0.585,-0.22,
4473,-0.6,-0.225,
4474,-0.62,-0.23,
4475,-0.635,-0.24,
4476,-0.64,-0.24,
4477,-0.655,-0.235,
4478,-0.665,-0.23,
4479,-0.64,-0.22,
4480,-0.625,-0.21,
4481,-0.61,-0.195,
4482,-0.61,-0.195,
4483,-0.61,-0.21,
4484,-0.625,-0.215,
4485,-0.64,-0.225,
4486,-0.63,-0.23,
4487,-0.645,-0.23,
4488,-0.65,-0.245,
4489,-0.64,-0.245,
4490,-0.63,-0.235,
4491,-0.625,-0.225,
4492,-0.6,-0.225,
4493,-0.595,-0.215,
4494,-0.58,-0.22,
4495,-0.585,-0.24,
4496,-0.56,-0.23,
4497,-0.555,-0.245,
4498,-0.545,-0.26,
4499,-0.515,-0.255,
4500,-0.475,-0.26,
4501,-0.425,-0.25,
4502,-0.335,-0.25,
4503,-0.215,-0.25,
4504,-0.105,-0.24,
4505,0.035,-0.25,
4506,0.215,-0.25,
4507,0.405,-0.27,
4508,0.61,-0.325,
4509,0.805,-0.385,
4510,0.96,-0.475,
4511,1.08,-0.575,
4512,1.16,-0.68,
4513,1.235,-0.785,
4514,1.33,-0.885,N
4515,1.415,-0.96,
4516,1.42,-1.06,
4517,1.335,-1.165,
4518,1.08,-1.255,
4519,0.715,-1.33,
4520,0.29,-1.4,
4521,-0.12,-1.41,
4522,-0.455,-1.375,
4523,-0.695,-1.32,
4524,-0.81,-1.215,
4525,-0.84,-1.11,
4526,-0.83,-0.985,
4527,-0.795,-0.88,
4528,-0.765,-0.785,
4529,-0.745,-0.72,
4530,-0.73,-0.64,
4531,-0.72,-0.57,
4532,-0.71,-0.495,
4533,-0.705,-0.425,
4534,-0.715,-0.36,
4535,-0.72,-0.31,
4536,-0.74,-0.275,
4537,-0.745,-0.265,
4538,-0.745,-0.245,
4539,-0.735,-0.245,
4540,-0.735,-0.225,
4541,-0.73,-0.215,
4542,-0.725,-0.21,
4543,-0.73,-0.215,
4544,-0.735,-0.21,
4545,-0.755,-0.225,
4546,-0.75,-0.225,
4547,-0.755,-0.215,
4548,-0.765,-0.22,
4549,-0.78,-0.215,
4550,-0.785,-0.2,
4551,-0.78,-0.21,
4552,-0.77,-0.2,
4553,-0.755,-0.19,
4554,-0.76,-0.18,
4555,-0.755,-0.185,
4556,-0.765,-0.185,
4557,-0.765,-0.195,
4558,-0.765,-0.195,
4559,-0.77,-0.205,
4560,-0.785,-0.2,
4561,-0.785,-0.19,
4562,-0.8,-0.185,
4563,-0.8,-0.18,
4564,-0.8,-0.165,
4565,-0.79,-0.16,
4566,-0.79,-0.165,
4567,-0.8,-0.17,
4568,-0.79,-0.175,
4569,-0.805,-0.175,
4570,-0.815,-0.175,
4571,-0.825,-0.185,
4572,-0.825,-0.18,
4573,-0.83,-0.165,
4574,-0.845,-0.165,
4575,-0.84,-0.16,
4576,-0.84,-0.145,
4577,-0.825,-0.145,
4578,-0.835,-0.15,
4579,-0.85,-0.15,
4580,-0.85,-0.15,
4581,-0.865,-0.165,
4582,-0.875,-0.155,
4583,-0.87,-0.165,
4584,-0.875,-0.155,
4585,-0.89,-0.15,
4586,-0.885,-0.145,
4587,-0.89,-0.13,
4588,-0.89,-0.125,
4589,-0.89,-0.105,
4590,-0.895,-0.11,
4591,-0.9,-0.105,
4592,-0.905,-0.12,
4593,-0.9,-0.105,
4594,-0.905,-0.105,
4595,-0.91,-0.12,
4596,-0.91,-0.1,
4597,-0.91,-0.09,
4598,-0.92,-0.095,
4599,-0.91,-0.085,
4600,-0.905,-0.07,
4601,-0.91,-0.05,
4602,-0.9,-0.05,
4603,-0.9,-0.06,
4604,-0.9,-0.065,
4605,-0.9,-0.055,
4606,-0.89,-0.04,
4607,-0.89,-0.05,
4608,-0.885,-0.045,
4609,-0.87,-0.05,
4610,-0.865,-0.05,
4611,-0.85,-0.03,
4612,-0.825,-0.025,
4613,-0.81,-0.02,
4614,-0.79,-0.03,
4615,-0.77,-0.035,
4616,-0.765,-0.045,
4617,-0.74,-0.06,
4618,-0.745,-0.055,
4619,-0.745,-0.05,
4620,-0.725,-0.065,
4621,-0.715,-0.065,
4622,-0.695,-0.065,
4623,-0.67,-0.08,
4624,-0.665,-0.08,
4625,-0.645,-0.075,
4626,-0.64,-0.09,
4627,-0.625,-0.105,
4628,-0.625,-0.115,
4629,-0.62,-0.125,
4630,-0.625,-0.145,
4631,-0.64,-0.145,
4632,-0.63,-0.155,
4633,-0.62,-0.15,
4634,-0.615,-0.165,
4635,-0.62,-0.16,
4636,-0.61,-0.15,
4637,-0.595,-0.155,
4638,-0.6,-0.16,
4639,-0.6,-0.16,
4640,-0.595,-0.17,
4641,-0.605,-0.185,
4642,-0.605,-0.19,
4643,-0.61,-0.195,
4644,-0.62,-0.21,
4645,-0.62,-0.2,
4646,-0.615,-0.185,
4647,-0.61,-0.195,
4648,-0.61,-0.195,
4649,-0.605,-0.185,
4650,-0.605,-0.18,
4651,-0.605,-0.195,
4652,-0.61,-0.21,
4653,-0.62,-0.22,
4654,-0.635,-0.215,
4655,-0.64,-0.225,
4656,-0.64,-0.22,
4657,-0.645,-0.215,
4658,-0.635,-0.21,
4659,-0.635,-0.205,
4660,-0.63,-0.195,
4661,-0.625,-0.19,
4662,-0.62,-0.2,
4663,-0.63,-0.2,
4664,-0.64,-0.205,
4665,-0.64,-0.22,
4666,-0.65,-0.215,
4667,-0.66,-0.21,
4668,-0.68,-0.225,
4669,-0.665,-0.22,
4670,-0.67,-0.21,
4671,-0.66,-0.21,
4672,-0.665,-0.2,
4673,-0.655,-0.2,
4674,-0.655,-0.205,
4675,-0.655,-0.2,
4676,-0.655,-0.215,
4677,-0.675,-0.2,
4678,-0.68,-0.21,
4679,-0.68,-0.225,
4680,-0.69,-0.225,
4681,-0.69,-0.225,
4682,-0.685,-0.215,
4683,-0.67,-0.21,
4684,-0.65,-0.195,
4685,-0.655,-0.19,
4686,-0.645,-0.2,
4687,-0.645,-0.2,
4688,-0.64,-0.2,
4689,-0.65,-0.21,
4690,-0.66,-0.225,
4691,-0.665,-0.225,
4692,-0.68,-0.23,
4693,-0.68,-0.215,
4694,-0.675,-0.21,
4695,-0.655,-0.215,
4696,-0.66,-0.21,
4697,-0.645,-0.195,
4698,-0.635,-0.2,
4699,-0.635,-0.215,
4700,-0.625,-0.205,
4701,-0.625,-0.21,
4702,-0.625,-0.205,
4703,-0.62,-0.235,
4704,-0.62,-0.225,
4705,-0.61,-0.225,
4706,-0.605,-0.225,
4707,-0.59,-0.21,
4708,-0.57,-0.21,
4709,-0.57,-0.2,
4710,-0.565,-0.2,
4711,-0.56,-0.205,
4712,-0.565,-0.195,
4713,-0.55,-0.22,
4714,-0.545,-0.22,
4715,-0.555,-0.225,
4716,-0.55,-0.215,
4717,-0.55,-0.205,
4718,-0.525,-0.21,
4719,-0.505,-0.2,
4720,-0.49,-0.195,
4721,-0.47,-0.195,
4722,-0.455,-0.205,
4723,-0.445,-0.22,
4724,-0.445,-0.235,
4725,-0.445,-0.26,
4726,-0.45,-0.29,
4727,-0.465,-0.29,
4728,-0.485,-0.305,
4729,-0.485,-0.31,
4730,-0.495,-0.31,
4731,-0.495,-0.295,
4732,-0.51,-0.29,
4733,-0.525,-0.275,
4734,-0.53,-0.27,
4735,-0.54,-0.265,
4736,-0.555,-0.26,
4737,-0.575,-0.265,
4738,-0.605,-0.25,
4739,-0.61,-0.255,
4740,-0.625,-0.255,
4741,-0.64,-0.26,
4742,-0.65,-0.24,
4743,-0.66,-0.235,
4744,-0.66,-0.23,
4745,-0.65,-0.23,
4746,-0.655,-0.21,
4747,-0.65,-0.23,
4748,-0.64,-0.235,
4749,-0.635,-0.245,
4750,-0.65,-0.245,
4751,-0.66,-0.25,
4752,-0.66,-0.26,
4753,-0.65,-0.26,
4754,-0.655,-0.245,
4755,-0.65,-0.245,
4756,-0.63,-0.24,
4757,-0.625,-0.235,
4758,-0.61,-0.235,
4759,-0.605,-0.26,
4760,-0.61,-0.255,
4761,-0.595,-0.26,
4762,-0.595,-0.275,
4763,-0.585,-0.285,
4764,-0.555,-0.285,
4765,-0.515,-0.28,
4766,-0.46,-0.265,
4767,-0.375,-0.26,
4768,-0.27,-0.265,
4769,-0.145,-0.255,
4770,-0.015,-0.245,
4771,0.13,-0.26,
4772,0.315,-0.28,
4773,0.51,-0.32,
4774,0.7,-0.37,
4775,0.895,-0.455,
4776,1.05,-0.56,
4777,1.175,-0.66,
4778,1.28,-0.78,
4779,1.4,-0.885,N
4780,1.495,-1.015,
4781,1.48,-1.12,
4782,1.32,-1.225,
4783,0.98,-1.345,
4784,0.52,-1.405,
4785,0.02,-1.43,
4786,-0.39,-1.405,
4787,-0.68,-1.34,
4788,-0.84,-1.235,
4789,-0.89,-1.11,
4790,-0.88,-0.995,
4791,-0.825,-0.895,
4792,-0.775,-0.81,
4793,-0.74,-0.73,
4794,-0.72,-0.665,
4795,-0.71,-0.6,
4796,-0.705,-0.53,
4797,-0.705,-0.475,
4798,-0.71,-0.43,
4799,-0.735,-0.36,
4800,-0.74,-0.325,
4801,-0.745,-0.3,
4802,-0.73,-0.28,
4803,-0.745,-0.275,
4804,-0.735,-0.27,
4805,-0.73,-0.26,
4806,-0.735,-0.26,
4807,-0.725,-0.255,
4808,-0.73,-0.26,
4809,-0.735,-0.265,
4810,-0.75,-0.27,
4811,-0.765,-0.26,
4812,-0.755,-0.265,
4813,-0.75,-0.27,
4814,-0.76,-0.26,
4815,-0.765,-0.255,
4816,-0.76,-0.245,
4817,-0.75,-0.23,
4818,-0.745,-0.23,
4819,-0.745,-0.245,
4820,-0.75,-0.24,
4821,-0.75,-0.26,
4822,-0.775,-0.26,
4823,-0.77,-0.26,
4824,-0.785,-0.265,
4825,-0.785,-0.25,
4826,-0.79,-0.255,
4827,-0.79,-0.255,
4828,-0.78,-0.225,
4829,-0.78,-0.22,
4830,-0.785,-0.225,
4831,-0.785,-0.225,
4832,-0.795,-0.225,
4833,-0.795,-0.23,
4834,-0.795,-0.24,
4835,-0.81,-0.24,
4836,-0.815,-0.24,
4837,-0.82,-0.235,
4838,-0.815,-0.225,
4839,-0.825,-0.22,
4840,-0.825,-0.205,
4841,-0.835,-0.2,
4842,-0.81,-0.2,
4843,-0.83,-0.2,
4844,-0.815,-0.195,
4845,-0.845,-0.205,
4846,-0.85,-0.21,
4847,-0.86,-0.22,
4848,-0.87,-0.21,
4849,-0.865,-0.205,
4850,-0.88,-0.195,
4851,-0.87,-0.17,
4852,-0.87,-0.16,
4853,-0.865,-0.15,
4854,-0.86,-0.155,
4855,-0.86,-0.155,
4856,-0.86,-0.155,
4857,-0.865,-0.16,
4858,-0.885,-0.155,
4859,-0.88,-0.145,
4860,-0.875,-0.145,
4861,-0.88,-0.135,
4862,-0.875,-0.135,
4863,-0.86,-0.125,
4864,-0.855,-0.11,
4865,-0.84,-0.105,
4866,-0.815,-0.09,
4867,-0.81,-0.105,
4868,-0.79,-0.105,
4869,-0.78,-0.11,
4870,-0.785,-0.115,
4871,-0.78,-0.12,
4872,-0.77,-0.135,
4873,-0.76,-0.13,
4874,-0.745,-0.13,
4875,-0.735,-0.12,
4876,-0.715,-0.11,
4877,-0.69,-0.115,
4878,-0.655,-0.125,
4879,-0.645,-0.135,
4880,-0.625,-0.145,
4881,-0.615,-0.16,
4882,-0.62,-0.17,
4883,-0.63,-0.18,
4884,-0.615,-0.19,
4885,-0.615,-0.185,
4886,-0.605,-0.19,
4887,-0.59,-0.175,
4888,-0.58,-0.2,
4889,-0.575,-0.18,
4890,-0.56,-0.21,
4891,-0.56,-0.225,
4892,-0.545,-0.22,
4893,-0.565,-0.245,
4894,-0.565,-0.255,
4895,-0.585,-0.265,
4896,-0.58,-0.28,
4897,-0.575,-0.265,
4898,-0.585,-0.27,
4899,-0.59,-0.265,
4900,-0.575,-0.255,
4901,-0.56,-0.25,
4902,-0.555,-0.255,
4903,-0.56,-0.265,
4904,-0.57,-0.265,
4905,-0.575,-0.285,
4906,-0.58,-0.295,
4907,-0.59,-0.3,
4908,-0.59,-0.3,
4909,-0.605,-0.3,
4910,-0.605,-0.29,
4911,-0.595,-0.29,
4912,-0.58,-0.285,
4913,-0.585,-0.28,
4914,-0.585,-0.28,
4915,-0.585,-0.29,
4916,-0.58,-0.29,
4917,-0.59,-0.295,
4918,-0.6,-0.285,
4919,-0.615,-0.29,
4920,-0.625,-0.31,
4921,-0.61,-0.3,
4922,-0.615,-0.295,
4923,-0.61,-0.29,
4924,-0.605,-0.275,
4925,-0.6,-0.275,
4926,-0.59,-0.27,
4927,-0.59,-0.285,
4928,-0.59,-0.28,
4929,-0.6,-0.28,
4930,-0.615,-0.29,
4931,-0.615,-0.305,
4932,-0.63,-0.3,
4933,-0.63,-0.285,
4934,-0.625,-0.285,
4935,-0.61,-0.28,
4936,-0.61,-0.275,
4937,-0.6,-0.27,
4938,-0.6,-0.26,
4939,-0.605,-0.28,
4940,-0.6,-0.285,
4941,-0.6,-0.3,
4942,-0.605,-0.295,
4943,-0.61,-0.3,
4944,-0.61,-0.31,
4945,-0.62,-0.315,
4946,-0.62,-0.29,
4947,-0.605,-0.295,
4948,-0.605,-0.285,
4949,-0.585,-0.28,
4950,-0.585,-0.285,
4951,-0.59,-0.285,
4952,-0.585,-0.275,
4953,-0.585,-0.29,
4954,-0.59,-0.3,
4955,-0.595,-0.295,
4956,-0.58,-0.305,
4957,-0.575,-0.31,
4958,-0.585,-0.3,
4959,-0.57,-0.295,
4960,-0.555,-0.275,
4961,-0.55,-0.28,
4962,-0.54,-0.275,
4963,-0.545,-0.28,
4964,-0.52,-0.285,
4965,-0.52,-0.29,
4966,-0.52,-0.29,
4967,-0.52,-0.295,
4968,-0.515,-0.285,
4969,-0.52,-0.28,
4970,-0.505,-0.29,
4971,-0.505,-0.27,
4972,-0.49,-0.265,
4973,-0.47,-0.25,
4974,-0.46,-0.24,
4975,-0.435,-0.275,
4976,-0.425,-0.275,
4977,-0.42,-0.285,
4978,-0.41,-0.3,
4979,-0.41,-0.325,
4980,-0.41,-0.325,
4981,-0.415,-0.345,
4982,-0.425,-0.355,
4983,-0.42,-0.365,
4984,-0.435,-0.37,
4985,-0.445,-0.37,
4986,-0.455,-0.355,
4987,-0.45,-0.365,
4988,-0.465,-0.36,
4989,-0.485,-0.35,
4990,-0.5,-0.34,
4991,-0.525,-0.345,
4992,-0.525,-0.35,
4993,-0.535,-0.33,
4994,-0.55,-0.33,
4995,-0.55,-0.32,
4996,-0.58,-0.31,
4997,-0.58,-0.305,
4998,-0.585,-0.295,
4999,-0.59,-0.31,
5000,-0.595,-0.31,
5001,-0.595,-0.32,
5002,-0.61,-0.315,
5003,-0.605,-0.32,
5004,-0.61,-0.325,
5005,-0.595,-0.32,
5006,-0.6,-0.32,
5007,-0.595,-0.31,
5008,-0.575,-0.315,
5009,-0.58,-0.3,
5010,-0.57,-0.305,
5011,-0.57,-0.31,
5012,-0.565,-0.325,
5013,-0.58,-0.325,
5014,-0.58,-0.335,
5015,-0.575,-0.35,
5016,-0.59,-0.34,
5017,-0.57,-0.34,
5018,-0.555,-0.34,
5019,-0.545,-0.33,
5020,-0.52,-0.325,
5021,-0.505,-0.32,
5022,-0.475,-0.32,
5023,-0.445,-0.34,
5024,-0.385,-0.34,
5025,-0.335,-0.345,
5026,-0.255,-0.35,
5027,-0.155,-0.365,
5028,-0.045,-0.37,
5029,0.095,-0.37,
5030,0.26,-0.385,
5031,0.47,-0.425,
5032,0.7,-0.485,
5033,0.905,-0.545,
5034,1.075,-0.66,
5035,1.225,-0.785,
5036,1.33,-0.92,N
5037,1.425,-1.05,
5038,1.465,-1.19,
5039,1.385,-1.32,
5040,1.145,-1.44,
5041,0.74,-1.525,
5042,0.25,-1.555,
5043,-0.205,-1.52,
5044,-0.585,-1.41,
5045,-0.785,-1.285,
5046,-0.865,-1.135,
5047,-0.85,-0.995,
5048,-0.8,-0.885,
5049,-0.735,-0.805,
5050,-0.695,-0.73,
5051,-0.655,-0.69,
5052,-0.66,-0.62,
5053,-0.66,-0.545,
5054,-0.67,-0.475,
5055,-0.685,-0.415,
5056,-0.695,-0.38,
5057,-0.69,-0.355,
5058,-0.695,-0.34,
5059,-0.69,-0.34,
5060,-0.695,-0.345,
5061,-0.695,-0.35,
5062,-0.705,-0.36,
5063,-0.725,-0.35,
5064,-0.73,-0.35,
5065,-0.735,-0.34,
5066,-0.73,-0.325,
5067,-0.72,-0.32,
5068,-0.72,-0.31,
5069,-0.71,-0.305,
5070,-0.715,-0.3,
5071,-0.725,-0.31,
5072,-0.73,-0.31,
5073,-0.725,-0.33,
5074,-0.735,-0.32,
5075,-0.745,-0.335,
5076,-0.765,-0.315,
5077,-0.77,-0.315,
5078,-0.75,-0.305,
5079,-0.745,-0.3,
5080,-0.74,-0.295,
5081,-0.735,-0.285,
5082,-0.74,-0.29,
5083,-0.745,-0.29,
5084,-0.745,-0.3,
5085,-0.77,-0.3,
5086,-0.78,-0.305,
5087,-0.79,-0.31,
5088,-0.785,-0.315,
5089,-0.79,-0.31,
5090,-0.785,-0.31,
5091,-0.79,-0.29,
5092,-0.78,-0.285,
5093,-0.77,-0.285,
5094,-0.765,-0.27,
5095,-0.775,-0.28,
5096,-0.785,-0.28,
5097,-0.8,-0.285,
5098,-0.815,-0.29,
5099,-0.82,-0.305,
5100,-0.825,-0.315,
5101,-0.83,-0.28,
5102,-0.83,-0.27,
5103,-0.83,-0.27,
5104,-0.825,-0.26,
5105,-0.835,-0.26,
5106,-0.82,-0.245,
5107,-0.83,-0.26,
5108,-0.825,-0.26,
5109,-0.845,-0.26,
5110,-0.855,-0.26,
5111,-0.875,-0.265,
5112,-0.88,-0.26,
5113,-0.895,-0.25,
5114,-0.89,-0.24,
5115,-0.895,-0.22,
5116,-0.905,-0.205,
5117,-0.885,-0.205,
5118,-0.875,-0.195,
5119,-0.86,-0.185,
5120,-0.87,-0.175,
5121,-0.885,-0.18,
5122,-0.9,-0.18,
5123,-0.885,-0.19,
5124,-0.88,-0.185,
5125,-0.88,-0.175,
5126,-0.87,-0.155,
5127,-0.845,-0.145,
5128,-0.85,-0.14,
5129,-0.825,-0.155,
5130,-0.805,-0.14,
5131,-0.79,-0.15,
5132,-0.785,-0.155,
5133,-0.775,-0.165,
5134,-0.765,-0.17,
5135,-0.76,-0.175,
5136,-0.735,-0.185,
5137,-0.73,-0.185,
5138,-0.715,-0.175,
5139,-0.69,-0.19,
5140,-0.665,-0.185,
5141,-0.64,-0.18,
5142,-0.64,-0.195,
5143,-0.635,-0.2,
5144,-0.615,-0.205,
5145,-0.61,-0.225,
5146,-0.615,-0.25,
5147,-0.61,-0.26,
5148,-0.61,-0.27,
5149,-0.605,-0.27,
5150,-0.6,-0.26,
5151,-0.605,-0.28,
5152,-0.585,-0.265,
5153,-0.575,-0.275,
5154,-0.565,-0.28,
5155,-0.57,-0.295,
5156,-0.57,-0.29,
5157,-0.57,-0.305,
5158,-0.59,-0.32,
5159,-0.58,-0.33,
5160,-0.6,-0.33,
5161,-0.6,-0.325,
5162,-0.605,-0.335,
5163,-0.605,-0.325,
5164,-0.595,-0.32,
5165,-0.59,-0.325,
5166,-0.58,-0.31,
5167,-0.575,-0.325,
5168,-0.585,-0.325,
5169,-0.58,-0.325,
5170,-0.59,-0.34,
5171,-0.6,-0.35,
5172,-0.605,-0.35,
5173,-0.615,-0.355,
5174,-0.61,-0.355,
5175,-0.61,-0.335,
5176,-0.61,-0.345,
5177,-0.605,-0.34,
5178,-0.6,-0.33,
5179,-0.59,-0.35,
5180,-0.6,-0.35,
5181,-0.61,-0.35,
5182,-0.62,-0.365,
5183,-0.62,-0.355,
5184,-0.63,-0.365,
5185,-0.635,-0.355,
5186,-0.64,-0.365,
5187,-0.635,-0.345,
5188,-0.64,-0.34,
5189,-0.63,-0.345,
5190,-0.625,-0.325,
5191,-0.625,-0.35,
5192,-0.63,-0.34,
5193,-0.635,-0.345,
5194,-0.635,-0.37,
5195,-0.64,-0.375,
5196,-0.645,-0.365,
5197,-0.65,-0.35,
5198,-0.655,-0.35,
5199,-0.66,-0.35,
5200,-0.635,-0.34,
5201,-0.64,-0.33,
5202,-0.635,-0.33,
5203,-0.63,-0.325,
5204,-0.64,-0.34,
5205,-0.645,-0.345,
5206,-0.64,-0.35,
5207,-0.64,-0.355,
5208,-0.655,-0.35,
5209,-0.655,-0.345,
5210,-0.64,-0.345,
5211,-0.64,-0.34,
5212,-0.625,-0.335,
5213,-0.62,-0.325,
5214,-0.625,-0.32,
5215,-0.605,-0.325,
5216,-0.605,-0.335,
5217,-0.605,-0.35,
5218,-0.605,-0.345,
5219,-0.61,-0.365,
5220,-0.605,-0.345,
5221,-0.6,-0.355,
5222,-0.59,-0.355,
5223,-0.57,-0.345,
5224,-0.56,-0.34,
5225,-0.55,-0.335,
5226,-0.545,-0.32,
5227,-0.535,-0.325,
5228,-0.54,-0.33,
5229,-0.54,-0.345,
5230,-0.545,-0.35,
5231,-0.54,-0.355,
5232,-0.56,-0.355,
5233,-0.54,-0.35,
5234,-0.55,-0.335,
5235,-0.53,-0.32,
5236,-0.51,-0.325,
5237,-0.5,-0.305,
5238,-0.49,-0.31,
5239,-0.48,-0.315,
5240,-0.465,-0.33,
5241,-0.46,-0.335,
5242,-0.45,-0.34,
5243,-0.445,-0.355,
5244,-0.45,-0.365,
5245,-0.445,-0.36,
5246,-0.445,-0.38,
5247,-0.455,-0.38,
5248,-0.455,-0.395,
5249,-0.45,-0.395,
5250,-0.44,-0.42,
5251,-0.45,-0.42,
5252,-0.465,-0.415,
5253,-0.475,-0.415,
5254,-0.505,-0.41,
5255,-0.52,-0.41,
5256,-0.54,-0.405,
5257,-0.555,-0.39,
5258,-0.56,-0.375,
5259,-0.565,-0.37,
5260,-0.58,-0.355,
5261,-0.585,-0.355,
5262,-0.58,-0.34,
5263,-0.59,-0.345,
5264,-0.61,-0.345,
5265,-0.625,-0.36,
5266,-0.63,-0.365,
5267,-0.625,-0.38,
5268,-0.63,-0.385,
5269,-0.635,-0.375,
5270,-0.625,-0.365,
5271,-0.62,-0.35,
5272,-0.61,-0.36,
5273,-0.605,-0.36,
5274,-0.595,-0.355,
5275,-0.595,-0.355,
5276,-0.6,-0.37,
5277,-0.595,-0.375,
5278,-0.61,-0.38,
5279,-0.6,-0.395,
5280,-0.605,-0.4,
5281,-0.6,-0.38,
5282,-0.595,-0.385,
5283,-0.57,-0.38,
5284,-0.55,-0.38,
5285,-0.53,-0.375,
5286,-0.49,-0.37,
5287,-0.45,-0.38,
5288,-0.405,-0.38,
5289,-0.33,-0.4,
5290,-0.255,-0.4,
5291,-0.13,-0.405,
5292,0.01,-0.42,
5293,0.165,-0.425,
5294,0.38,-0.455,
5295,0.625,-0.495,
5296,0.825,-0.57,
5297,1.01,-0.65,
5298,1.145,-0.76,
5299,1.25,-0.885,
5300,1.315,-0.99,N
5301,1.385,-1.11,
5302,1.43,-1.23,
5303,1.38,-1.34,
5304,1.185,-1.46,
5305,0.865,-1.54,
5306,0.48,-1.595,
5307,0.075,-1.61,
5308,-0.295,-1.565,
5309,-0.56,-1.495,
5310,-0.71,-1.37,
5311,-0.775,-1.255,
5312,-0.77,-1.145,
5313,-0.75,-1.055,
5314,-0.75,-0.975,
5315,-0.73,-0.895,
5316,-0.725,-0.85,
5317,-0.715,-0.79,
5318,-0.725,-0.715,
5319,-0.705,-0.66,
5320,-0.7,-0.585,
5321,-0.685,-0.505,
5322,-0.69,-0.445,
5323,-0.675,-0.43,
5324,-0.69,-0.395,
5325,-0.7,-0.395,
5326,-0.71,-0.4,
5327,-0.725,-0.39,
5328,-0.73,-0.405,
5329,-0.735,-0.385,
5330,-0.73,-0.39,
5331,-0.74,-0.37,
5332,-0.735,-0.36,
5333,-0.73,-0.345,
5334,-0.725,-0.34,
5335,-0.72,-0.35,
5336,-0.73,-0.35,
5337,-0.74,-0.35,
5338,-0.745,-0.35,
5339,-0.755,-0.36,
5340,-0.76,-0.36,
5341,-0.78,-0.355,
5342,-0.77,-0.35,
5343,-0.775,-0.34,
5344,-0.765,-0.35,
5345,-0.765,-0.33,
5346,-0.755,-0.32,
5347,-0.76,-0.315,
5348,-0.76,-0.32,
5349,-0.76,-0.325,
5350,-0.775,-0.34,
5351,-0.785,-0.335,
5352,-0.795,-0.33,
5353,-0.8,-0.33,
5354,-0.805,-0.34,
5355,-0.8,-0.325,
5356,-0.805,-0.31,
5357,-0.8,-0.305,
5358,-0.795,-0.295,
5359,-0.785,-0.3,
5360,-0.795,-0.31,
5361,-0.81,-0.31,
5362,-0.815,-0.31,
5363,-0.835,-0.315,
5364,-0.855,-0.31,
5365,-0.85,-0.305,
5366,-0.86,-0.295,
5367,-0.855,-0.29,
5368,-0.855,-0.28,
5369,-0.855,-0.275,
5370,-0.85,-0.27,
5371,-0.85,-0.26,
5372,-0.86,-0.275,
5373,-0.875,-0.275,
5374,-0.88,-0.265,
5375,-0.88,-0.275,
5376,-0.895,-0.26,
5377,-0.905,-0.26,
5378,-0.905,-0.255,
5379,-0.9,-0.235,
5380,-0.89,-0.215,
5381,-0.89,-0.2,
5382,-0.88,-0.21,
5383,-0.88,-0.195,
5384,-0.88,-0.205,
5385,-0.885,-0.195,
5386,-0.885,-0.205,
5387,-0.885,-0.21,
5388,-0.885,-0.2,
5389,-0.88,-0.195,
5390,-0.885,-0.195,
5391,-0.865,-0.18,
5392,-0.855,-0.17,
5393,-0.845,-0.15,
5394,-0.835,-0.16,
5395,-0.815,-0.17,
5396,-0.815,-0.17,
5397,-0.795,-0.18,
5398,-0.785,-0.19,
5399,-0.77,-0.19,
5400,-0.775,-0.21,
5401,-0.755,-0.205,
5402,-0.73,-0.205,
5403,-0.715,-0.195,
5404,-0.685,-0.195,
5405,-0.67,-0.205,
5406,-0.645,-0.195,
5407,-0.63,-0.21,
5408,-0.64,-0.235,
5409,-0.625,-0.25,
5410,-0.625,-0.265,
5411,-0.615,-0.275,
5412,-0.625,-0.29,
5413,-0.625,-0.295,
5414,-0.615,-0.295,
5415,-0.605,-0.295,
5416,-0.6,-0.3,
5417,-0.595,-0.29,
5418,-0.59,-0.29,
5419,-0.58,-0.31,
5420,-0.57,-0.31,
5421,-0.58,-0.33,
5422,-0.595,-0.335,
5423,-0.585,-0.34,
5424,-0.595,-0.35,
5425,-0.6,-0.345,
5426,-0.605,-0.34,
5427,-0.59,-0.34,
5428,-0.585,-0.33,
5429,-0.585,-0.335,
5430,-0.575,-0.335,
5431,-0.575,-0.35,
5432,-0.59,-0.35,
5433,-0.6,-0.355,
5434,-0.615,-0.36,
5435,-0.62,-0.37,
5436,-0.64,-0.375,
5437,-0.63,-0.365,
5438,-0.63,-0.38,
5439,-0.64,-0.36,
5440,-0.625,-0.35,
5441,-0.605,-0.365,
5442,-0.6,-0.35,
5443,-0.61,-0.37,
5444,-0.61,-0.36,
5445,-0.61,-0.365,
5446,-0.62,-0.38,
5447,-0.64,-0.38,
5448,-0.635,-0.385,
5449,-0.655,-0.37,
5450,-0.655,-0.375,
5451,-0.655,-0.35,
5452,-0.64,-0.355,
5453,-0.635,-0.34,
5454,-0.635,-0.34,
5455,-0.64,-0.35,
5456,-0.63,-0.36,
5457,-0.64,-0.37,
5458,-0.645,-0.365,
5459,-0.66,-0.37,
5460,-0.65,-0.37,
5461,-0.66,-0.36,
5462,-0.675,-0.345,
5463,-0.645,-0.345,
5464,-0.65,-0.34,
5465,-0.65,-0.34,
5466,-0.64,-0.345,
5467,-0.635,-0.34,
5468,-0.65,-0.34,
5469,-0.635,-0.355,
5470,-0.635,-0.355,
5471,-0.65,-0.365,
5472,-0.645,-0.365,
5473,-0.64,-0.355,
5474,-0.645,-0.355,
5475,-0.635,-0.35,
5476,-0.62,-0.34,
5477,-0.625,-0.335,
5478,-0.605,-0.33,
5479,-0.605,-0.33,
5480,-0.605,-0.335,
5481,-0.605,-0.34,
5482,-0.61,-0.345,
5483,-0.63,-0.355,
5484,-0.625,-0.365,
5485,-0.62,-0.36,
5486,-0.605,-0.36,
5487,-0.595,-0.345,
5488,-0.585,-0.335,
5489,-0.575,-0.335,
5490,-0.565,-0.325,
5491,-0.555,-0.345,
5492,-0.54,-0.335,
5493,-0.545,-0.345,
5494,-0.56,-0.35,
5495,-0.565,-0.355,
5496,-0.56,-0.35,
5497,-0.55,-0.345,
5498,-0.55,-0.335,
5499,-0.55,-0.335,
5500,-0.535,-0.33,
5501,-0.515,-0.305,
5502,-0.5,-0.305,
5503,-0.48,-0.315,
5504,-0.47,-0.305,
5505,-0.455,-0.325,
5506,-0.465,-0.325,
5507,-0.45,-0.35,
5508,-0.46,-0.355,
5509,-0.46,-0.355,
5510,-0.445,-0.375,
5511,-0.445,-0.375,
5512,-0.435,-0.375,
5513,-0.445,-0.385,
5514,-0.44,-0.395,
5515,-0.445,-0.4,
5516,-0.46,-0.41,
5517,-0.475,-0.41,
5518,-0.485,-0.405,
5519,-0.5,-0.405,
5520,-0.53,-0.405,
5521,-0.54,-0.395,
5522,-0.55,-0.385,
5523,-0.55,-0.375,
5524,-0.555,-0.36,
5525,-0.565,-0.355,
5526,-0.565,-0.345,
5527,-0.58,-0.345,
5528,-0.59,-0.345,
5529,-0.62,-0.365,
5530,-0.625,-0.355,
5531,-0.635,-0.36,
5532,-0.65,-0.37,
5533,-0.66,-0.355,
5534,-0.655,-0.345,
5535,-0.64,-0.345,
5536,-0.635,-0.345,
5537,-0.635,-0.33,
5538,-0.62,-0.325,
5539,-0.61,-0.335,
5540,-0.61,-0.34,
5541,-0.625,-0.345,
5542,-0.625,-0.35,
5543,-0.63,-0.36,
5544,-0.625,-0.37,
5545,-0.63,-0.36,
5546,-0.64,-0.36,
5547,-0.63,-0.35,
5548,-0.605,-0.36,
5549,-0.605,-0.335,
5550,-0.59,-0.35,
5551,-0.575,-0.345,
5552,-0.565,-0.35,
5553,-0.555,-0.36,
5554,-0.535,-0.37,
5555,-0.515,-0.38,
5556,-0.475,-0.38,
5557,-0.395,-0.37,
5558,-0.28,-0.38,
5559,-0.135,-0.37,
5560,0.025,-0.365,
5561,0.22,-0.38,
5562,0.435,-0.42,
5563,0.645,-0.485,
5564,0.84,-0.56,
5565,1.005,-0.675,
5566,1.135,-0.805,
5567,1.22,-0.925,
5568,1.31,-1.035,N
5569,1.36,-1.145,
5570,1.38,-1.245,
5571,1.295,-1.34,
5572,1.095,-1.44,
5573,0.78,-1.515,
5574,0.425,-1.565,
5575,0.05,-1.59,
5576,-0.28,-1.565,
5577,-0.525,-1.51,
5578,-0.67,-1.43,
5579,-0.745,-1.325,
5580,-0.755,-1.23,
5581,-0.76,-1.115,
5582,-0.745,-1.025,
5583,-0.74,-0.935,
5584,-0.75,-0.865,
5585,-0.735,-0.795,
5586,-0.725,-0.715,
5587,-0.72,-0.665,
5588,-0.705,-0.59,
5589,-0.7,-0.525,
5590,-0.695,-0.475,
5591,-0.71,-0.43,
5592,-0.715,-0.405,
5593,-0.735,-0.39,
5594,-0.73,-0.365,
5595,-0.73,-0.365,
5596,-0.725,-0.345,
5597,-0.73,-0.35,
5598,-0.72,-0.33,
5599,-0.725,-0.345,
5600,-0.73,-0.335,
5601,-0.725,-0.33,
5602,-0.74,-0.335,
5603,-0.74,-0.335,
5604,-0.75,-0.345,
5605,-0.765,-0.33,
5606,-0.77,-0.325,
5607,-0.775,-0.315,
5608,-0.76,-0.31,
5609,-0.765,-0.305,
5610,-0.75,-0.305,
5611,-0.76,-0.315,
5612,-0.755,-0.32,
5613,-0.765,-0.315,
5614,-0.78,-0.33,
5615,-0.775,-0.335,
5616,-0.795,-0.335,
5617,-0.79,-0.32,
5618,-0.785,-0.31,
5619,-0.79,-0.31,
5620,-0.79,-0.31,
5621,-0.78,-0.295,
5622,-0.795,-0.29,
5623,-0.79,-0.295,
5624,-0.78,-0.29,
5625,-0.79,-0.295,
5626,-0.805,-0.305,
5627,-0.815,-0.31,
5628,-0.825,-0.31,
5629,-0.83,-0.3,
5630,-0.825,-0.29,
5631,-0.835,-0.29,
5632,-0.825,-0.28,
5633,-0.83,-0.27,
5634,-0.82,-0.265,
5635,-0.815,-0.26,
5636,-0.83,-0.27,
5637,-0.83,-0.275,
5638,-0.85,-0.27,
5639,-0.87,-0.265,
5640,-0.875,-0.275,
5641,-0.88,-0.27,
5642,-0.885,-0.26,
5643,-0.88,-0.25,
5644,-0.89,-0.24,
5645,-0.885,-0.215,
5646,-0.88,-0.21,
5647,-0.88,-0.215,
5648,-0.885,-0.2,
5649,-0.89,-0.215,
5650,-0.91,-0.22,
5651,-0.9,-0.215,
5652,-0.905,-0.215,
5653,-0.915,-0.205,
5654,-0.9,-0.19,
5655,-0.9,-0.175,
5656,-0.895,-0.165,
5657,-0.89,-0.16,
5658,-0.875,-0.145,
5659,-0.875,-0.15,
5660,-0.865,-0.145,
5661,-0.865,-0.15,
5662,-0.865,-0.155,
5663,-0.855,-0.16,
5664,-0.86,-0.165,
5665,-0.85,-0.165,
5666,-0.835,-0.155,
5667,-0.82,-0.145,
5668,-0.795,-0.14,
5669,-0.775,-0.145,
5670,-0.75,-0.14,
5671,-0.74,-0.16,
5672,-0.725,-0.155,
5673,-0.72,-0.18,
5674,-0.71,-0.185,
5675,-0.695,-0.2,
5676,-0.7,-0.215,
5677,-0.69,-0.2,
5678,-0.68,-0.22,
5679,-0.67,-0.215,
5680,-0.65,-0.22,
5681,-0.645,-0.21,
5682,-0.64,-0.22,
5683,-0.625,-0.24,
5684,-0.625,-0.235,
5685,-0.615,-0.255,
5686,-0.625,-0.27,
5687,-0.64,-0.275,
5688,-0.635,-0.285,
5689,-0.62,-0.275,
5690,-0.625,-0.285,
5691,-0.63,-0.28,
5692,-0.61,-0.28,
5693,-0.61,-0.28,
5694,-0.6,-0.27,
5695,-0.595,-0.285,
5696,-0.6,-0.295,
5697,-0.61,-0.305,
5698,-0.615,-0.32,
5699,-0.625,-0.33,
5700,-0.63,-0.335,
5701,-0.625,-0.325,
5702,-0.62,-0.325,
5703,-0.61,-0.32,
5704,-0.615,-0.325,
5705,-0.615,-0.32,
5706,-0.62,-0.3,
5707,-0.635,-0.315,
5708,-0.625,-0.315,
5709,-0.62,-0.335,
5710,-0.625,-0.345,
5711,-0.64,-0.35,
5712,-0.64,-0.35,
5713,-0.65,-0.35,
5714,-0.65,-0.335,
5715,-0.665,-0.34,
5716,-0.655,-0.325,
5717,-0.655,-0.325,
5718,-0.66,-0.32,
5719,-0.65,-0.32,
5720,-0.65,-0.32,
5721,-0.655,-0.335,
5722,-0.655,-0.335,
5723,-0.675,-0.34,
5724,-0.69,-0.345,
5725,-0.695,-0.34,
5726,-0.7,-0.33,
5727,-0.68,-0.33,
5728,-0.68,-0.325,
5729,-0.66,-0.315,
5730,-0.675,-0.31,
5731,-0.655,-0.305,
5732,-0.66,-0.315,
5733,-0.665,-0.315,
5734,-0.675,-0.32,
5735,-0.685,-0.33,
5736,-0.68,-0.335,
5737,-0.675,-0.335,
5738,-0.675,-0.32,
5739,-0.675,-0.325,
5740,-0.66,-0.315,
5741,-0.66,-0.315,
5742,-0.645,-0.3,
5743,-0.65,-0.3,
5744,-0.655,-0.305,
5745,-0.655,-0.32,
5746,-0.655,-0.315,
5747,-0.665,-0.32,
5748,-0.665,-0.335,
5749,-0.675,-0.325,
5750,-0.67,-0.31,
5751,-0.66,-0.31,
5752,-0.64,-0.305,
5753,-0.64,-0.29,
5754,-0.62,-0.29,
5755,-0.625,-0.295,
5756,-0.63,-0.305,
5757,-0.62,-0.305,
5758,-0.635,-0.315,
5759,-0.63,-0.33,
5760,-0.63,-0.335,
5761,-0.62,-0.32,
5762,-0.615,-0.325,
5763,-0.61,-0.315,
5764,-0.595,-0.315,
5765,-0.59,-0.3,
5766,-0.565,-0.295,
5767,-0.56,-0.295,
5768,-0.565,-0.305,
5769,-0.565,-0.3,
5770,-0.56,-0.31,
5771,-0.565,-0.31,
5772,-0.57,-0.315,
5773,-0.57,-0.3,
5774,-0.56,-0.3,
5775,-0.555,-0.29,
5776,-0.54,-0.295,
5777,-0.515,-0.28,
5778,-0.505,-0.27,
5779,-0.49,-0.275,
5780,-0.47,-0.3,
5781,-0.46,-0.315,
5782,-0.46,-0.32,
5783,-0.465,-0.34,
5784,-0.465,-0.365,
5785,-0.48,-0.365,
5786,-0.485,-0.38,
5787,-0.485,-0.395,
5788,-0.485,-0.39,
5789,-0.47,-0.38,
5790,-0.475,-0.37,
5791,-0.485,-0.37,
5792,-0.51,-0.365,
5793,-0.535,-0.365,
5794,-0.545,-0.36,
5795,-0.56,-0.365,
5796,-0.58,-0.365,
5797,-0.59,-0.355,
5798,-0.6,-0.35,
5799,-0.605,-0.33,
5800,-0.62,-0.325,
5801,-0.62,-0.32,
5802,-0.625,-0.305,
5803,-0.635,-0.32,
5804,-0.635,-0.315,
5805,-0.63,-0.335,
5806,-0.645,-0.335,
5807,-0.65,-0.335,
5808,-0.655,-0.34,
5809,-0.655,-0.35,
5810,-0.655,-0.34,
5811,-0.65,-0.34,
5812,-0.635,-0.32,
5813,-0.635,-0.325,
5814,-0.62,-0.305,
5815,-0.63,-0.325,
5816,-0.62,-0.33,
5817,-0.62,-0.335,
5818,-0.615,-0.35,
5819,-0.625,-0.345,
5820,-0.62,-0.35,
5821,-0.615,-0.34,
5822,-0.6,-0.35,
5823,-0.6,-0.34,
5824,-0.575,-0.345,
5825,-0.555,-0.34,
5826,-0.515,-0.32,
5827,-0.475,-0.335,
5828,-0.41,-0.34,
5829,-0.35,-0.35,
5830,-0.275,-0.36,
5831,-0.165,-0.365,
5832,-0.055,-0.375,
5833,0.07,-0.36,
5834,0.225,-0.385,
5835,0.39,-0.405,
5836,0.58,-0.44,
5837,0.775,-0.495,
5838,0.945,-0.575,
5839,1.075,-0.68,
5840,1.18,-0.8,
5841,1.25,-0.92,
5842,1.315,-1.03,N
5843,1.375,-1.15,
5844,1.355,-1.255,
5845,1.235,-1.375,
5846,0.98,-1.465,
5847,0.62,-1.55,
5848,0.2,-1.585,
5849,-0.195,-1.58,
5850,-0.515,-1.505,
5851,-0.71,-1.4,
5852,-0.81,-1.275,
5853,-0.825,-1.15,
5854,-0.8,-1.04,
5855,-0.78,-0.965,
5856,-0.745,-0.885,
5857,-0.735,-0.82,
5858,-0.725,-0.74,
5859,-0.71,-0.665,
5860,-0.715,-0.59,
5861,-0.705,-0.525,
5862,-0.695,-0.455,
5863,-0.705,-0.42,
5864,-0.71,-0.39,
5865,-0.72,-0.38,
5866,-0.735,-0.37,
5867,-0.74,-0.37,
5868,-0.74,-0.37,
5869,-0.75,-0.355,
5870,-0.755,-0.35,
5871,-0.765,-0.35,
5872,-0.75,-0.335,
5873,-0.74,-0.315,
5874,-0.735,-0.31,
5875,-0.745,-0.315,
5876,-0.745,-0.31,
5877,-0.755,-0.32,
5878,-0.755,-0.33,
5879,-0.76,-0.325,
5880,-0.765,-0.34,
5881,-0.775,-0.335,
5882,-0.775,-0.32,
5883,-0.78,-0.305,
5884,-0.77,-0.3,
5885,-0.78,-0.29,
5886,-0.775,-0.295,
5887,-0.775,-0.3,
5888,-0.775,-0.295,
5889,-0.795,-0.31,
5890,-0.8,-0.315,
5891,-0.8,-0.32,
5892,-0.81,-0.33,
5893,-0.82,-0.32,
5894,-0.81,-0.31,
5895,-0.805,-0.315,
5896,-0.805,-0.305,
5897,-0.805,-0.295,
5898,-0.8,-0.29,
5899,-0.81,-0.285,
5900,-0.81,-0.305,
5901,-0.82,-0.295,
5902,-0.825,-0.3,
5903,-0.84,-0.31,
5904,-0.845,-0.31,
5905,-0.85,-0.305,
5906,-0.855,-0.295,
5907,-0.845,-0.29,
5908,-0.855,-0.29,
5909,-0.845,-0.28,
5910,-0.84,-0.27,
5911,-0.845,-0.275,
5912,-0.85,-0.27,
5913,-0.855,-0.27,
5914,-0.865,-0.275,
5915,-0.875,-0.285,
5916,-0.885,-0.285,
5917,-0.9,-0.275,
5918,-0.905,-0.27,
5919,-0.915,-0.25,
5920,-0.905,-0.24,
5921,-0.905,-0.24,
5922,-0.905,-0.225,
5923,-0.9,-0.225,
5924,-0.91,-0.22,
5925,-0.915,-0.225,
5926,-0.92,-0.22,
5927,-0.925,-0.215,
5928,-0.93,-0.22,
5929,-0.935,-0.21,
5930,-0.93,-0.195,
5931,-0.93,-0.18,
5932,-0.91,-0.17,
5933,-0.895,-0.16,
5934,-0.875,-0.16,
5935,-0.88,-0.155,
5936,-0.87,-0.145,
5937,-0.87,-0.145,
5938,-0.865,-0.16,
5939,-0.875,-0.165,
5940,-0.86,-0.17,
5941,-0.85,-0.165,
5942,-0.84,-0.16,
5943,-0.82,-0.155,
5944,-0.795,-0.14,
5945,-0.77,-0.15,
5946,-0.745,-0.15,
5947,-0.735,-0.15,
5948,-0.72,-0.155,
5949,-0.705,-0.175,
5950,-0.7,-0.18,
5951,-0.68,-0.205,
5952,-0.69,-0.215,
5953,-0.68,-0.21,
5954,-0.66,-0.215,
5955,-0.655,-0.21,
5956,-0.65,-0.22,
5957,-0.645,-0.21,
5958,-0.615,-0.23,
5959,-0.63,-0.24,
5960,-0.63,-0.245,
5961,-0.625,-0.26,
5962,-0.635,-0.265,
5963,-0.63,-0.275,
5964,-0.64,-0.29,
5965,-0.64,-0.3,
5966,-0.64,-0.3,
5967,-0.65,-0.285,
5968,-0.63,-0.285,
5969,-0.615,-0.28,
5970,-0.615,-0.275,
5971,-0.605,-0.29,
5972,-0.615,-0.29,
5973,-0.615,-0.3,
5974,-0.625,-0.32,
5975,-0.645,-0.33,
5976,-0.655,-0.32,
5977,-0.65,-0.325,
5978,-0.655,-0.32,
5979,-0.65,-0.32,
5980,-0.64,-0.315,
5981,-0.645,-0.31,
5982,-0.64,-0.3,
5983,-0.635,-0.31,
5984,-0.64,-0.315,
5985,-0.645,-0.32,
5986,-0.655,-0.33,
5987,-0.67,-0.335,
5988,-0.675,-0.345,
5989,-0.675,-0.34,
5990,-0.675,-0.33,
5991,-0.685,-0.325,
5992,-0.665,-0.315,
5993,-0.66,-0.305,
5994,-0.655,-0.31,
5995,-0.655,-0.295,
5996,-0.655,-0.305,
5997,-0.65,-0.325,
5998,-0.67,-0.32,
5999,-0.68,-0.325,
6000,-0.695,-0.325,
6001,-0.695,-0.315,
6002,-0.695,-0.31,
6003,-0.69,-0.3,
6004,-0.68,-0.3,
6005,-0.675,-0.3,
6006,-0.66,-0.285,
6007,-0.65,-0.295,
6008,-0.655,-0.3,
6009,-0.66,-0.305,
6010,-0.665,-0.31,
6011,-0.67,-0.32,
6012,-0.68,-0.325,
6013,-0.68,-0.315,
6014,-0.675,-0.305,
6015,-0.66,-0.305,
6016,-0.66,-0.3,
6017,-0.635,-0.285,
6018,-0.625,-0.285,
6019,-0.62,-0.285,
6020,-0.625,-0.28,
6021,-0.62,-0.295,
6022,-0.64,-0.315,
6023,-0.64,-0.315,
6024,-0.645,-0.32,
6025,-0.645,-0.325,
6026,-0.63,-0.315,
6027,-0.63,-0.315,
6028,-0.625,-0.305,
6029,-0.605,-0.295,
6030,-0.6,-0.28,
6031,-0.585,-0.285,
6032,-0.59,-0.305,
6033,-0.59,-0.31,
6034,-0.585,-0.315,
6035,-0.595,-0.32,
6036,-0.605,-0.325,
6037,-0.59,-0.31,
6038,-0.595,-0.3,
6039,-0.58,-0.295,
6040,-0.57,-0.285,
6041,-0.56,-0.275,
6042,-0.54,-0.27,
6043,-0.53,-0.275,
6044,-0.53,-0.275,
6045,-0.51,-0.285,
6046,-0.51,-0.285,
6047,-0.505,-0.29,
6048,-0.505,-0.305,
6049,-0.505,-0.305,
6050,-0.48,-0.31,
6051,-0.475,-0.31,
6052,-0.47,-0.315,
6053,-0.45,-0.32,
6054,-0.445,-0.325,
6055,-0.45,-0.34,
6056,-0.455,-0.355,
6057,-0.475,-0.375,
6058,-0.475,-0.385,
6059,-0.5,-0.41,
6060,-0.5,-0.395,
6061,-0.53,-0.38,
6062,-0.545,-0.375,
6063,-0.56,-0.355,
6064,-0.57,-0.34,
6065,-0.565,-0.32,
6066,-0.57,-0.305,
6067,-0.57,-0.315,
6068,-0.6,-0.32,
6069,-0.615,-0.315,
6070,-0.63,-0.325,
6071,-0.655,-0.325,
6072,-0.665,-0.33,
6073,-0.665,-0.32,
6074,-0.67,-0.325,
6075,-0.66,-0.325,
6076,-0.645,-0.31,
6077,-0.65,-0.31,
6078,-0.64,-0.305,
6079,-0.62,-0.315,
6080,-0.625,-0.31,
6081,-0.635,-0.32,
6082,-0.645,-0.325,
6083,-0.63,-0.34,
6084,-0.645,-0.33,
6085,-0.66,-0.335,
6086,-0.645,-0.33,
6087,-0.63,-0.32,
6088,-0.61,-0.325,
6089,-0.59,-0.315,
6090,-0.57,-0.31,
6091,-0.55,-0.305,
6092,-0.54,-0.325,
6093,-0.505,-0.33,
6094,-0.48,-0.345,
6095,-0.43,-0.34,
6096,-0.36,-0.355,
6097,-0.27,-0.34,
6098,-0.15,-0.345,
6099,-0.01,-0.33,
6100,0.155,-0.35,
6101,0.36,-0.365,
6102,0.565,-0.41,
6103,0.77,-0.475,
6104,0.95,-0.565,
6105,1.07,-0.68,
6106,1.175,-0.8,
6107,1.265,-0.935,N
6108,1.315,-1.04,
6109,1.355,-1.155,
6110,1.325,-1.265,
6111,1.17,-1.365,
6112,0.885,-1.465,
6113,0.5,-1.53,
6114,0.095,-1.55,
6115,-0.27,-1.54,
6116,-0.55,-1.47,
6117,-0.735,-1.37,
6118,-0.82,-1.26,
6119,-0.815,-1.16,
6120,-0.785,-1.065,
6121,-0.77,-0.97,
6122,-0.745,-0.895,
6123,-0.735,-0.82,
6124,-0.73,-0.75,
6125,-0.72,-0.69,
6126,-0.71,-0.625,
6127,-0.69,-0.555,
6128,-0.69,-0.505,
6129,-0.69,-0.435,
6130,-0.7,-0.395,
6131,-0.705,-0.37,
6132,-0.725,-0.34,
6133,-0.74,-0.32,
6134,-0.74,-0.31,
6135,-0.745,-0.305,
6136,-0.745,-0.3,
6137,-0.735,-0.285,
6138,-0.72,-0.28,
6139,-0.72,-0.275,
6140,-0.725,-0.275,
6141,-0.74,-0.275,
6142,-0.74,-0.285,
6143,-0.75,-0.27,
6144,-0.76,-0.28,
6145,-0.755,-0.28,
6146,-0.755,-0.275,
6147,-0.75,-0.26,
6148,-0.755,-0.25,
6149,-0.77,-0.24,
6150,-0.755,-0.225,
6151,-0.745,-0.235,
6152,-0.765,-0.24,
6153,-0.765,-0.245,
6154,-0.775,-0.26,
6155,-0.78,-0.26,
6156,-0.79,-0.26,
6157,-0.795,-0.25,
6158,-0.79,-0.25,
6159,-0.795,-0.23,
6160,-0.795,-0.235,
6161,-0.795,-0.215,
6162,-0.785,-0.22,
6163,-0.775,-0.225,
6164,-0.785,-0.225,
6165,-0.785,-0.24,
6166,-0.795,-0.25,
6167,-0.795,-0.24,
6168,-0.815,-0.23,
6169,-0.83,-0.235,
6170,-0.82,-0.225,
6171,-0.825,-0.215,
6172,-0.82,-0.21,
6173,-0.81,-0.21,
6174,-0.815,-0.185,
6175,-0.815,-0.2,
6176,-0.83,-0.2,
6177,-0.835,-0.21,
6178,-0.84,-0.215,
6179,-0.85,-0.205,
6180,-0.855,-0.215,
6181,-0.865,-0.205,
6182,-0.865,-0.195,
6183,-0.87,-0.19,
6184,-0.87,-0.18,
6185,-0.875,-0.165,
6186,-0.865,-0.165,
6187,-0.875,-0.15,
6188,-0.885,-0.15,
6189,-0.88,-0.155,
6190,-0.89,-0.155,
6191,-0.905,-0.145,
6192,-0.91,-0.15,
6193,-0.9,-0.145,
6194,-0.91,-0.13,
6195,-0.905,-0.115,
6196,-0.89,-0.105,
6197,-0.89,-0.095,
6198,-0.865,-0.08,
6199,-0.87,-0.085,
6200,-0.87,-0.08,
6201,-0.86,-0.08,
6202,-0.86,-0.09,
6203,-0.86,-0.095,
6204,-0.86,-0.09,
6205,-0.855,-0.09,
6206,-0.84,-0.085,
6207,-0.825,-0.075,
6208,-0.8,-0.075,
6209,-0.795,-0.065,
6210,-0.765,-0.065,
6211,-0.75,-0.075,
6212,-0.74,-0.075,
6213,-0.72,-0.085,
6214,-0.705,-0.1,
6215,-0.695,-0.115,
6216,-0.68,-0.14,
6217,-0.675,-0.13,
6218,-0.65,-0.135,
6219,-0.645,-0.13,
6220,-0.62,-0.145,
6221,-0.615,-0.145,
6222,-0.6,-0.15,
6223,-0.585,-0.155,
6224,-0.585,-0.165,
6225,-0.585,-0.185,
6226,-0.595,-0.2,
6227,-0.595,-0.2,
6228,-0.595,-0.205,
6229,-0.61,-0.215,
6230,-0.595,-0.225,
6231,-0.605,-0.21,
6232,-0.61,-0.21,
6233,-0.6,-0.2,
6234,-0.6,-0.195,
6235,-0.6,-0.215,
6236,-0.59,-0.205,
6237,-0.595,-0.225,
6238,-0.61,-0.235,
6239,-0.615,-0.235,
6240,-0.615,-0.26,
6241,-0.625,-0.26,
6242,-0.62,-0.25,
6243,-0.63,-0.25,
6244,-0.64,-0.245,
6245,-0.62,-0.23,
6246,-0.625,-0.225,
6247,-0.61,-0.235,
6248,-0.61,-0.24,
6249,-0.61,-0.25,
6250,-0.62,-0.26,
6251,-0.63,-0.27,
6252,-0.63,-0.265,
6253,-0.64,-0.27,
6254,-0.64,-0.26,
6255,-0.635,-0.255,
6256,-0.64,-0.255,
6257,-0.625,-0.245,
6258,-0.625,-0.245,
6259,-0.62,-0.25,
6260,-0.62,-0.255,
6261,-0.63,-0.255,
6262,-0.64,-0.25,
6263,-0.645,-0.265,
6264,-0.66,-0.275,
6265,-0.665,-0.275,
6266,-0.66,-0.265,
6267,-0.645,-0.255,
6268,-0.645,-0.255,
6269,-0.64,-0.235,
6270,-0.645,-0.235,
6271,-0.635,-0.245,
6272,-0.635,-0.255,
6273,-0.645,-0.25,
6274,-0.645,-0.25,
6275,-0.655,-0.27,
6276,-0.655,-0.27,
6277,-0.67,-0.265,
6278,-0.655,-0.275,
6279,-0.65,-0.255,
6280,-0.645,-0.235,
6281,-0.65,-0.25,
6282,-0.625,-0.235,
6283,-0.62,-0.245,
6284,-0.62,-0.255,
6285,-0.64,-0.255,
6286,-0.64,-0.255,
6287,-0.63,-0.265,
6288,-0.64,-0.275,
6289,-0.645,-0.27,
6290,-0.64,-0.27,
6291,-0.63,-0.27,
6292,-0.615,-0.25,
6293,-0.625,-0.25,
6294,-0.605,-0.24,
6295,-0.585,-0.245,
6296,-0.6,-0.25,
6297,-0.595,-0.265,
6298,-0.575,-0.265,
6299,-0.58,-0.285,
6300,-0.585,-0.28,
6301,-0.585,-0.28,
6302,-0.575,-0.265,
6303,-0.56,-0.26,
6304,-0.56,-0.26,
6305,-0.55,-0.24,
6306,-0.55,-0.23,
6307,-0.53,-0.23,
6308,-0.535,-0.24,
6309,-0.51,-0.24,
6310,-0.515,-0.245,
6311,-0.515,-0.25,
6312,-0.495,-0.25,
6313,-0.5,-0.265,
6314,-0.48,-0.255,
6315,-0.49,-0.26,
6316,-0.455,-0.25,
6317,-0.45,-0.26,
6318,-0.43,-0.265,
6319,-0.43,-0.285,
6320,-0.425,-0.29,
6321,-0.435,-0.315,
6322,-0.46,-0.325,
6323,-0.465,-0.345,
6324,-0.48,-0.35,
6325,-0.49,-0.35,
6326,-0.5,-0.33,
6327,-0.53,-0.325,
6328,-0.55,-0.32,
6329,-0.555,-0.295,
6330,-0.55,-0.27,
6331,-0.555,-0.27,
6332,-0.565,-0.275,
6333,-0.575,-0.275,
6334,-0.59,-0.285,
6335,-0.615,-0.3,
6336,-0.645,-0.285,
6337,-0.665,-0.29,
6338,-0.66,-0.28,
6339,-0.66,-0.275,
6340,-0.655,-0.265,
6341,-0.645,-0.255,
6342,-0.63,-0.255,
6343,-0.62,-0.26,
6344,-0.62,-0.275,
6345,-0.62,-0.28,
6346,-0.635,-0.275,
6347,-0.645,-0.295,
6348,-0.645,-0.305,
6349,-0.64,-0.3,
6350,-0.63,-0.3,
6351,-0.64,-0.295,
6352,-0.62,-0.28,
6353,-0.61,-0.28,
6354,-0.59,-0.275,
6355,-0.57,-0.28,
6356,-0.57,-0.285,
6357,-0.555,-0.29,
6358,-0.54,-0.31,
6359,-0.495,-0.32,
6360,-0.435,-0.32,
6361,-0.35,-0.32,
6362,-0.22,-0.31,
6363,-0.065,-0.31,
6364,0.12,-0.325,
6365,0.355,-0.325,
6366,0.6,-0.37,
6367,0.81,-0.445,
6368,0.985,-0.555,
6369,1.13,-0.68,
6370,1.23,-0.805,
6371,1.31,-0.93,N
6372,1.35,-1.045,
6373,1.33,-1.145,
6374,1.18,-1.26,
6375,0.925,-1.35,
6376,0.545,-1.425,
6377,0.12,-1.465,
6378,-0.265,-1.45,
6379,-0.555,-1.405,
6380,-0.745,-1.33,
6381,-0.82,-1.225,
6382,-0.83,-1.125,
6383,-0.8,-1.04,
6384,-0.775,-0.945,
6385,-0.77,-0.885,
6386,-0.755,-0.805,
6387,-0.755,-0.73,
6388,-0.745,-0.635,
6389,-0.73,-0.57,
6390,-0.715,-0.49,
6391,-0.695,-0.45,
6392,-0.725,-0.39,
6393,-0.73,-0.35,
6394,-0.73,-0.325,
6395,-0.74,-0.305,
6396,-0.75,-0.32,
6397,-0.765,-0.305,
6398,-0.76,-0.29,
6399,-0.76,-0.295,
6400,-0.745,-0.28,
6401,-0.75,-0.26,
6402,-0.74,-0.25,
6403,-0.745,-0.235,
6404,-0.755,-0.24,
6405,-0.765,-0.255,
6406,-0.77,-0.25,
6407,-0.765,-0.255,
6408,-0.785,-0.27,
6409,-0.785,-0.26,
6410,-0.785,-0.25,
6411,-0.785,-0.245,
6412,-0.785,-0.245,
6413,-0.79,-0.245,
6414,-0.78,-0.22,
6415,-0.785,-0.23,
6416,-0.78,-0.23,
6417,-0.775,-0.245,
6418,-0.785,-0.245,
6419,-0.795,-0.245,
6420,-0.81,-0.245,
6421,-0.82,-0.24,
6422,-0.825,-0.24,
6423,-0.835,-0.235,
6424,-0.815,-0.21,
6425,-0.805,-0.21,
6426,-0.805,-0.205,
6427,-0.8,-0.2,
6428,-0.81,-0.22,
6429,-0.82,-0.22,
6430,-0.82,-0.215,
6431,-0.835,-0.215,
6432,-0.865,-0.215,
