,MLII,V1,symbol
0,-0.155,-0.095,
1,-0.155,-0.095,
2,-0.155,-0.095,
3,-0.155,-0.095,
4,-0.155,-0.095,
5,-0.155,-0.095,
6,-0.155,-0.095,
7,-0.155,-0.095,
8,-0.17,-0.105,
9,-0.175,-0.13,
10,-0.195,-0.14,
11,-0.22,-0.125,
12,-0.21,-0.085,
13,-0.215,-0.055,
14,-0.24,-0.03,
15,-0.26,-0.03,
16,-0.265,-0.035,
17,-0.27,-0.055,
18,-0.28,-0.065,
19,-0.29,-0.07,
20,-0.285,-0.06,
21,-0.3,-0.045,
22,-0.305,-0.05,
23,-0.32,-0.06,
24,-0.345,-0.015,
25,-0.34,0.015,
26,-0.325,0.06,
27,-0.305,0.075,+
28,-0.305,0.05,
29,-0.31,0.015,
30,-0.32,0.0,
31,-0.32,0.04,
32,-0.31,0.08,
33,-0.315,0.1,
34,-0.34,0.095,
35,-0.36,0.06,
36,-0.375,0.07,
37,-0.355,0.08,
38,-0.35,0.1,
39,-0.335,0.095,
40,-0.345,0.06,
41,-0.365,0.045,
42,-0.4,0.05,
43,-0.4,0.075,
44,-0.365,0.07,
45,-0.37,0.055,
46,-0.34,0.045,
47,-0.355,0.045,
48,-0.35,0.045,
49,-0.355,0.04,
50,-0.37,0.035,
51,-0.37,0.025,
52,-0.355,0.02,
53,-0.35,0.0,
54,-0.355,0.0,
55,-0.355,0.005,
56,-0.375,0.005,
57,-0.385,0.02,
58,-0.405,0.015,
59,-0.435,0.025,
60,-0.415,0.005,
61,-0.355,-0.005,
62,-0.3,-0.01,
63,-0.275,-0.005,
64,-0.275,-0.005,
65,-0.27,0.01,
66,-0.27,0.035,
67,-0.265,0.075,
68,-0.265,0.085,
69,-0.26,0.085,
70,-0.25,0.065,
71,-0.235,0.025,
72,-0.21,0.015,
73,-0.18,0.01,
74,-0.165,0.03,
75,-0.18,0.055,
76,-0.19,0.07,
77,-0.19,0.065,
78,-0.175,0.055,
79,-0.165,0.035,
80,-0.16,-0.015,
81,-0.18,-0.105,
82,-0.23,-0.17,
83,-0.28,-0.18,
84,-0.31,-0.145,
85,-0.33,-0.125,
86,-0.325,-0.125,
87,-0.33,-0.125,
88,-0.335,-0.17,
89,-0.34,-0.195,
90,-0.345,-0.215,
91,-0.33,-0.22,
92,-0.35,-0.21,
93,-0.355,-0.2,
94,-0.385,-0.22,
95,-0.405,-0.21,
96,-0.43,-0.195,
97,-0.43,-0.16,
98,-0.4,-0.145,
99,-0.4,-0.17,
100,-0.39,-0.185,
101,-0.38,-0.2,
102,-0.37,-0.21,
103,-0.355,-0.23,
104,-0.365,-0.215,
105,-0.345,-0.195,
106,-0.345,-0.23,
107,-0.39,-0.27,
108,-0.41,-0.29,
109,-0.415,-0.275,
110,-0.425,-0.255,
111,-0.39,-0.24,
112,-0.385,-0.245,
113,-0.395,-0.24,
114,-0.41,-0.25,
115,-0.405,-0.255,
116,-0.435,-0.24,
117,-0.435,-0.24,
118,-0.41,-0.215,
119,-0.38,-0.2,
120,-0.37,-0.175,
121,-0.36,-0.155,
122,-0.36,-0.13,
123,-0.39,-0.13,
124,-0.39,-0.125,
125,-0.375,-0.095,
126,-0.345,-0.07,
127,-0.325,-0.07,
128,-0.33,-0.075,
129,-0.335,-0.09,
130,-0.335,-0.115,
131,-0.36,-0.085,
132,-0.37,-0.065,
133,-0.35,-0.04,
134,-0.29,-0.05,
135,-0.23,-0.08,
136,-0.185,-0.075,
137,-0.205,-0.085,
138,-0.265,-0.055,
139,-0.285,-0.015,
140,-0.27,-0.005,
141,-0.28,-0.03,
142,-0.315,-0.06,
143,-0.365,-0.07,
144,-0.405,-0.07,
145,-0.43,-0.185,
146,-0.445,-0.48,
147,-0.45,-0.865,
148,-0.415,-1.255,
149,-0.375,-1.69,
150,-0.29,-2.16,
151,-0.225,-2.57,
152,-0.165,-2.85,
153,-0.14,-2.945,
154,-0.13,-2.94,
155,-0.115,-2.83,
156,-0.04,-2.52,
157,0.175,-1.925,
158,0.425,-1.29,
159,0.565,-0.655,
160,0.55,-0.08,N
161,0.44,0.02,
162,0.33,0.04,
163,0.225,0.065,
164,0.105,0.09,
165,-0.005,0.12,
166,-0.085,0.15,
167,-0.175,0.17,
168,-0.21,0.18,
169,-0.225,0.195,
170,-0.22,0.16,
171,-0.235,0.13,
172,-0.235,0.135,
173,-0.235,0.165,
174,-0.21,0.235,
175,-0.18,0.275,
176,-0.2,0.25,
177,-0.185,0.22,
178,-0.225,0.2,
179,-0.245,0.185,
180,-0.255,0.19,
181,-0.26,0.21,
182,-0.245,0.215,
183,-0.235,0.22,
184,-0.23,0.21,
185,-0.225,0.19,
186,-0.225,0.18,
187,-0.24,0.19,
188,-0.225,0.175,
189,-0.21,0.175,
190,-0.21,0.205,
191,-0.2,0.225,
192,-0.19,0.22,
193,-0.165,0.215,
194,-0.15,0.2,
195,-0.17,0.185,
196,-0.195,0.175,
197,-0.2,0.155,
198,-0.205,0.165,
199,-0.175,0.19,
200,-0.15,0.195,
201,-0.13,0.2,
202,-0.12,0.2,
203,-0.12,0.205,
204,-0.145,0.205,
205,-0.14,0.21,
206,-0.115,0.21,
207,-0.115,0.2,
208,-0.105,0.18,
209,-0.11,0.16,
210,-0.11,0.18,
211,-0.1,0.175,
212,-0.1,0.16,
213,-0.115,0.15,
214,-0.115,0.13,
215,-0.105,0.135,
216,-0.075,0.135,
217,-0.045,0.14,
218,-0.03,0.1,
219,-0.02,0.08,
220,-0.025,0.035,
221,-0.06,-0.005,
222,-0.075,-0.03,
223,-0.065,-0.005,
224,-0.06,-0.02,
225,-0.055,-0.015,
226,-0.01,-0.035,
227,0.01,-0.03,
228,0.005,-0.025,
229,-0.01,-0.02,
230,-0.005,-0.035,
231,-0.015,-0.05,
232,-0.01,-0.075,
233,-0.02,-0.12,
234,-0.005,-0.15,
235,0.01,-0.15,
236,-0.01,-0.145,
237,-0.01,-0.16,
238,0.0,-0.18,
239,-0.025,-0.21,
240,-0.045,-0.19,
241,-0.055,-0.175,
242,-0.025,-0.185,
243,0.0,-0.205,
244,0.01,-0.225,
245,0.0,-0.235,
246,-0.035,-0.24,
247,-0.045,-0.235,
248,-0.075,-0.2,
249,-0.13,-0.195,
250,-0.135,-0.195,
251,-0.11,-0.215,
252,-0.105,-0.205,
253,-0.095,-0.19,
254,-0.13,-0.165,
255,-0.175,-0.17,
256,-0.2,-0.185,
257,-0.22,-0.22,
258,-0.245,-0.205,
259,-0.24,-0.17,
260,-0.225,-0.145,
261,-0.23,-0.135,
262,-0.235,-0.135,
263,-0.245,-0.145,
264,-0.265,-0.135,
265,-0.29,-0.13,
266,-0.31,-0.105,
267,-0.305,-0.105,
268,-0.32,-0.11,
269,-0.31,-0.095,
270,-0.295,-0.075,
271,-0.275,-0.045,
272,-0.29,-0.025,
273,-0.32,-0.03,
274,-0.35,-0.06,
275,-0.35,-0.075,
276,-0.355,-0.06,
277,-0.34,-0.035,
278,-0.345,-0.005,
279,-0.32,-0.005,
280,-0.34,-0.01,
281,-0.375,-0.015,
282,-0.375,-0.005,
283,-0.375,0.03,
284,-0.345,0.04,
285,-0.34,0.04,
286,-0.34,0.035,
287,-0.365,0.025,
288,-0.38,0.03,
289,-0.405,0.06,
290,-0.415,0.075,
291,-0.41,0.09,
292,-0.41,0.065,
293,-0.435,0.035,
294,-0.435,0.04,
295,-0.415,0.08,
296,-0.4,0.105,
297,-0.385,0.12,
298,-0.4,0.105,
299,-0.42,0.065,
300,-0.45,0.03,
301,-0.455,0.05,
302,-0.465,0.075,
303,-0.46,0.095,
304,-0.45,0.07,
305,-0.425,0.045,
306,-0.415,0.055,
307,-0.4,0.07,
308,-0.395,0.08,
309,-0.41,0.075,
310,-0.425,0.04,
311,-0.45,0.02,
312,-0.455,0.025,
313,-0.44,0.025,
314,-0.425,0.02,
315,-0.415,0.02,
316,-0.4,0.01,
317,-0.43,0.015,
318,-0.43,0.025,
319,-0.43,0.035,
320,-0.42,0.04,
321,-0.42,0.035,
322,-0.42,0.0,
323,-0.395,-0.025,
324,-0.385,-0.005,
325,-0.345,-0.005,
326,-0.32,-0.015,
327,-0.31,-0.03,
328,-0.31,-0.02,
329,-0.315,-0.035,
330,-0.325,-0.005,
331,-0.345,0.03,
332,-0.34,0.07,
333,-0.315,0.07,
334,-0.28,0.075,
335,-0.305,0.075,
336,-0.33,0.08,
337,-0.385,0.095,
338,-0.395,0.115,
339,-0.385,0.11,
340,-0.36,0.06,
341,-0.355,-0.015,
342,-0.37,-0.045,
343,-0.375,-0.065,
344,-0.395,-0.09,
345,-0.39,-0.115,
346,-0.39,-0.155,
347,-0.405,-0.185,
348,-0.415,-0.175,
349,-0.435,-0.155,
350,-0.42,-0.15,
351,-0.44,-0.155,
352,-0.47,-0.18,
353,-0.505,-0.195,
354,-0.53,-0.195,
355,-0.505,-0.175,
356,-0.48,-0.17,
357,-0.49,-0.175,
358,-0.49,-0.19,
359,-0.51,-0.22,
360,-0.52,-0.225,
361,-0.51,-0.23,
362,-0.5,-0.2,
363,-0.505,-0.19,
364,-0.515,-0.19,
365,-0.53,-0.215,
366,-0.52,-0.225,
367,-0.51,-0.225,
368,-0.515,-0.215,
369,-0.505,-0.22,
370,-0.505,-0.24,
371,-0.525,-0.28,
372,-0.55,-0.29,
373,-0.555,-0.29,
374,-0.555,-0.28,
375,-0.535,-0.285,
376,-0.555,-0.3,
377,-0.55,-0.28,
378,-0.55,-0.275,
379,-0.555,-0.26,
380,-0.55,-0.245,
381,-0.54,-0.25,
382,-0.53,-0.255,
383,-0.545,-0.27,
384,-0.525,-0.265,
385,-0.515,-0.245,
386,-0.485,-0.24,
387,-0.475,-0.205,
388,-0.45,-0.18,
389,-0.455,-0.155,
390,-0.465,-0.14,
391,-0.47,-0.13,
392,-0.46,-0.13,
393,-0.465,-0.115,
394,-0.47,-0.09,
395,-0.47,-0.085,
396,-0.475,-0.075,
397,-0.46,-0.055,
398,-0.43,-0.04,
399,-0.425,-0.04,
400,-0.42,-0.055,
401,-0.425,-0.075,
402,-0.45,-0.085,
403,-0.445,-0.07,
404,-0.43,-0.07,
405,-0.405,-0.065,
406,-0.39,-0.065,
407,-0.375,-0.06,
408,-0.38,-0.065,
409,-0.4,-0.025,
410,-0.425,-0.02,
411,-0.45,-0.05,
412,-0.46,-0.085,
413,-0.485,-0.1,
414,-0.52,-0.05,
415,-0.555,-0.065,
416,-0.585,-0.235,
417,-0.61,-0.59,
418,-0.59,-1.03,
419,-0.56,-1.47,
420,-0.53,-1.925,
421,-0.48,-2.345,
422,-0.45,-2.675,
423,-0.415,-2.895,
424,-0.385,-3.0,
425,-0.385,-3.025,
426,-0.39,-2.985,
427,-0.33,-2.82,
428,-0.245,-2.495,
429,-0.085,-1.93,
430,0.125,-1.295,
431,0.275,-0.66,
432,0.33,-0.125,
433,0.315,0.07,N
434,0.255,0.155,
435,0.16,0.175,
436,0.03,0.15,
437,-0.09,0.13,
438,-0.175,0.16,
439,-0.225,0.2,
440,-0.265,0.225,
441,-0.29,0.235,
442,-0.32,0.225,
443,-0.33,0.215,
444,-0.355,0.22,
445,-0.355,0.24,
446,-0.345,0.255,
447,-0.325,0.24,
448,-0.32,0.255,
449,-0.335,0.26,
450,-0.305,0.275,
451,-0.25,0.29,
452,-0.23,0.3,
453,-0.25,0.3,
454,-0.28,0.3,
455,-0.295,0.275,
456,-0.305,0.265,
457,-0.3,0.265,
458,-0.28,0.28,
459,-0.28,0.29,
460,-0.29,0.295,
461,-0.275,0.32,
462,-0.28,0.325,
463,-0.27,0.33,
464,-0.25,0.305,
465,-0.245,0.29,
466,-0.255,0.275,
467,-0.26,0.28,
468,-0.26,0.305,
469,-0.245,0.315,
470,-0.235,0.33,
471,-0.215,0.325,
472,-0.21,0.315,
473,-0.195,0.305,
474,-0.215,0.29,
475,-0.23,0.285,
476,-0.215,0.28,
477,-0.2,0.29,
478,-0.205,0.295,
479,-0.185,0.29,
480,-0.18,0.3,
481,-0.17,0.32,
482,-0.165,0.315,
483,-0.16,0.325,
484,-0.17,0.295,
485,-0.17,0.275,
486,-0.17,0.26,
487,-0.135,0.28,
488,-0.11,0.29,
489,-0.12,0.275,
490,-0.13,0.25,
491,-0.135,0.22,
492,-0.125,0.205,
493,-0.105,0.22,
494,-0.095,0.225,
495,-0.08,0.21,
496,-0.09,0.21,
497,-0.09,0.205,
498,-0.06,0.21,
499,-0.04,0.215,
500,-0.02,0.2,
501,-0.035,0.16,
502,-0.06,0.105,
503,-0.06,0.075,
504,-0.06,0.05,
505,-0.05,0.045,
506,-0.025,0.045,
507,-0.015,0.05,
508,-0.055,0.04,
509,-0.05,0.04,
510,-0.04,0.02,
511,-0.005,0.02,
512,0.04,0.01,
513,0.055,-0.005,
514,0.06,-0.04,
515,0.055,-0.06,
516,0.04,-0.06,
517,0.02,-0.065,
518,0.01,-0.06,
519,0.01,-0.065,
520,0.01,-0.11,
521,-0.005,-0.135,
522,-0.02,-0.14,
523,-0.02,-0.14,
524,-0.015,-0.14,
525,-0.015,-0.15,
526,-0.03,-0.165,
527,-0.065,-0.16,
528,-0.09,-0.17,
529,-0.085,-0.145,
530,-0.06,-0.145,
531,-0.055,-0.14,
532,-0.075,-0.145,
533,-0.1,-0.145,
534,-0.125,-0.135,
535,-0.135,-0.13,
536,-0.14,-0.11,
537,-0.175,-0.1,
538,-0.17,-0.11,
539,-0.2,-0.11,
540,-0.18,-0.11,
541,-0.19,-0.09,
542,-0.205,-0.1,
543,-0.23,-0.1,
544,-0.24,-0.11,
545,-0.265,-0.105,
546,-0.285,-0.07,
547,-0.28,-0.055,
548,-0.29,-0.06,
549,-0.29,-0.075,
550,-0.295,-0.085,
551,-0.285,-0.045,
552,-0.275,0.005,
553,-0.265,0.03,
554,-0.275,0.045,
555,-0.25,0.03,
556,-0.255,0.01,
557,-0.275,0.01,
558,-0.305,0.045,
559,-0.305,0.07,
560,-0.27,0.08,
561,-0.255,0.07,
562,-0.245,0.05,
563,-0.26,0.055,
564,-0.29,0.075,
565,-0.305,0.09,
566,-0.31,0.095,
567,-0.315,0.105,
568,-0.315,0.095,
569,-0.315,0.08,
570,-0.315,0.08,
571,-0.335,0.11,
572,-0.355,0.14,
573,-0.345,0.155,
574,-0.355,0.145,
575,-0.36,0.125,
576,-0.375,0.105,
577,-0.38,0.115,
578,-0.36,0.115,
579,-0.35,0.115,
580,-0.36,0.12,
581,-0.375,0.115,
582,-0.395,0.105,
583,-0.385,0.1,
584,-0.39,0.1,
585,-0.38,0.095,
586,-0.375,0.085,
587,-0.375,0.065,
588,-0.39,0.055,
589,-0.39,0.07,
590,-0.395,0.08,
591,-0.385,0.07,
592,-0.385,0.055,
593,-0.385,0.025,
594,-0.395,0.03,
595,-0.4,0.035,
596,-0.385,0.025,
597,-0.385,0.025,
598,-0.385,0.005,
599,-0.41,0.01,
600,-0.41,0.02,
601,-0.38,0.04,
602,-0.37,0.05,
603,-0.36,0.055,
604,-0.365,0.025,
605,-0.38,0.01,
606,-0.385,0.005,
607,-0.375,0.025,
608,-0.37,0.045,
609,-0.345,0.045,
610,-0.35,0.045,
611,-0.355,0.035,
612,-0.34,0.05,
613,-0.315,0.06,
614,-0.305,0.06,
615,-0.295,0.065,
616,-0.29,0.05,
617,-0.29,0.04,
618,-0.28,0.035,
619,-0.255,0.045,
620,-0.25,0.06,
621,-0.24,0.065,
622,-0.225,0.065,
623,-0.23,0.065,
624,-0.245,0.065,
625,-0.235,0.06,
626,-0.225,0.04,
627,-0.23,-0.005,
628,-0.245,-0.07,
629,-0.275,-0.125,
630,-0.295,-0.135,
631,-0.275,-0.145,
632,-0.265,-0.16,
633,-0.27,-0.18,
634,-0.3,-0.2,
635,-0.345,-0.19,
636,-0.365,-0.205,
637,-0.375,-0.2,
638,-0.39,-0.17,
639,-0.395,-0.17,
640,-0.41,-0.16,
641,-0.395,-0.16,
642,-0.39,-0.17,
643,-0.375,-0.18,
644,-0.38,-0.165,
645,-0.375,-0.17,
646,-0.395,-0.2,
647,-0.42,-0.21,
648,-0.435,-0.215,
649,-0.415,-0.215,
650,-0.4,-0.195,
651,-0.4,-0.215,
652,-0.41,-0.245,
653,-0.43,-0.265,
654,-0.445,-0.26,
655,-0.425,-0.245,
656,-0.45,-0.245,
657,-0.45,-0.24,
658,-0.435,-0.25,
659,-0.425,-0.265,
660,-0.445,-0.275,
661,-0.445,-0.275,
662,-0.43,-0.285,
663,-0.44,-0.285,
664,-0.455,-0.295,
665,-0.475,-0.28,
666,-0.495,-0.29,
667,-0.49,-0.26,
668,-0.495,-0.26,
669,-0.49,-0.265,
670,-0.47,-0.26,
671,-0.45,-0.26,
672,-0.46,-0.245,
673,-0.43,-0.225,
674,-0.395,-0.22,
675,-0.37,-0.205,
676,-0.365,-0.205,
677,-0.37,-0.195,
678,-0.38,-0.18,
679,-0.37,-0.14,
680,-0.36,-0.115,
681,-0.35,-0.1,
682,-0.35,-0.1,
683,-0.355,-0.085,
684,-0.35,-0.09,
685,-0.34,-0.085,
686,-0.34,-0.075,
687,-0.345,-0.07,
688,-0.36,-0.085,
689,-0.36,-0.08,
690,-0.335,-0.075,
691,-0.32,-0.06,
692,-0.305,-0.05,
693,-0.295,-0.045,
694,-0.295,-0.06,
695,-0.31,-0.075,
696,-0.32,-0.1,
697,-0.33,-0.1,
698,-0.32,-0.095,
699,-0.32,-0.07,
700,-0.335,-0.07,
701,-0.34,-0.065,
702,-0.35,-0.07,
703,-0.355,-0.085,
704,-0.375,-0.08,
705,-0.405,-0.065,
706,-0.455,-0.065,
707,-0.52,-0.195,
708,-0.55,-0.475,
709,-0.525,-0.745,
710,-0.485,-0.985,
711,-0.45,-1.255,
712,-0.415,-1.56,
713,-0.36,-1.915,
714,-0.305,-2.285,
715,-0.27,-2.6,
716,-0.215,-2.825,
717,-0.205,-2.94,
718,-0.195,-2.985,
719,-0.195,-2.945,
720,-0.145,-2.795,
721,-0.05,-2.5,
722,0.145,-1.985,
723,0.335,-1.35,
724,0.48,-0.715,
725,0.545,-0.305,
726,0.495,-0.085,N
727,0.445,0.025,
728,0.375,0.105,
729,0.275,0.12,
730,0.135,0.105,
731,0.0,0.085,
732,-0.08,0.1,
733,-0.145,0.14,
734,-0.175,0.165,
735,-0.185,0.19,
736,-0.215,0.195,
737,-0.225,0.19,
738,-0.25,0.185,
739,-0.26,0.185,
740,-0.255,0.21,
741,-0.25,0.23,
742,-0.235,0.22,
743,-0.235,0.2,
744,-0.235,0.22,
745,-0.235,0.25,
746,-0.225,0.25,
747,-0.215,0.24,
748,-0.225,0.225,
749,-0.24,0.21,
750,-0.24,0.205,
751,-0.235,0.24,
752,-0.215,0.27,
753,-0.21,0.3,
754,-0.195,0.26,
755,-0.19,0.23,
756,-0.21,0.225,
757,-0.195,0.215,
758,-0.21,0.23,
759,-0.205,0.245,
760,-0.205,0.235,
761,-0.21,0.23,
762,-0.24,0.245,
763,-0.23,0.255,
764,-0.22,0.265,
765,-0.21,0.245,
766,-0.205,0.24,
767,-0.2,0.215,
768,-0.19,0.2,
769,-0.175,0.22,
770,-0.17,0.24,
771,-0.175,0.22,
772,-0.195,0.215,
773,-0.205,0.225,
774,-0.225,0.235,
775,-0.21,0.25,
776,-0.17,0.265,
777,-0.14,0.265,
778,-0.125,0.26,
779,-0.135,0.245,
780,-0.135,0.24,
781,-0.145,0.255,
782,-0.125,0.265,
783,-0.13,0.265,
784,-0.135,0.26,
785,-0.125,0.23,
786,-0.105,0.21,
787,-0.115,0.225,
788,-0.105,0.245,
789,-0.1,0.26,
790,-0.1,0.245,
791,-0.11,0.23,
792,-0.11,0.205,
793,-0.095,0.22,
794,-0.09,0.22,
795,-0.055,0.215,
796,-0.04,0.195,
797,-0.045,0.185,
798,-0.045,0.175,
799,-0.055,0.165,
800,-0.035,0.16,
801,-0.02,0.14,
802,-0.035,0.11,
803,-0.045,0.1,
804,-0.065,0.075,
805,-0.05,0.105,
806,-0.04,0.1,
807,-0.05,0.075,
808,-0.06,0.065,
809,-0.055,0.035,
810,-0.03,0.025,
811,-0.005,0.015,
812,0.015,0.015,
813,0.005,0.0,
814,0.02,-0.035,
815,0.0,-0.06,
816,0.005,-0.07,
817,0.005,-0.065,
818,0.025,-0.065,
819,0.035,-0.065,
820,0.04,-0.08,
821,0.04,-0.1,
822,0.03,-0.125,
823,0.045,-0.13,
824,0.045,-0.16,
825,0.035,-0.19,
826,0.03,-0.195,
827,0.005,-0.185,
828,-0.015,-0.18,
829,0.0,-0.17,
830,0.005,-0.15,
831,0.015,-0.17,
832,0.025,-0.19,
833,0.01,-0.215,
834,0.015,-0.225,
835,0.02,-0.215,
836,0.01,-0.21,
837,-0.005,-0.215,
838,-0.025,-0.225,
839,-0.035,-0.23,
840,-0.06,-0.23,
841,-0.045,-0.23,
842,-0.03,-0.21,
843,-0.01,-0.21,
844,-0.05,-0.21,
845,-0.04,-0.22,
846,-0.065,-0.225,
847,-0.1,-0.22,
848,-0.115,-0.205,
849,-0.145,-0.225,
850,-0.15,-0.21,
851,-0.175,-0.2,
852,-0.18,-0.185,
853,-0.165,-0.165,
854,-0.14,-0.12,
855,-0.12,-0.125,
856,-0.11,-0.12,
857,-0.12,-0.14,
858,-0.14,-0.145,
859,-0.155,-0.135,
860,-0.16,-0.115,
861,-0.185,-0.125,
862,-0.19,-0.125,
863,-0.21,-0.135,
864,-0.22,-0.13,
865,-0.215,-0.12,
866,-0.205,-0.095,
867,-0.215,-0.1,
868,-0.225,-0.09,
869,-0.235,-0.085,
870,-0.255,-0.09,
871,-0.25,-0.085,
872,-0.235,-0.07,
873,-0.24,-0.07,
874,-0.235,-0.07,
875,-0.235,-0.075,
876,-0.24,-0.07,
877,-0.23,-0.03,
878,-0.24,-0.03,
879,-0.24,-0.03,
880,-0.265,-0.03,
881,-0.27,-0.035,
882,-0.27,-0.02,
883,-0.27,-0.005,
884,-0.265,0.02,
885,-0.265,0.0,
886,-0.26,0.0,
887,-0.275,0.01,
888,-0.285,0.015,
889,-0.285,0.025,
890,-0.28,0.045,
891,-0.295,0.03,
892,-0.295,0.035,
893,-0.32,0.04,
894,-0.345,0.035,
895,-0.33,0.055,
896,-0.325,0.075,
897,-0.305,0.065,
898,-0.3,0.05,
899,-0.315,0.03,
900,-0.335,0.03,
901,-0.33,0.05,
902,-0.305,0.045,
903,-0.31,0.07,
904,-0.34,0.06,
905,-0.355,0.07,
906,-0.355,0.065,
907,-0.33,0.075,
908,-0.315,0.08,
909,-0.325,0.075,
910,-0.305,0.07,
911,-0.305,0.055,
912,-0.32,0.05,
913,-0.325,0.05,
914,-0.31,0.06,
915,-0.31,0.05,
916,-0.325,0.04,
917,-0.35,0.02,
918,-0.365,0.015,
919,-0.36,0.025,
920,-0.34,0.045,
921,-0.305,0.05,
922,-0.3,0.035,
923,-0.295,0.035,
924,-0.3,0.01,
925,-0.305,0.015,
926,-0.305,0.025,
927,-0.31,0.02,
928,-0.32,-0.005,
929,-0.325,-0.015,
930,-0.34,-0.02,
931,-0.32,0.005,
932,-0.29,0.005,
933,-0.285,0.015,
934,-0.295,-0.005,
935,-0.29,-0.01,
936,-0.305,-0.01,
937,-0.305,-0.015,
938,-0.29,-0.01,
939,-0.3,-0.005,
940,-0.3,-0.005,
941,-0.29,0.0,
942,-0.27,0.0,
943,-0.245,0.02,
944,-0.23,0.045,
945,-0.2,0.04,
946,-0.2,0.005,
947,-0.205,-0.005,
948,-0.22,-0.005,
949,-0.195,0.015,
950,-0.185,0.035,
951,-0.16,0.065,
952,-0.145,0.065,
953,-0.14,0.09,
954,-0.135,0.09,
955,-0.135,0.095,
956,-0.135,0.07,
957,-0.14,0.03,
958,-0.16,0.0,
959,-0.19,-0.045,
960,-0.2,-0.09,
961,-0.2,-0.115,
962,-0.2,-0.135,
963,-0.2,-0.145,
964,-0.195,-0.16,
965,-0.215,-0.185,
966,-0.24,-0.21,
967,-0.24,-0.2,
968,-0.23,-0.18,
969,-0.245,-0.19,
970,-0.265,-0.21,
971,-0.3,-0.21,
972,-0.32,-0.195,
973,-0.315,-0.165,
974,-0.295,-0.15,
975,-0.27,-0.16,
976,-0.265,-0.175,
977,-0.265,-0.185,
978,-0.275,-0.185,
979,-0.27,-0.17,
980,-0.275,-0.185,
981,-0.295,-0.195,
982,-0.305,-0.22,
983,-0.335,-0.24,
984,-0.345,-0.24,
985,-0.325,-0.225,
986,-0.31,-0.22,
987,-0.295,-0.22,
988,-0.3,-0.23,
989,-0.335,-0.245,
990,-0.335,-0.265,
991,-0.35,-0.26,
992,-0.35,-0.265,
993,-0.37,-0.29,
994,-0.375,-0.315,
995,-0.37,-0.31,
996,-0.375,-0.31,
997,-0.355,-0.295,
998,-0.34,-0.29,
999,-0.38,-0.325,
1000,-0.405,-0.32,
1001,-0.405,-0.32,
1002,-0.415,-0.275,
1003,-0.38,-0.255,
1004,-0.355,-0.245,
1005,-0.345,-0.245,
1006,-0.33,-0.245,
1007,-0.3,-0.235,
1008,-0.29,-0.225,
1009,-0.285,-0.2,
1010,-0.29,-0.19,
1011,-0.295,-0.18,
1012,-0.295,-0.19,
1013,-0.305,-0.185,
1014,-0.275,-0.155,
1015,-0.245,-0.11,
1016,-0.225,-0.11,
1017,-0.205,-0.09,
1018,-0.225,-0.11,
1019,-0.23,-0.11,
1020,-0.23,-0.1,
1021,-0.24,-0.085,
1022,-0.245,-0.075,
1023,-0.24,-0.095,
1024,-0.255,-0.1,
1025,-0.26,-0.115,
1026,-0.25,-0.105,
1027,-0.235,-0.085,
1028,-0.215,-0.085,
1029,-0.21,-0.085,
1030,-0.225,-0.085,
1031,-0.24,-0.1,
1032,-0.245,-0.105,
1033,-0.24,-0.095,
1034,-0.225,-0.09,
1035,-0.23,-0.09,
1036,-0.275,-0.07,
1037,-0.28,-0.05,
1038,-0.275,-0.035,
1039,-0.265,-0.025,
1040,-0.3,-0.04,
1041,-0.35,-0.045,
1042,-0.405,-0.09,
1043,-0.455,-0.255,
1044,-0.45,-0.505,
1045,-0.415,-0.825,
1046,-0.35,-1.15,
1047,-0.305,-1.52,
1048,-0.27,-1.93,
1049,-0.24,-2.35,
1050,-0.195,-2.655,
1051,-0.17,-2.855,
1052,-0.155,-2.975,
1053,-0.15,-3.025,
1054,-0.13,-3.005,
1055,-0.1,-2.935,
1056,-0.01,-2.71,
1057,0.14,-2.285,
1058,0.335,-1.675,
1059,0.49,-1.04,
1060,0.565,-0.49,
1061,0.545,-0.18,N
1062,0.485,-0.04,
1063,0.425,0.05,
1064,0.33,0.09,
1065,0.21,0.085,
1066,0.1,0.075,
1067,0.005,0.1,
1068,-0.045,0.145,
1069,-0.095,0.165,
1070,-0.145,0.175,
1071,-0.16,0.165,
1072,-0.19,0.155,
1073,-0.21,0.145,
1074,-0.225,0.165,
1075,-0.215,0.175,
1076,-0.175,0.185,
1077,-0.165,0.185,
1078,-0.16,0.195,
1079,-0.175,0.185,
1080,-0.16,0.19,
1081,-0.155,0.2,
1082,-0.155,0.2,
1083,-0.18,0.2,
1084,-0.19,0.18,
1085,-0.205,0.19,
1086,-0.185,0.205,
1087,-0.16,0.215,
1088,-0.145,0.245,
1089,-0.14,0.22,
1090,-0.155,0.215,
1091,-0.16,0.195,
1092,-0.165,0.205,
1093,-0.175,0.235,
1094,-0.17,0.235,
1095,-0.175,0.21,
1096,-0.16,0.195,
1097,-0.16,0.195,
1098,-0.14,0.22,
1099,-0.135,0.235,
1100,-0.125,0.24,
1101,-0.12,0.235,
1102,-0.14,0.225,
1103,-0.16,0.21,
1104,-0.16,0.215,
1105,-0.16,0.22,
1106,-0.135,0.21,
1107,-0.145,0.195,
1108,-0.155,0.205,
1109,-0.16,0.205,
1110,-0.15,0.23,
1111,-0.12,0.255,
1112,-0.1,0.275,
1113,-0.08,0.25,
1114,-0.09,0.22,
1115,-0.1,0.21,
1116,-0.095,0.23,
1117,-0.085,0.23,
1118,-0.08,0.225,
1119,-0.08,0.205,
1120,-0.085,0.215,
1121,-0.105,0.205,
1122,-0.095,0.225,
1123,-0.085,0.21,
1124,-0.075,0.195,
1125,-0.085,0.165,
1126,-0.1,0.15,
1127,-0.11,0.145,
1128,-0.095,0.15,
1129,-0.075,0.155,
1130,-0.06,0.13,
1131,-0.055,0.12,
1132,-0.07,0.095,
1133,-0.07,0.1,
1134,-0.065,0.12,
1135,-0.03,0.105,
1136,-0.025,0.09,
1137,-0.005,0.07,
1138,-0.005,0.065,
1139,-0.01,0.045,
1140,-0.03,0.05,
1141,-0.005,0.04,
1142,0.01,0.025,
1143,0.01,-0.01,
1144,0.005,-0.065,
1145,-0.005,-0.07,
1146,-0.005,-0.08,
1147,0.015,-0.095,
1148,0.03,-0.105,
1149,0.02,-0.13,
1150,0.0,-0.145,
1151,-0.005,-0.145,
1152,-0.02,-0.11,
1153,-0.01,-0.1,
1154,-0.015,-0.135,
1155,-0.02,-0.19,
1156,-0.02,-0.23,
1157,-0.015,-0.225,
1158,-0.015,-0.22,
1159,-0.01,-0.21,
1160,0.0,-0.22,
1161,-0.02,-0.235,
1162,-0.055,-0.245,
1163,-0.065,-0.255,
1164,-0.05,-0.245,
1165,-0.04,-0.245,
1166,-0.055,-0.245,
1167,-0.045,-0.215,
1168,-0.06,-0.22,
1169,-0.08,-0.2,
1170,-0.08,-0.195,
1171,-0.08,-0.185,
1172,-0.08,-0.18,
1173,-0.105,-0.175,
1174,-0.145,-0.185,
1175,-0.17,-0.2,
1176,-0.165,-0.19,
1177,-0.19,-0.185,
1178,-0.195,-0.17,
1179,-0.19,-0.19,
1180,-0.22,-0.185,
1181,-0.225,-0.175,
1182,-0.23,-0.145,
1183,-0.23,-0.13,
1184,-0.235,-0.14,
1185,-0.23,-0.145,
1186,-0.245,-0.145,
1187,-0.265,-0.15,
1188,-0.265,-0.12,
1189,-0.26,-0.08,
1190,-0.265,-0.065,
1191,-0.285,-0.075,
1192,-0.305,-0.1,
1193,-0.315,-0.11,
1194,-0.305,-0.105,
1195,-0.3,-0.1,
1196,-0.275,-0.095,
1197,-0.28,-0.075,
1198,-0.295,-0.08,
1199,-0.335,-0.08,
1200,-0.31,-0.05,
1201,-0.305,-0.025,
1202,-0.3,-0.005,
1203,-0.305,-0.02,
1204,-0.32,-0.025,
1205,-0.32,-0.05,
1206,-0.33,-0.045,
1207,-0.335,-0.02,
1208,-0.31,0.02,
1209,-0.315,0.035,
1210,-0.325,0.03,
1211,-0.35,0.04,
1212,-0.36,0.055,
1213,-0.35,0.045,
1214,-0.345,0.04,
1215,-0.35,0.025,
1216,-0.36,0.025,
1217,-0.36,0.02,
1218,-0.35,0.055,
1219,-0.36,0.095,
1220,-0.365,0.1,
1221,-0.39,0.075,
1222,-0.395,0.055,
1223,-0.4,0.035,
1224,-0.395,0.045,
1225,-0.395,0.04,
1226,-0.38,0.055,
1227,-0.4,0.055,
1228,-0.4,0.065,
1229,-0.415,0.06,
1230,-0.415,0.065,
1231,-0.405,0.085,
1232,-0.385,0.06,
1233,-0.4,0.02,
1234,-0.405,-0.005,
1235,-0.405,0.005,
1236,-0.395,0.035,
1237,-0.41,0.045,
1238,-0.395,0.025,
1239,-0.385,0.0,
1240,-0.39,-0.02,
1241,-0.405,-0.03,
1242,-0.4,-0.025,
1243,-0.405,-0.055,
1244,-0.405,-0.055,
1245,-0.415,-0.035,
1246,-0.42,-0.025,
1247,-0.42,-0.02,
1248,-0.41,0.005,
1249,-0.4,0.005,
1250,-0.385,0.01,
1251,-0.395,-0.015,
1252,-0.41,-0.04,
1253,-0.42,-0.035,
1254,-0.39,-0.005,
1255,-0.35,0.02,
1256,-0.33,0.035,
1257,-0.31,0.045,
1258,-0.305,0.045,
1259,-0.3,0.035,
1260,-0.29,0.035,
1261,-0.29,0.02,
1262,-0.265,0.02,
1263,-0.245,0.01,
1264,-0.245,0.015,
1265,-0.255,0.035,
1266,-0.25,0.07,
1267,-0.255,0.075,
1268,-0.245,0.02,
1269,-0.27,-0.06,
1270,-0.295,-0.135,
1271,-0.315,-0.195,
1272,-0.31,-0.205,
1273,-0.315,-0.18,
1274,-0.31,-0.18,
1275,-0.325,-0.215,
1276,-0.35,-0.225,
1277,-0.385,-0.21,
1278,-0.39,-0.18,
1279,-0.41,-0.155,
1280,-0.41,-0.165,
1281,-0.415,-0.19,
1282,-0.42,-0.2,
1283,-0.43,-0.195,
1284,-0.435,-0.2,
1285,-0.445,-0.205,
1286,-0.415,-0.215,
1287,-0.41,-0.225,
1288,-0.42,-0.25,
1289,-0.45,-0.25,
1290,-0.475,-0.255,
1291,-0.47,-0.24,
1292,-0.44,-0.25,
1293,-0.42,-0.255,
1294,-0.43,-0.255,
1295,-0.46,-0.255,
1296,-0.465,-0.255,
1297,-0.46,-0.26,
1298,-0.46,-0.3,
1299,-0.465,-0.32,
1300,-0.49,-0.33,
1301,-0.505,-0.325,
1302,-0.495,-0.31,
1303,-0.47,-0.305,
1304,-0.47,-0.285,
1305,-0.485,-0.285,
1306,-0.5,-0.29,
1307,-0.515,-0.29,
1308,-0.505,-0.29,
1309,-0.515,-0.285,
1310,-0.51,-0.305,
1311,-0.515,-0.31,
1312,-0.505,-0.34,
1313,-0.5,-0.32,
1314,-0.48,-0.27,
1315,-0.455,-0.23,
1316,-0.41,-0.2,
1317,-0.39,-0.185,
1318,-0.37,-0.175,
1319,-0.375,-0.19,
1320,-0.39,-0.16,
1321,-0.41,-0.125,
1322,-0.39,-0.105,
1323,-0.38,-0.1,
1324,-0.37,-0.1,
1325,-0.38,-0.105,
1326,-0.37,-0.11,
1327,-0.365,-0.105,
1328,-0.355,-0.085,
1329,-0.375,-0.095,
1330,-0.375,-0.11,
1331,-0.385,-0.11,
1332,-0.36,-0.11,
1333,-0.335,-0.105,
1334,-0.305,-0.095,
1335,-0.285,-0.105,
1336,-0.295,-0.105,
1337,-0.325,-0.11,
1338,-0.335,-0.11,
1339,-0.305,-0.09,
1340,-0.3,-0.085,
1341,-0.325,-0.085,
1342,-0.35,-0.08,
1343,-0.38,-0.06,
1344,-0.37,-0.05,
1345,-0.38,-0.055,
1346,-0.44,-0.045,
1347,-0.485,-0.035,
1348,-0.54,-0.08,
1349,-0.59,-0.265,
1350,-0.595,-0.585,
1351,-0.55,-0.93,
1352,-0.5,-1.335,
1353,-0.475,-1.79,
1354,-0.44,-2.24,
1355,-0.425,-2.655,
1356,-0.42,-2.92,
1357,-0.375,-3.07,
1358,-0.325,-3.12,
1359,-0.28,-3.135,
1360,-0.205,-3.06,
1361,-0.08,-2.835,
1362,0.1,-2.365,
1363,0.315,-1.73,
1364,0.465,-1.095,
1365,0.505,-0.46,
1366,0.445,-0.02,N
1367,0.36,0.11,
1368,0.305,0.16,
1369,0.225,0.15,
1370,0.145,0.14,
1371,0.05,0.115,
1372,-0.055,0.15,
1373,-0.15,0.165,
1374,-0.195,0.18,
1375,-0.21,0.195,
1376,-0.225,0.225,
1377,-0.24,0.225,
1378,-0.245,0.22,
1379,-0.23,0.22,
1380,-0.205,0.235,
1381,-0.205,0.26,
1382,-0.205,0.245,
1383,-0.22,0.22,
1384,-0.21,0.195,
1385,-0.235,0.2,
1386,-0.245,0.235,
1387,-0.23,0.27,
1388,-0.2,0.25,
1389,-0.19,0.205,
1390,-0.175,0.19,
1391,-0.205,0.185,
1392,-0.215,0.225,
1393,-0.235,0.245,
1394,-0.235,0.27,
1395,-0.23,0.24,
1396,-0.205,0.195,
1397,-0.21,0.18,
1398,-0.195,0.165,
1399,-0.2,0.18,
1400,-0.18,0.18,
1401,-0.175,0.16,
1402,-0.17,0.155,
1403,-0.185,0.16,
1404,-0.16,0.185,
1405,-0.13,0.21,
1406,-0.115,0.235,
1407,-0.1,0.235,
1408,-0.11,0.2,
1409,-0.12,0.17,
1410,-0.15,0.18,
1411,-0.145,0.235,
1412,-0.13,0.26,
1413,-0.14,0.28,
1414,-0.14,0.255,
1415,-0.13,0.23,
1416,-0.12,0.25,
1417,-0.12,0.25,
1418,-0.11,0.27,
1419,-0.12,0.275,
1420,-0.135,0.255,
1421,-0.14,0.25,
1422,-0.125,0.25,
1423,-0.11,0.26,
1424,-0.095,0.27,
1425,-0.08,0.26,
1426,-0.08,0.235,
1427,-0.065,0.22,
1428,-0.04,0.22,
1429,-0.015,0.215,
1430,-0.005,0.205,
1431,-0.005,0.18,
1432,-0.025,0.155,
1433,-0.01,0.135,
1434,-0.005,0.12,
1435,-0.015,0.13,
1436,-0.015,0.13,
1437,-0.005,0.08,
1438,0.0,0.045,
1439,-0.01,0.01,
1440,-0.015,-0.01,
1441,0.015,-0.035,
1442,0.05,-0.035,
1443,0.035,-0.025,
1444,0.035,-0.05,
1445,0.02,-0.105,
1446,0.03,-0.125,
1447,0.03,-0.14,
1448,-0.005,-0.125,
1449,-0.03,-0.13,
1450,-0.05,-0.125,
1451,-0.03,-0.145,
1452,0.01,-0.15,
1453,0.055,-0.145,
1454,0.07,-0.14,
1455,0.075,-0.195,
1456,0.085,-0.275,
1457,0.08,-0.315,
1458,0.045,-0.28,
1459,-0.005,-0.21,
1460,-0.04,-0.185,
1461,-0.045,-0.2,
1462,-0.035,-0.23,
1463,-0.03,-0.225,
1464,-0.045,-0.24,
1465,-0.05,-0.255,
1466,-0.075,-0.27,
1467,-0.08,-0.265,
1468,-0.1,-0.235,
1469,-0.12,-0.22,
1470,-0.105,-0.17,
1471,-0.1,-0.12,
1472,-0.075,-0.14,
1473,-0.045,-0.195,
1474,-0.055,-0.25,
1475,-0.105,-0.24,
1476,-0.19,-0.18,
1477,-0.25,-0.14,
1478,-0.255,-0.175,
1479,-0.215,-0.2,
1480,-0.21,-0.2,
1481,-0.25,-0.185,
1482,-0.265,-0.145,
1483,-0.235,-0.135,
1484,-0.175,-0.135,
1485,-0.185,-0.15,
1486,-0.215,-0.17,
1487,-0.27,-0.15,
1488,-0.295,-0.1,
1489,-0.29,-0.08,
1490,-0.255,-0.06,
1491,-0.245,-0.05,
1492,-0.25,-0.11,
1493,-0.255,-0.145,
1494,-0.26,-0.135,
1495,-0.315,-0.075,
1496,-0.34,-0.02,
1497,-0.325,0.0,
1498,-0.31,0.005,
1499,-0.27,0.01,
1500,-0.265,-0.005,
1501,-0.225,-0.04,
1502,-0.215,-0.075,
1503,-0.25,-0.055,
1504,-0.29,-0.05,
1505,-0.31,-0.055,
1506,-0.31,-0.03,
1507,-0.345,-0.01,
1508,-0.355,-0.05,
1509,-0.36,-0.09,
1510,-0.345,-0.095,
1511,-0.385,-0.065,
1512,-0.37,-0.08,
1513,-0.335,-0.14,
1514,-0.295,-0.155,
1515,-0.28,-0.09,
1516,-0.325,0.02,
1517,-0.37,0.13,
1518,-0.365,0.185,
1519,-0.365,0.175,
1520,-0.36,0.14,
1521,-0.365,0.06,
1522,-0.395,-0.045,
1523,-0.45,-0.1,
1524,-0.455,-0.085,
1525,-0.455,-0.08,
1526,-0.395,-0.055,
1527,-0.365,-0.03,
1528,-0.36,-0.045,
1529,-0.39,-0.055,
1530,-0.41,-0.04,
1531,-0.44,-0.025,
1532,-0.435,-0.04,
1533,-0.435,-0.055,
1534,-0.405,-0.035,
1535,-0.4,-0.01,
1536,-0.36,0.02,
1537,-0.325,-0.01,
1538,-0.315,-0.09,
1539,-0.32,-0.155,
1540,-0.315,-0.195,
1541,-0.305,-0.185,
1542,-0.325,-0.11,
1543,-0.37,-0.115,
1544,-0.375,-0.195,
1545,-0.345,-0.265,
1546,-0.315,-0.21,
1547,-0.34,-0.08,
1548,-0.345,0.055,
1549,-0.34,0.085,
1550,-0.315,0.055,
1551,-0.285,-0.01,
1552,-0.295,-0.055,
1553,-0.34,-0.115,
1554,-0.325,-0.15,
1555,-0.315,-0.125,
1556,-0.34,-0.045,
1557,-0.355,0.015,
1558,-0.34,0.005,
1559,-0.295,-0.065,
1560,-0.23,-0.1,
1561,-0.22,-0.13,
1562,-0.24,-0.15,
1563,-0.265,-0.175,
1564,-0.285,-0.2,
1565,-0.31,-0.225,
1566,-0.295,-0.2,
1567,-0.295,-0.22,
1568,-0.275,-0.285,
1569,-0.27,-0.35,
1570,-0.285,-0.395,
1571,-0.3,-0.385,
1572,-0.315,-0.335,
1573,-0.355,-0.26,
1574,-0.385,-0.235,
1575,-0.405,-0.235,
1576,-0.445,-0.28,
1577,-0.465,-0.31,
1578,-0.44,-0.29,
1579,-0.395,-0.29,
1580,-0.365,-0.305,
1581,-0.37,-0.33,
1582,-0.39,-0.31,
1583,-0.44,-0.26,
1584,-0.445,-0.215,
1585,-0.445,-0.22,
1586,-0.41,-0.28,
1587,-0.375,-0.355,
1588,-0.355,-0.445,
1589,-0.37,-0.495,
1590,-0.405,-0.46,
1591,-0.455,-0.39,
1592,-0.485,-0.295,
1593,-0.49,-0.27,
1594,-0.47,-0.3,
1595,-0.44,-0.395,
1596,-0.42,-0.45,
1597,-0.46,-0.44,
1598,-0.5,-0.43,
1599,-0.535,-0.44,
1600,-0.5,-0.455,
1601,-0.465,-0.44,
1602,-0.455,-0.405,
1603,-0.425,-0.365,
1604,-0.405,-0.31,
1605,-0.395,-0.28,
1606,-0.415,-0.285,
1607,-0.41,-0.265,
1608,-0.465,-0.2,
1609,-0.475,-0.17,
1610,-0.455,-0.2,
1611,-0.415,-0.21,
1612,-0.43,-0.195,
1613,-0.46,-0.13,
1614,-0.41,-0.085,
1615,-0.35,-0.075,
1616,-0.29,-0.11,
1617,-0.24,-0.195,
1618,-0.235,-0.28,
1619,-0.285,-0.32,
1620,-0.37,-0.26,
1621,-0.425,-0.19,
1622,-0.41,-0.155,
1623,-0.37,-0.17,
1624,-0.365,-0.195,
1625,-0.375,-0.19,
1626,-0.395,-0.18,
1627,-0.38,-0.17,
1628,-0.365,-0.105,
1629,-0.35,-0.05,
1630,-0.36,-0.015,
1631,-0.355,-0.04,
1632,-0.355,-0.085,
1633,-0.395,-0.125,
1634,-0.48,-0.155,
1635,-0.565,-0.21,
1636,-0.595,-0.365,
1637,-0.605,-0.635,
1638,-0.59,-0.905,
1639,-0.56,-1.225,
1640,-0.5,-1.635,
1641,-0.425,-2.1,
1642,-0.365,-2.535,
1643,-0.325,-2.805,
1644,-0.3,-2.92,
1645,-0.255,-2.91,
1646,-0.185,-2.825,
1647,-0.06,-2.65,
1648,0.09,-2.28,
1649,0.265,-1.665,
1650,0.415,-1.03,
1651,0.475,-0.395,N
1652,0.465,-0.04,
1653,0.405,0.0,
1654,0.285,-0.015,
1655,0.15,-0.02,
1656,0.025,0.0,
1657,-0.075,0.055,
1658,-0.15,0.08,
1659,-0.21,0.095,
1660,-0.24,0.09,
1661,-0.275,0.085,
1662,-0.28,0.085,
1663,-0.28,0.095,
1664,-0.29,0.12,
1665,-0.3,0.125,
1666,-0.265,0.145,
1667,-0.25,0.15,
1668,-0.21,0.14,
1669,-0.195,0.12,
1670,-0.205,0.115,
1671,-0.24,0.125,
1672,-0.285,0.12,
1673,-0.3,0.115,
1674,-0.275,0.105,
1675,-0.25,0.11,
1676,-0.235,0.13,
1677,-0.285,0.135,
1678,-0.33,0.15,
1679,-0.33,0.135,
1680,-0.285,0.14,
1681,-0.225,0.11,
1682,-0.18,0.12,
1683,-0.175,0.135,
1684,-0.225,0.155,
1685,-0.265,0.175,
1686,-0.285,0.195,
1687,-0.265,0.185,
1688,-0.225,0.17,
1689,-0.23,0.15,
1690,-0.225,0.11,
1691,-0.21,0.08,
1692,-0.19,0.09,
1693,-0.21,0.115,
1694,-0.22,0.105,
1695,-0.245,0.1,
1696,-0.265,0.11,
1697,-0.27,0.11,
1698,-0.235,0.14,
1699,-0.185,0.14,
1700,-0.155,0.105,
1701,-0.155,0.085,
1702,-0.2,0.085,
1703,-0.21,0.07,
1704,-0.22,0.095,
1705,-0.205,0.1,
1706,-0.165,0.095,
1707,-0.14,0.09,
1708,-0.11,0.05,
1709,-0.125,0.035,
1710,-0.16,0.06,
1711,-0.18,0.095,
1712,-0.18,0.11,
1713,-0.16,0.095,
1714,-0.125,0.07,
1715,-0.1,0.03,
1716,-0.075,-0.01,
1717,-0.075,-0.025,
1718,-0.085,-0.035,
1719,-0.105,-0.05,
1720,-0.125,-0.065,
1721,-0.14,-0.08,
1722,-0.115,-0.07,
1723,-0.105,-0.07,
1724,-0.075,-0.075,
1725,-0.045,-0.105,
1726,-0.02,-0.13,
1727,-0.045,-0.15,
1728,-0.06,-0.15,
1729,-0.085,-0.16,
1730,-0.075,-0.155,
1731,-0.065,-0.165,
1732,-0.05,-0.17,
1733,-0.045,-0.195,
1734,-0.025,-0.21,
1735,-0.02,-0.235,
1736,-0.015,-0.26,
1737,-0.03,-0.28,
1738,-0.085,-0.28,
1739,-0.14,-0.27,
1740,-0.145,-0.26,
1741,-0.12,-0.26,
1742,-0.105,-0.26,
1743,-0.095,-0.28,
1744,-0.1,-0.28,
1745,-0.125,-0.29,
1746,-0.125,-0.26,
1747,-0.14,-0.25,
1748,-0.15,-0.235,
1749,-0.185,-0.23,
1750,-0.185,-0.235,
1751,-0.19,-0.235,
1752,-0.195,-0.24,
1753,-0.19,-0.215,
1754,-0.205,-0.22,
1755,-0.22,-0.23,
1756,-0.255,-0.235,
1757,-0.26,-0.22,
1758,-0.235,-0.21,
1759,-0.235,-0.18,
1760,-0.245,-0.16,
1761,-0.265,-0.18,
1762,-0.29,-0.165,
1763,-0.295,-0.175,
1764,-0.31,-0.165,
1765,-0.305,-0.14,
1766,-0.3,-0.13,
1767,-0.31,-0.125,
1768,-0.345,-0.14,
1769,-0.36,-0.155,
1770,-0.355,-0.135,
1771,-0.35,-0.12,
1772,-0.36,-0.1,
1773,-0.355,-0.07,
1774,-0.35,-0.075,
1775,-0.365,-0.08,
1776,-0.37,-0.07,
1777,-0.39,-0.055,
1778,-0.4,-0.04,
1779,-0.4,-0.055,
1780,-0.39,-0.055,
1781,-0.385,-0.05,
1782,-0.355,-0.025,
1783,-0.355,-0.01,
1784,-0.355,-0.015,
1785,-0.37,-0.03,
1786,-0.405,-0.05,
1787,-0.455,-0.045,
1788,-0.475,-0.015,
1789,-0.48,0.005,
1790,-0.445,0.015,
1791,-0.415,0.02,
1792,-0.42,0.015,
1793,-0.435,0.01,
1794,-0.45,0.04,
1795,-0.455,0.055,
1796,-0.45,0.05,
1797,-0.46,0.04,
1798,-0.465,0.005,
1799,-0.47,0.005,
1800,-0.465,0.015,
1801,-0.48,0.035,
1802,-0.48,0.04,
1803,-0.47,0.02,
1804,-0.49,0.0,
1805,-0.5,0.0,
1806,-0.49,0.02,
1807,-0.465,0.035,
1808,-0.445,0.03,
1809,-0.445,0.01,
1810,-0.435,-0.025,
1811,-0.45,-0.05,
1812,-0.465,-0.03,
1813,-0.49,-0.005,
1814,-0.49,-0.02,
1815,-0.49,-0.045,
1816,-0.485,-0.065,
1817,-0.485,-0.07,
1818,-0.485,-0.045,
1819,-0.495,-0.025,
1820,-0.47,-0.025,
1821,-0.48,-0.03,
1822,-0.495,-0.015,
1823,-0.47,-0.025,
1824,-0.47,-0.015,
1825,-0.44,-0.02,
1826,-0.435,-0.025,
1827,-0.425,-0.045,
1828,-0.45,-0.04,
1829,-0.455,-0.03,
1830,-0.45,0.0,
1831,-0.45,0.005,
1832,-0.42,0.015,
1833,-0.425,0.005,
1834,-0.41,-0.005,
1835,-0.405,-0.01,
1836,-0.38,0.005,
1837,-0.36,0.015,
1838,-0.33,0.025,
1839,-0.325,0.035,
1840,-0.34,0.025,
1841,-0.37,0.02,
1842,-0.375,0.04,
1843,-0.36,0.04,
1844,-0.36,0.03,
1845,-0.355,-0.03,
1846,-0.365,-0.09,
1847,-0.38,-0.125,
1848,-0.385,-0.135,
1849,-0.41,-0.15,
1850,-0.41,-0.155,
1851,-0.425,-0.175,
1852,-0.455,-0.18,
1853,-0.475,-0.17,
1854,-0.47,-0.155,
1855,-0.45,-0.145,
1856,-0.445,-0.135,
1857,-0.45,-0.145,
1858,-0.47,-0.175,
1859,-0.49,-0.16,
1860,-0.48,-0.15,
1861,-0.48,-0.155,
1862,-0.485,-0.16,
1863,-0.495,-0.18,
1864,-0.51,-0.195,
1865,-0.53,-0.21,
1866,-0.54,-0.2,
1867,-0.525,-0.185,
1868,-0.52,-0.195,
1869,-0.525,-0.22,
1870,-0.525,-0.24,
1871,-0.535,-0.25,
1872,-0.54,-0.255,
1873,-0.525,-0.235,
1874,-0.525,-0.22,
1875,-0.535,-0.24,
1876,-0.54,-0.255,
1877,-0.56,-0.26,
1878,-0.575,-0.26,
1879,-0.55,-0.27,
1880,-0.54,-0.255,
1881,-0.545,-0.265,
1882,-0.55,-0.24,
1883,-0.55,-0.225,
1884,-0.535,-0.21,
1885,-0.515,-0.205,
1886,-0.51,-0.2,
1887,-0.485,-0.215,
1888,-0.48,-0.21,
1889,-0.47,-0.205,
1890,-0.435,-0.165,
1891,-0.425,-0.15,
1892,-0.41,-0.125,
1893,-0.405,-0.105,
1894,-0.415,-0.095,
1895,-0.42,-0.065,
1896,-0.41,-0.035,
1897,-0.395,-0.015,
1898,-0.385,-0.03,
1899,-0.375,-0.05,
1900,-0.38,-0.065,
1901,-0.385,-0.05,
1902,-0.385,-0.02,
1903,-0.37,-0.025,
1904,-0.335,-0.015,
1905,-0.335,-0.03,
1906,-0.335,-0.06,
1907,-0.34,-0.075,
1908,-0.345,-0.075,
1909,-0.34,-0.07,
1910,-0.33,-0.075,
1911,-0.325,-0.06,
1912,-0.325,-0.05,
1913,-0.355,-0.02,
1914,-0.375,0.02,
1915,-0.365,0.03,
1916,-0.375,0.005,
1917,-0.4,-0.03,
1918,-0.455,-0.045,
1919,-0.505,-0.135,
1920,-0.52,-0.385,
1921,-0.485,-0.7,
1922,-0.435,-1.04,
1923,-0.4,-1.42,
1924,-0.355,-1.87,
1925,-0.31,-2.275,
1926,-0.275,-2.575,
1927,-0.245,-2.73,
1928,-0.21,-2.78,
1929,-0.175,-2.77,
1930,-0.125,-2.675,
1931,-0.025,-2.48,
1932,0.125,-2.095,
1933,0.3,-1.515,
1934,0.435,-0.88,
1935,0.485,-0.4,N
1936,0.425,-0.145,
1937,0.37,-0.035,
1938,0.275,0.025,
1939,0.17,0.075,
1940,0.07,0.075,
1941,-0.035,0.095,
1942,-0.135,0.105,
1943,-0.23,0.125,
1944,-0.26,0.145,
1945,-0.265,0.155,
1946,-0.255,0.16,
1947,-0.25,0.135,
1948,-0.26,0.15,
1949,-0.285,0.16,
1950,-0.28,0.18,
1951,-0.28,0.205,
1952,-0.28,0.195,
1953,-0.295,0.2,
1954,-0.275,0.195,
1955,-0.27,0.19,
1956,-0.255,0.205,
1957,-0.245,0.22,
1958,-0.23,0.24,
1959,-0.23,0.23,
1960,-0.245,0.205,
1961,-0.255,0.195,
1962,-0.265,0.2,
1963,-0.245,0.205,
1964,-0.225,0.205,
1965,-0.22,0.2,
1966,-0.235,0.19,
1967,-0.225,0.19,
1968,-0.21,0.205,
1969,-0.215,0.215,
1970,-0.19,0.215,
1971,-0.18,0.22,
1972,-0.18,0.195,
1973,-0.175,0.185,
1974,-0.18,0.195,
1975,-0.17,0.195,
1976,-0.16,0.205,
1977,-0.17,0.225,
1978,-0.17,0.22,
1979,-0.185,0.225,
1980,-0.175,0.24,
1981,-0.16,0.23,
1982,-0.15,0.235,
1983,-0.145,0.225,
1984,-0.14,0.21,
1985,-0.165,0.205,
1986,-0.155,0.215,
1987,-0.135,0.225,
1988,-0.105,0.225,
1989,-0.11,0.215,
1990,-0.115,0.205,
1991,-0.115,0.195,
1992,-0.1,0.2,
1993,-0.085,0.185,
1994,-0.065,0.185,
1995,-0.065,0.175,
1996,-0.075,0.16,
1997,-0.085,0.145,
1998,-0.075,0.16,
1999,-0.045,0.165,
2000,-0.01,0.15,
2001,-0.03,0.14,
2002,-0.015,0.11,
2003,-0.025,0.095,
2004,-0.02,0.105,
2005,-0.015,0.1,
2006,0.0,0.085,
2007,0.0,0.065,
2008,-0.005,0.02,
2009,-0.02,-0.01,
2010,-0.025,-0.01,
2011,-0.025,-0.005,
2012,0.0,-0.02,
2013,0.005,-0.025,
2014,-0.015,-0.04,
2015,-0.03,-0.05,
2016,0.005,-0.055,
2017,0.005,-0.05,
2018,0.03,-0.05,
2019,0.03,-0.085,
2020,0.03,-0.125,
2021,0.01,-0.13,
2022,0.015,-0.14,
2023,0.02,-0.125,
2024,0.01,-0.125,
2025,0.005,-0.155,
2026,0.0,-0.16,
2027,-0.02,-0.16,
2028,-0.02,-0.145,
2029,-0.01,-0.145,
2030,0.0,-0.17,
2031,-0.025,-0.165,
2032,-0.035,-0.19,
2033,-0.065,-0.185,
2034,-0.085,-0.16,
2035,-0.085,-0.15,
2036,-0.085,-0.15,
2037,-0.08,-0.155,
2038,-0.115,-0.175,
2039,-0.125,-0.185,
2040,-0.135,-0.14,
2041,-0.14,-0.11,
2042,-0.125,-0.095,
2043,-0.145,-0.085,
2044,-0.155,-0.09,
2045,-0.175,-0.08,
2046,-0.2,-0.075,
2047,-0.2,-0.09,
2048,-0.2,-0.085,
2049,-0.205,-0.09,
2050,-0.21,-0.095,
2051,-0.23,-0.085,
2052,-0.24,-0.09,
2053,-0.235,-0.08,
2054,-0.245,-0.08,
2055,-0.25,-0.065,
2056,-0.26,-0.055,
2057,-0.285,-0.065,
2058,-0.275,-0.045,
2059,-0.255,-0.03,
2060,-0.245,-0.055,
2061,-0.255,-0.04,
2062,-0.275,-0.04,
2063,-0.31,-0.025,
2064,-0.3,0.005,
2065,-0.29,0.02,
2066,-0.27,0.02,
2067,-0.28,0.015,
2068,-0.295,-0.005,
2069,-0.315,-0.015,
2070,-0.325,0.01,
2071,-0.33,0.02,
2072,-0.33,0.04,
2073,-0.335,0.045,
2074,-0.355,0.05,
2075,-0.365,0.035,
2076,-0.355,0.05,
2077,-0.345,0.065,
2078,-0.34,0.07,
2079,-0.35,0.07,
2080,-0.375,0.065,
2081,-0.4,0.065,
2082,-0.41,0.075,
2083,-0.4,0.08,
2084,-0.395,0.075,
2085,-0.39,0.065,
2086,-0.41,0.05,
2087,-0.42,0.065,
2088,-0.425,0.09,
2089,-0.405,0.1,
2090,-0.41,0.085,
2091,-0.41,0.095,
2092,-0.425,0.065,
2093,-0.44,0.085,
2094,-0.43,0.075,
2095,-0.415,0.08,
2096,-0.405,0.06,
2097,-0.43,0.05,
2098,-0.45,0.035,
2099,-0.47,0.03,
2100,-0.46,0.045,
2101,-0.43,0.04,
2102,-0.41,0.035,
2103,-0.41,0.025,
2104,-0.42,0.01,
2105,-0.445,0.0,
2106,-0.465,0.03,
2107,-0.45,0.035,
2108,-0.425,0.045,
2109,-0.43,0.03,
2110,-0.415,0.02,
2111,-0.43,0.005,
2112,-0.415,0.0,
2113,-0.4,0.005,
2114,-0.395,0.02,
2115,-0.41,0.03,
2116,-0.415,0.02,
2117,-0.42,0.01,
2118,-0.385,0.025,
2119,-0.35,0.045,
2120,-0.335,0.05,
2121,-0.335,0.05,
2122,-0.34,0.045,
2123,-0.35,0.035,
2124,-0.345,0.035,
2125,-0.325,0.035,
2126,-0.305,0.07,
2127,-0.295,0.08,
2128,-0.295,0.065,
2129,-0.295,0.055,
2130,-0.305,0.085,
2131,-0.28,0.1,
2132,-0.275,0.065,
2133,-0.3,0.015,
2134,-0.315,-0.07,
2135,-0.34,-0.115,
2136,-0.34,-0.135,
2137,-0.335,-0.12,
2138,-0.35,-0.125,
2139,-0.36,-0.125,
2140,-0.385,-0.165,
2141,-0.405,-0.175,
2142,-0.415,-0.16,
2143,-0.435,-0.15,
2144,-0.435,-0.135,
2145,-0.43,-0.14,
2146,-0.435,-0.155,
2147,-0.43,-0.15,
2148,-0.42,-0.165,
2149,-0.385,-0.165,
2150,-0.39,-0.175,
2151,-0.405,-0.175,
2152,-0.46,-0.205,
2153,-0.47,-0.21,
2154,-0.475,-0.19,
2155,-0.475,-0.175,
2156,-0.465,-0.17,
2157,-0.445,-0.19,
2158,-0.455,-0.22,
2159,-0.44,-0.235,
2160,-0.46,-0.23,
2161,-0.475,-0.245,
2162,-0.48,-0.255,
2163,-0.49,-0.265,
2164,-0.5,-0.28,
2165,-0.5,-0.3,
2166,-0.48,-0.3,
2167,-0.465,-0.265,
2168,-0.45,-0.26,
2169,-0.47,-0.27,
2170,-0.515,-0.3,
2171,-0.545,-0.285,
2172,-0.54,-0.245,
2173,-0.515,-0.225,
2174,-0.465,-0.205,
2175,-0.425,-0.195,
2176,-0.395,-0.195,
2177,-0.39,-0.2,
2178,-0.39,-0.18,
2179,-0.395,-0.155,
2180,-0.385,-0.12,
2181,-0.39,-0.11,
2182,-0.385,-0.1,
2183,-0.37,-0.095,
2184,-0.34,-0.07,
2185,-0.31,-0.055,
2186,-0.315,-0.055,
2187,-0.35,-0.065,
2188,-0.365,-0.075,
2189,-0.375,-0.07,
2190,-0.37,-0.055,
2191,-0.355,-0.05,
2192,-0.335,-0.055,
2193,-0.31,-0.065,
2194,-0.31,-0.065,
2195,-0.3,-0.065,
2196,-0.295,-0.055,
2197,-0.305,-0.045,
2198,-0.3,-0.04,
2199,-0.315,-0.045,
2200,-0.345,-0.03,
2201,-0.375,-0.025,
2202,-0.375,-0.015,
2203,-0.38,-0.015,
2204,-0.385,-0.02,
2205,-0.445,-0.035,
2206,-0.49,-0.08,
2207,-0.525,-0.285,
2208,-0.515,-0.57,
2209,-0.48,-0.875,
2210,-0.465,-1.17,
2211,-0.44,-1.55,
2212,-0.42,-1.975,
2213,-0.37,-2.41,
2214,-0.335,-2.725,
2215,-0.31,-2.91,
2216,-0.27,-2.945,
2217,-0.245,-2.89,
2218,-0.155,-2.675,
2219,0.0,-2.245,
2220,0.22,-1.61,
2221,0.375,-0.975,
2222,0.425,-0.34,
2223,0.385,0.04,N
2224,0.325,0.125,
2225,0.21,0.155,
2226,0.09,0.17,
2227,-0.035,0.19,
2228,-0.095,0.19,
2229,-0.14,0.195,
2230,-0.185,0.2,
2231,-0.23,0.225,
2232,-0.235,0.23,
2233,-0.235,0.2,
2234,-0.23,0.18,
2235,-0.25,0.17,
2236,-0.24,0.185,
2237,-0.265,0.195,
2238,-0.25,0.215,
2239,-0.24,0.23,
2240,-0.21,0.24,
2241,-0.21,0.235,
2242,-0.23,0.22,
2243,-0.25,0.21,
2244,-0.245,0.21,
2245,-0.26,0.215,
2246,-0.23,0.235,
2247,-0.205,0.22,
2248,-0.21,0.195,
2249,-0.23,0.18,
2250,-0.22,0.205,
2251,-0.18,0.235,
2252,-0.15,0.245,
2253,-0.155,0.23,
2254,-0.165,0.225,
2255,-0.175,0.225,
2256,-0.165,0.215,
2257,-0.15,0.22,
2258,-0.14,0.205,
2259,-0.145,0.2,
2260,-0.15,0.17,
2261,-0.17,0.145,
2262,-0.175,0.16,
2263,-0.16,0.185,
2264,-0.145,0.225,
2265,-0.13,0.23,
2266,-0.115,0.23,
2267,-0.125,0.215,
2268,-0.13,0.225,
2269,-0.12,0.21,
2270,-0.11,0.2,
2271,-0.11,0.165,
2272,-0.115,0.16,
2273,-0.1,0.185,
2274,-0.09,0.2,
2275,-0.065,0.2,
2276,-0.065,0.185,
2277,-0.065,0.17,
2278,-0.055,0.175,
2279,-0.05,0.175,
2280,-0.065,0.2,
2281,-0.04,0.19,
2282,-0.015,0.16,
2283,0.02,0.12,
2284,0.005,0.085,
2285,0.01,0.075,
2286,0.015,0.085,
2287,0.01,0.065,
2288,0.0,0.05,
2289,0.03,0.025,
2290,0.055,0.0,
2291,0.07,-0.01,
2292,0.08,-0.01,
2293,0.09,-0.015,
2294,0.11,-0.03,
2295,0.095,-0.07,
2296,0.085,-0.11,
2297,0.065,-0.125,
2298,0.06,-0.115,
2299,0.065,-0.11,
2300,0.095,-0.105,
2301,0.105,-0.14,
2302,0.105,-0.19,
2303,0.08,-0.22,
2304,0.075,-0.21,
2305,0.075,-0.19,
2306,0.095,-0.16,
2307,0.105,-0.17,
2308,0.085,-0.195,
2309,0.075,-0.24,
2310,0.08,-0.25,
2311,0.085,-0.255,
2312,0.1,-0.235,
2313,0.075,-0.25,
2314,0.065,-0.28,
2315,0.045,-0.295,
2316,0.045,-0.27,
2317,0.03,-0.225,
2318,0.03,-0.225,
2319,0.0,-0.21,
2320,-0.03,-0.215,
2321,-0.05,-0.235,
2322,-0.075,-0.255,
2323,-0.08,-0.265,
2324,-0.08,-0.24,
2325,-0.105,-0.23,
2326,-0.125,-0.23,
2327,-0.145,-0.23,
2328,-0.13,-0.225,
2329,-0.14,-0.22,
2330,-0.14,-0.195,
2331,-0.14,-0.2,
2332,-0.145,-0.19,
2333,-0.155,-0.2,
2334,-0.18,-0.185,
2335,-0.205,-0.175,
2336,-0.19,-0.13,
2337,-0.19,-0.13,
2338,-0.19,-0.125,
2339,-0.205,-0.155,
2340,-0.2,-0.16,
2341,-0.19,-0.145,
2342,-0.175,-0.135,
2343,-0.18,-0.125,
2344,-0.2,-0.135,
2345,-0.24,-0.13,
2346,-0.25,-0.125,
2347,-0.255,-0.115,
2348,-0.245,-0.095,
2349,-0.23,-0.085,
2350,-0.225,-0.09,
2351,-0.23,-0.08,
2352,-0.235,-0.055,
2353,-0.235,-0.035,
2354,-0.235,-0.02,
2355,-0.245,-0.035,
2356,-0.265,-0.065,
2357,-0.28,-0.06,
2358,-0.275,-0.04,
2359,-0.28,0.0,
2360,-0.285,0.015,
2361,-0.295,0.02,
2362,-0.3,0.005,
2363,-0.28,0.0,
2364,-0.285,-0.025,
2365,-0.29,-0.03,
2366,-0.295,-0.025,
2367,-0.3,-0.015,
2368,-0.345,-0.015,
2369,-0.335,-0.045,
2370,-0.325,-0.04,
2371,-0.31,-0.045,
2372,-0.325,-0.035,
2373,-0.345,-0.015,
2374,-0.35,-0.035,
2375,-0.355,-0.06,
2376,-0.34,-0.075,
2377,-0.295,-0.065,
2378,-0.27,-0.055,
2379,-0.265,-0.055,
2380,-0.305,-0.06,
2381,-0.31,-0.055,
2382,-0.335,-0.075,
2383,-0.325,-0.105,
2384,-0.295,-0.11,
2385,-0.295,-0.115,
2386,-0.315,-0.115,
2387,-0.325,-0.14,
2388,-0.325,-0.135,
2389,-0.32,-0.125,
2390,-0.3,-0.13,
2391,-0.305,-0.135,
2392,-0.31,-0.125,
2393,-0.315,-0.11,
2394,-0.28,-0.07,
2395,-0.22,-0.05,
2396,-0.2,-0.06,
2397,-0.195,-0.04,
2398,-0.195,-0.04,
2399,-0.205,-0.07,
2400,-0.195,-0.1,
2401,-0.185,-0.125,
2402,-0.145,-0.14,
2403,-0.145,-0.11,
2404,-0.155,-0.065,
2405,-0.165,-0.03,
2406,-0.18,-0.015,
2407,-0.17,-0.02,
2408,-0.185,-0.065,
2409,-0.185,-0.145,
2410,-0.23,-0.23,
2411,-0.275,-0.29,
2412,-0.27,-0.295,
2413,-0.265,-0.27,
2414,-0.245,-0.26,
2415,-0.26,-0.265,
2416,-0.26,-0.3,
2417,-0.26,-0.32,
2418,-0.295,-0.315,
2419,-0.315,-0.265,
2420,-0.33,-0.21,
2421,-0.335,-0.2,
2422,-0.34,-0.24,
2423,-0.315,-0.29,
2424,-0.32,-0.285,
2425,-0.305,-0.255,
2426,-0.295,-0.26,
2427,-0.295,-0.3,
2428,-0.32,-0.365,
2429,-0.345,-0.4,
2430,-0.35,-0.385,
2431,-0.315,-0.34,
2432,-0.28,-0.285,
2433,-0.305,-0.28,
2434,-0.32,-0.33,
2435,-0.36,-0.39,
2436,-0.395,-0.4,
2437,-0.41,-0.375,
2438,-0.42,-0.345,
2439,-0.41,-0.335,
2440,-0.4,-0.355,
2441,-0.385,-0.395,
2442,-0.37,-0.4,
2443,-0.38,-0.37,
2444,-0.42,-0.31,
2445,-0.44,-0.325,
2446,-0.465,-0.375,
2447,-0.485,-0.39,
2448,-0.475,-0.395,
2449,-0.45,-0.39,
2450,-0.41,-0.385,
2451,-0.4,-0.355,
2452,-0.39,-0.34,
2453,-0.38,-0.33,
2454,-0.375,-0.32,
2455,-0.38,-0.295,
2456,-0.365,-0.27,
2457,-0.35,-0.26,
2458,-0.35,-0.235,
2459,-0.35,-0.205,
2460,-0.375,-0.185,
2461,-0.385,-0.17,
2462,-0.37,-0.145,
2463,-0.355,-0.155,
2464,-0.335,-0.16,
2465,-0.31,-0.15,
2466,-0.295,-0.135,
2467,-0.275,-0.125,
2468,-0.28,-0.15,
2469,-0.295,-0.18,
2470,-0.31,-0.18,
2471,-0.31,-0.19,
2472,-0.31,-0.19,
2473,-0.3,-0.17,
2474,-0.29,-0.165,
2475,-0.3,-0.185,
2476,-0.305,-0.18,
2477,-0.325,-0.15,
2478,-0.34,-0.13,
2479,-0.37,-0.165,
2480,-0.4,-0.215,
2481,-0.44,-0.225,
2482,-0.485,-0.28,
2483,-0.47,-0.49,
2484,-0.435,-0.78,
2485,-0.4,-1.065,
2486,-0.355,-1.37,
2487,-0.35,-1.755,
2488,-0.335,-2.185,
2489,-0.305,-2.565,
2490,-0.26,-2.83,
2491,-0.235,-2.965,
2492,-0.2,-2.995,
2493,-0.17,-2.975,
2494,-0.105,-2.885,
2495,0.015,-2.655,
2496,0.22,-2.185,
2497,0.415,-1.55,
2498,0.535,-0.915,
2499,0.535,-0.305,N
2500,0.47,-0.095,
2501,0.39,-0.01,
2502,0.275,0.035,
2503,0.13,0.05,
2504,0.0,0.005,
2505,-0.11,0.0,
2506,-0.155,0.05,
2507,-0.185,0.085,
2508,-0.205,0.085,
2509,-0.22,0.085,
2510,-0.22,0.08,
2511,-0.24,0.055,
2512,-0.265,0.03,
2513,-0.265,0.02,
2514,-0.265,0.045,
2515,-0.23,0.085,
2516,-0.235,0.12,
2517,-0.24,0.125,
2518,-0.265,0.12,
2519,-0.26,0.12,
2520,-0.26,0.105,
2521,-0.215,0.1,
2522,-0.2,0.1,
2523,-0.195,0.1,
2524,-0.225,0.11,
2525,-0.215,0.065,
2526,-0.23,0.06,
2527,-0.245,0.08,
2528,-0.225,0.1,
2529,-0.24,0.095,
2530,-0.24,0.08,
2531,-0.255,0.08,
2532,-0.245,0.09,
2533,-0.23,0.09,
2534,-0.195,0.125,
2535,-0.19,0.14,
2536,-0.19,0.115,
2537,-0.2,0.115,
2538,-0.2,0.125,
2539,-0.19,0.11,
2540,-0.185,0.105,
2541,-0.195,0.1,
2542,-0.21,0.08,
2543,-0.205,0.1,
2544,-0.18,0.12,
2545,-0.175,0.14,
2546,-0.16,0.115,
2547,-0.16,0.1,
2548,-0.165,0.06,
2549,-0.145,0.045,
2550,-0.14,0.09,
2551,-0.105,0.12,
2552,-0.095,0.135,
2553,-0.095,0.115,
2554,-0.12,0.095,
2555,-0.12,0.08,
2556,-0.125,0.1,
2557,-0.125,0.1,
2558,-0.1,0.075,
2559,-0.12,0.04,
2560,-0.11,0.03,
2561,-0.09,0.03,
2562,-0.075,0.02,
2563,-0.045,0.035,
2564,-0.02,0.04,
2565,-0.015,0.035,
2566,-0.005,0.005,
2567,-0.01,-0.02,
2568,-0.02,-0.055,
2569,-0.01,-0.055,
2570,-0.01,-0.03,
2571,-0.01,-0.05,
2572,-0.025,-0.075,
2573,-0.015,-0.07,
2574,-0.015,-0.045,
2575,0.01,-0.06,
2576,0.025,-0.08,
2577,0.04,-0.11,
2578,0.035,-0.135,
2579,0.035,-0.15,
2580,0.03,-0.155,
2581,0.055,-0.16,
2582,0.065,-0.22,
2583,0.085,-0.235,
2584,0.065,-0.27,
2585,0.035,-0.27,
2586,0.02,-0.275,
2587,-0.01,-0.27,
2588,-0.025,-0.27,
2589,-0.045,-0.245,
2590,-0.045,-0.265,
2591,-0.05,-0.29,
2592,-0.06,-0.285,
2593,-0.055,-0.27,
2594,-0.05,-0.27,
2595,-0.07,-0.275,
2596,-0.08,-0.305,
2597,-0.105,-0.315,
2598,-0.11,-0.305,
2599,-0.07,-0.275,
2600,-0.045,-0.25,
2601,-0.075,-0.255,
2602,-0.095,-0.255,
2603,-0.115,-0.265,
2604,-0.12,-0.27,
2605,-0.13,-0.255,
2606,-0.135,-0.245,
2607,-0.16,-0.24,
2608,-0.175,-0.22,
2609,-0.18,-0.21,
2610,-0.19,-0.22,
2611,-0.21,-0.23,
2612,-0.22,-0.22,
2613,-0.24,-0.205,
2614,-0.245,-0.205,
2615,-0.255,-0.195,
2616,-0.24,-0.19,
2617,-0.225,-0.185,
2618,-0.23,-0.175,
2619,-0.245,-0.16,
2620,-0.285,-0.15,
2621,-0.295,-0.16,
2622,-0.305,-0.16,
2623,-0.28,-0.135,
2624,-0.27,-0.135,
2625,-0.26,-0.14,
2626,-0.25,-0.15,
2627,-0.265,-0.135,
2628,-0.28,-0.135,
2629,-0.29,-0.125,
2630,-0.275,-0.1,
2631,-0.285,-0.08,
2632,-0.29,-0.09,
2633,-0.3,-0.105,
2634,-0.315,-0.13,
2635,-0.345,-0.095,
2636,-0.31,-0.06,
2637,-0.325,-0.06,
2638,-0.345,-0.07,
2639,-0.345,-0.09,
2640,-0.36,-0.075,
2641,-0.37,-0.05,
2642,-0.35,0.0,
2643,-0.35,-0.005,
2644,-0.355,-0.025,
2645,-0.36,-0.055,
2646,-0.355,-0.06,
2647,-0.35,-0.025,
2648,-0.335,-0.005,
2649,-0.35,-0.03,
2650,-0.36,-0.035,
2651,-0.385,-0.025,
2652,-0.38,-0.01,
2653,-0.355,-0.005,
2654,-0.345,0.01,
2655,-0.36,0.005,
2656,-0.36,0.01,
2657,-0.37,-0.01,
2658,-0.385,-0.005,
2659,-0.375,0.01,
2660,-0.34,0.05,
2661,-0.36,0.065,
2662,-0.355,0.06,
2663,-0.355,0.055,
2664,-0.35,0.03,
2665,-0.325,0.005,
2666,-0.335,-0.035,
2667,-0.33,-0.06,
2668,-0.355,-0.065,
2669,-0.355,-0.035,
2670,-0.39,0.005,
2671,-0.4,0.035,
2672,-0.41,0.025,
2673,-0.4,0.015,
2674,-0.405,0.005,
2675,-0.39,0.0,
2676,-0.405,0.0,
2677,-0.41,0.005,
2678,-0.42,-0.005,
2679,-0.42,0.015,
2680,-0.405,-0.015,
2681,-0.39,-0.04,
2682,-0.39,-0.04,
2683,-0.375,-0.045,
2684,-0.37,-0.02,
2685,-0.355,-0.025,
2686,-0.35,-0.05,
2687,-0.35,-0.075,
2688,-0.35,-0.07,
2689,-0.34,-0.03,
2690,-0.34,-0.005,
2691,-0.33,-0.005,
2692,-0.295,0.01,
2693,-0.295,-0.01,
2694,-0.27,-0.03,
2695,-0.255,-0.015,
2696,-0.23,0.015,
2697,-0.25,0.03,
2698,-0.26,0.025,
2699,-0.26,0.015,
2700,-0.26,-0.005,
2701,-0.24,-0.065,
2702,-0.24,-0.135,
2703,-0.25,-0.16,
2704,-0.28,-0.175,
2705,-0.31,-0.195,
2706,-0.355,-0.21,
2707,-0.385,-0.2,
2708,-0.38,-0.195,
2709,-0.39,-0.195,
2710,-0.4,-0.225,
2711,-0.41,-0.245,
2712,-0.44,-0.25,
2713,-0.425,-0.235,
2714,-0.43,-0.225,
2715,-0.45,-0.2,
2716,-0.45,-0.18,
2717,-0.435,-0.17,
2718,-0.445,-0.19,
2719,-0.44,-0.185,
2720,-0.405,-0.2,
2721,-0.4,-0.225,
2722,-0.43,-0.25,
2723,-0.44,-0.245,
2724,-0.475,-0.275,
2725,-0.48,-0.28,
2726,-0.47,-0.275,
2727,-0.495,-0.265,
2728,-0.525,-0.265,
2729,-0.53,-0.265,
2730,-0.515,-0.275,
2731,-0.51,-0.285,
2732,-0.49,-0.305,
2733,-0.485,-0.31,
2734,-0.515,-0.325,
2735,-0.535,-0.305,
2736,-0.525,-0.295,
2737,-0.52,-0.295,
2738,-0.475,-0.29,
2739,-0.495,-0.28,
2740,-0.51,-0.295,
2741,-0.535,-0.3,
2742,-0.545,-0.285,
2743,-0.535,-0.26,
2744,-0.49,-0.22,
2745,-0.46,-0.215,
2746,-0.425,-0.21,
2747,-0.41,-0.22,
2748,-0.41,-0.195,
2749,-0.415,-0.17,
2750,-0.415,-0.14,
2751,-0.415,-0.125,
2752,-0.4,-0.115,
2753,-0.41,-0.085,
2754,-0.405,-0.08,
2755,-0.405,-0.07,
2756,-0.395,-0.05,
2757,-0.395,-0.06,
2758,-0.375,-0.085,
2759,-0.37,-0.105,
2760,-0.35,-0.095,
2761,-0.34,-0.095,
2762,-0.375,-0.08,
2763,-0.4,-0.065,
2764,-0.405,-0.08,
2765,-0.39,-0.08,
2766,-0.375,-0.11,
2767,-0.36,-0.105,
2768,-0.33,-0.08,
2769,-0.365,-0.04,
2770,-0.385,-0.04,
2771,-0.425,-0.08,
2772,-0.45,-0.09,
2773,-0.465,-0.1,
2774,-0.495,-0.07,
2775,-0.54,-0.06,
2776,-0.55,-0.23,
2777,-0.55,-0.56,
2778,-0.545,-0.885,
2779,-0.515,-1.205,
2780,-0.485,-1.56,
2781,-0.465,-1.91,
2782,-0.445,-2.26,
2783,-0.42,-2.585,
2784,-0.38,-2.84,
2785,-0.365,-2.975,
2786,-0.325,-3.02,
2787,-0.295,-2.965,
2788,-0.21,-2.8,
2789,-0.03,-2.395,
2790,0.175,-1.76,
2791,0.35,-1.125,
2792,0.42,-0.49,
2793,0.38,0.095,N
2794,0.335,0.19,
2795,0.24,0.195,
2796,0.105,0.195,
2797,-0.03,0.195,
2798,-0.125,0.19,
2799,-0.21,0.215,
2800,-0.265,0.245,
2801,-0.305,0.245,
2802,-0.315,0.26,
2803,-0.29,0.27,
2804,-0.28,0.255,
2805,-0.275,0.22,
2806,-0.285,0.205,
2807,-0.31,0.195,
2808,-0.325,0.195,
2809,-0.31,0.21,
2810,-0.3,0.22,
2811,-0.31,0.235,
2812,-0.31,0.24,
2813,-0.31,0.235,
2814,-0.295,0.24,
2815,-0.295,0.24,
2816,-0.28,0.24,
2817,-0.28,0.225,
2818,-0.28,0.235,
2819,-0.29,0.25,
2820,-0.29,0.275,
2821,-0.27,0.3,
2822,-0.26,0.28,
2823,-0.27,0.255,
2824,-0.285,0.23,
2825,-0.305,0.235,
2826,-0.295,0.26,
2827,-0.28,0.26,
2828,-0.215,0.265,
2829,-0.205,0.245,
2830,-0.225,0.235,
2831,-0.24,0.235,
2832,-0.245,0.25,
2833,-0.23,0.255,
2834,-0.205,0.25,
2835,-0.215,0.27,
2836,-0.225,0.26,
2837,-0.22,0.255,
2838,-0.18,0.27,
2839,-0.155,0.265,
2840,-0.13,0.25,
2841,-0.13,0.24,
2842,-0.155,0.23,
2843,-0.16,0.23,
2844,-0.175,0.215,
2845,-0.155,0.195,
2846,-0.13,0.185,
2847,-0.115,0.195,
2848,-0.1,0.22,
2849,-0.095,0.225,
2850,-0.11,0.195,
2851,-0.11,0.185,
2852,-0.11,0.145,
2853,-0.11,0.14,
2854,-0.12,0.135,
2855,-0.11,0.12,
2856,-0.07,0.105,
2857,-0.07,0.105,
2858,-0.06,0.105,
2859,-0.065,0.115,
2860,-0.07,0.105,
2861,-0.065,0.115,
2862,-0.045,0.095,
2863,-0.01,0.085,
2864,0.025,0.05,
2865,0.025,0.03,
2866,0.015,0.005,
2867,0.01,-0.035,
2868,-0.015,-0.075,
2869,-0.005,-0.075,
2870,-0.005,-0.095,
2871,-0.01,-0.1,
2872,0.025,-0.13,
2873,0.025,-0.14,
2874,0.01,-0.14,
2875,0.01,-0.14,
2876,0.015,-0.135,
2877,0.005,-0.15,
2878,-0.015,-0.15,
2879,-0.015,-0.175,
2880,-0.025,-0.19,
2881,-0.03,-0.21,
2882,-0.025,-0.23,
2883,-0.03,-0.22,
2884,-0.035,-0.215,
2885,-0.045,-0.21,
2886,-0.055,-0.2,
2887,-0.045,-0.175,
2888,-0.045,-0.185,
2889,-0.08,-0.23,
2890,-0.12,-0.255,
2891,-0.145,-0.25,
2892,-0.155,-0.215,
2893,-0.155,-0.175,
2894,-0.15,-0.16,
2895,-0.16,-0.145,
2896,-0.145,-0.14,
2897,-0.14,-0.15,
2898,-0.165,-0.13,
2899,-0.165,-0.125,
2900,-0.165,-0.125,
2901,-0.175,-0.135,
2902,-0.18,-0.12,
2903,-0.235,-0.13,
2904,-0.245,-0.115,
2905,-0.255,-0.12,
2906,-0.26,-0.12,
2907,-0.255,-0.125,
2908,-0.275,-0.145,
2909,-0.28,-0.135,
2910,-0.285,-0.1,
2911,-0.3,-0.065,
2912,-0.28,-0.06,
2913,-0.295,-0.07,
2914,-0.305,-0.055,
2915,-0.325,-0.04,
2916,-0.325,-0.025,
2917,-0.32,-0.015,
2918,-0.32,-0.02,
2919,-0.315,-0.035,
2920,-0.32,-0.045,
2921,-0.3,-0.035,
2922,-0.285,-0.04,
2923,-0.315,-0.03,
2924,-0.325,-0.035,
2925,-0.33,-0.03,
2926,-0.34,-0.035,
2927,-0.37,-0.03,
2928,-0.385,-0.01,
2929,-0.36,-0.005,
2930,-0.365,0.0,
2931,-0.36,0.0,
2932,-0.345,0.01,
2933,-0.36,0.02,
2934,-0.365,0.04,
2935,-0.38,0.055,
2936,-0.395,0.055,
2937,-0.395,0.03,
2938,-0.395,0.035,
2939,-0.425,0.035,
2940,-0.435,0.05,
2941,-0.425,0.05,
2942,-0.405,0.06,
2943,-0.435,0.03,
2944,-0.47,0.005,
2945,-0.47,0.005,
2946,-0.46,0.01,
2947,-0.455,0.035,
2948,-0.43,0.05,
2949,-0.425,0.05,
2950,-0.43,0.04,
2951,-0.44,0.01,
2952,-0.455,0.005,
2953,-0.455,0.005,
2954,-0.46,0.025,
2955,-0.485,0.035,
2956,-0.505,0.03,
2957,-0.48,0.005,
2958,-0.48,-0.01,
2959,-0.445,-0.02,
2960,-0.455,-0.015,
2961,-0.445,-0.02,
2962,-0.455,-0.01,
2963,-0.46,-0.005,
2964,-0.475,-0.01,
2965,-0.465,-0.02,
2966,-0.455,-0.02,
2967,-0.445,-0.025,
2968,-0.435,-0.035,
2969,-0.43,-0.03,
2970,-0.415,-0.025,
2971,-0.425,-0.01,
2972,-0.425,-0.015,
2973,-0.435,0.01,
2974,-0.435,0.025,
2975,-0.43,-0.01,
2976,-0.41,-0.04,
2977,-0.365,-0.035,
2978,-0.335,0.0,
2979,-0.335,0.055,
2980,-0.36,0.07,
2981,-0.36,0.045,
2982,-0.36,0.035,
2983,-0.34,0.01,
2984,-0.335,0.02,
2985,-0.345,0.04,
2986,-0.35,0.04,
2987,-0.35,0.045,
2988,-0.345,0.05,
2989,-0.325,0.06,
2990,-0.315,0.07,
2991,-0.32,0.065,
2992,-0.325,0.025,
2993,-0.325,-0.045,
2994,-0.35,-0.1,
2995,-0.345,-0.135,
2996,-0.36,-0.16,
2997,-0.39,-0.175,
2998,-0.4,-0.195,
2999,-0.41,-0.2,
3000,-0.42,-0.175,
3001,-0.41,-0.15,
3002,-0.415,-0.155,
3003,-0.455,-0.15,
3004,-0.465,-0.155,
3005,-0.47,-0.16,
3006,-0.485,-0.155,
3007,-0.465,-0.165,
3008,-0.445,-0.19,
3009,-0.455,-0.225,
3010,-0.47,-0.235,
3011,-0.47,-0.23,
3012,-0.465,-0.215,
3013,-0.455,-0.205,
3014,-0.46,-0.195,
3015,-0.47,-0.2,
3016,-0.5,-0.22,
3017,-0.55,-0.235,
3018,-0.55,-0.245,
3019,-0.54,-0.25,
3020,-0.53,-0.26,
3021,-0.52,-0.26,
3022,-0.515,-0.255,
3023,-0.53,-0.265,
3024,-0.535,-0.255,
3025,-0.54,-0.25,
3026,-0.535,-0.27,
3027,-0.55,-0.3,
3028,-0.55,-0.29,
3029,-0.555,-0.285,
3030,-0.555,-0.29,
3031,-0.55,-0.285,
3032,-0.54,-0.28,
3033,-0.54,-0.27,
3034,-0.55,-0.275,
3035,-0.57,-0.27,
3036,-0.58,-0.275,
3037,-0.575,-0.285,
3038,-0.565,-0.285,
3039,-0.575,-0.28,
3040,-0.58,-0.295,
3041,-0.58,-0.29,
3042,-0.565,-0.24,
3043,-0.53,-0.195,
3044,-0.495,-0.17,
3045,-0.495,-0.135,
3046,-0.5,-0.115,
3047,-0.515,-0.165,
3048,-0.515,-0.175,
3049,-0.47,-0.15,
3050,-0.44,-0.105,
3051,-0.42,-0.065,
3052,-0.435,-0.055,
3053,-0.44,-0.065,
3054,-0.45,-0.09,
3055,-0.445,-0.08,
3056,-0.455,-0.065,
3057,-0.465,-0.075,
3058,-0.485,-0.1,
3059,-0.49,-0.115,
3060,-0.47,-0.105,
3061,-0.44,-0.095,
3062,-0.425,-0.065,
3063,-0.41,-0.06,
3064,-0.425,-0.05,
3065,-0.43,-0.06,
3066,-0.435,-0.045,
3067,-0.44,-0.06,
3068,-0.445,-0.045,
3069,-0.43,-0.04,
3070,-0.44,-0.04,
3071,-0.47,-0.06,
3072,-0.495,-0.075,
3073,-0.51,-0.085,
3074,-0.535,-0.1,
3075,-0.59,-0.085,
3076,-0.615,-0.17,
3077,-0.62,-0.375,
3078,-0.585,-0.64,
3079,-0.545,-0.88,
3080,-0.51,-1.17,
3081,-0.485,-1.51,
3082,-0.42,-1.905,
3083,-0.37,-2.305,
3084,-0.36,-2.61,
3085,-0.355,-2.805,
3086,-0.33,-2.9,
3087,-0.325,-2.92,
3088,-0.3,-2.895,
3089,-0.21,-2.8,
3090,-0.065,-2.56,
3091,0.12,-2.125,
3092,0.315,-1.49,
3093,0.41,-0.855,
3094,0.425,-0.285,N
3095,0.375,-0.045,
3096,0.31,0.055,
3097,0.215,0.13,
3098,0.075,0.155,
3099,-0.065,0.14,
3100,-0.19,0.12,
3101,-0.27,0.13,
3102,-0.31,0.165,
3103,-0.32,0.19,
3104,-0.325,0.205,
3105,-0.335,0.19,
3106,-0.365,0.2,
3107,-0.38,0.165,
3108,-0.4,0.17,
3109,-0.375,0.19,
3110,-0.345,0.22,
3111,-0.335,0.215,
3112,-0.315,0.235,
3113,-0.335,0.24,
3114,-0.33,0.235,
3115,-0.32,0.24,
3116,-0.325,0.215,
3117,-0.34,0.185,
3118,-0.375,0.16,
3119,-0.375,0.17,
3120,-0.375,0.165,
3121,-0.345,0.185,
3122,-0.315,0.195,
3123,-0.31,0.225,
3124,-0.33,0.225,
3125,-0.35,0.215,
3126,-0.39,0.22,
3127,-0.395,0.225,
3128,-0.37,0.225,
3129,-0.325,0.2,
3130,-0.305,0.195,
3131,-0.29,0.18,
3132,-0.285,0.185,
3133,-0.295,0.21,
3134,-0.295,0.22,
3135,-0.285,0.205,
3136,-0.265,0.19,
3137,-0.27,0.185,
3138,-0.285,0.185,
3139,-0.27,0.205,
3140,-0.255,0.23,
3141,-0.255,0.255,
3142,-0.27,0.245,
3143,-0.275,0.235,
3144,-0.275,0.215,
3145,-0.255,0.205,
3146,-0.25,0.2,
3147,-0.255,0.19,
3148,-0.26,0.155,
3149,-0.25,0.12,
3150,-0.245,0.135,
3151,-0.235,0.16,
3152,-0.215,0.175,
3153,-0.215,0.2,
3154,-0.215,0.19,
3155,-0.215,0.175,
3156,-0.185,0.18,
3157,-0.16,0.195,
3158,-0.135,0.185,
3159,-0.12,0.16,
3160,-0.105,0.11,
3161,-0.145,0.075,
3162,-0.15,0.055,
3163,-0.145,0.065,
3164,-0.135,0.095,
3165,-0.115,0.1,
3166,-0.115,0.08,
3167,-0.12,0.02,
3168,-0.11,0.045,
3169,-0.095,0.045,
3170,-0.1,0.055,
3171,-0.095,0.03,
3172,-0.11,-0.01,
3173,-0.13,-0.025,
3174,-0.145,-0.035,
3175,-0.125,-0.065,
3176,-0.095,-0.065,
3177,-0.075,-0.09,
3178,-0.06,-0.12,
3179,-0.05,-0.14,
3180,-0.05,-0.14,
3181,-0.06,-0.115,
3182,-0.05,-0.12,
3183,-0.065,-0.12,
3184,-0.075,-0.155,
3185,-0.085,-0.19,
3186,-0.09,-0.22,
3187,-0.085,-0.23,
3188,-0.085,-0.205,
3189,-0.09,-0.185,
3190,-0.105,-0.175,
3191,-0.115,-0.17,
3192,-0.13,-0.155,
3193,-0.135,-0.145,
3194,-0.14,-0.155,
3195,-0.17,-0.175,
3196,-0.185,-0.21,
3197,-0.165,-0.22,
3198,-0.145,-0.215,
3199,-0.15,-0.2,
3200,-0.17,-0.17,
3201,-0.21,-0.17,
3202,-0.215,-0.18,
3203,-0.245,-0.155,
3204,-0.265,-0.13,
3205,-0.245,-0.135,
3206,-0.23,-0.145,
3207,-0.23,-0.15,
3208,-0.255,-0.19,
3209,-0.265,-0.205,
3210,-0.3,-0.19,
3211,-0.305,-0.155,
3212,-0.315,-0.13,
3213,-0.31,-0.09,
3214,-0.33,-0.085,
3215,-0.355,-0.08,
3216,-0.36,-0.06,
3217,-0.335,-0.055,
3218,-0.3,-0.06,
3219,-0.29,-0.075,
3220,-0.305,-0.085,
3221,-0.32,-0.085,
3222,-0.335,-0.065,
3223,-0.345,-0.05,
3224,-0.34,-0.03,
3225,-0.355,-0.03,
3226,-0.365,-0.05,
3227,-0.35,-0.055,
3228,-0.36,-0.06,
3229,-0.35,-0.07,
3230,-0.35,-0.065,
3231,-0.36,-0.035,
3232,-0.375,-0.03,
3233,-0.38,-0.025,
3234,-0.395,0.0,
3235,-0.37,0.025,
3236,-0.365,0.04,
3237,-0.325,0.03,
3238,-0.325,0.005,
3239,-0.335,-0.01,
3240,-0.33,0.0,
3241,-0.335,0.005,
3242,-0.345,0.035,
3243,-0.38,0.035,
3244,-0.375,0.03,
3245,-0.385,0.03,
3246,-0.395,0.045,
3247,-0.375,0.06,
3248,-0.37,0.075,
3249,-0.37,0.08,
3250,-0.375,0.085,
3251,-0.39,0.07,
3252,-0.42,0.055,
3253,-0.42,0.06,
3254,-0.425,0.06,
3255,-0.4,0.065,
3256,-0.41,0.035,
3257,-0.415,0.005,
3258,-0.425,0.015,
3259,-0.425,0.05,
3260,-0.415,0.07,
3261,-0.4,0.08,
3262,-0.41,0.06,
3263,-0.445,0.025,
3264,-0.465,0.015,
3265,-0.465,0.04,
3266,-0.455,0.055,
3267,-0.425,0.035,
3268,-0.415,0.025,
3269,-0.4,0.015,
3270,-0.415,0.05,
3271,-0.415,0.045,
3272,-0.42,0.055,
3273,-0.415,0.065,
3274,-0.42,0.05,
3275,-0.425,0.025,
3276,-0.415,0.005,
3277,-0.41,-0.005,
3278,-0.4,0.005,
3279,-0.405,0.02,
3280,-0.405,0.035,
3281,-0.425,0.025,
3282,-0.44,0.03,
3283,-0.425,0.035,
3284,-0.43,0.045,
3285,-0.395,0.035,
3286,-0.4,0.005,
3287,-0.41,-0.045,
3288,-0.385,-0.04,
3289,-0.37,-0.015,
3290,-0.36,0.015,
3291,-0.33,0.035,
3292,-0.33,0.04,
3293,-0.34,0.06,
3294,-0.335,0.075,
3295,-0.29,0.085,
3296,-0.25,0.09,
3297,-0.245,0.09,
3298,-0.255,0.06,
3299,-0.265,0.05,
3300,-0.275,0.045,
3301,-0.27,0.065,
3302,-0.28,0.08,
3303,-0.29,0.04,
3304,-0.29,-0.015,
3305,-0.295,-0.065,
3306,-0.315,-0.125,
3307,-0.305,-0.15,
3308,-0.295,-0.16,
3309,-0.315,-0.175,
3310,-0.335,-0.2,
3311,-0.37,-0.2,
3312,-0.41,-0.18,
3313,-0.425,-0.165,
3314,-0.42,-0.145,
3315,-0.415,-0.13,
3316,-0.41,-0.135,
3317,-0.415,-0.145,
3318,-0.41,-0.145,
3319,-0.395,-0.14,
3320,-0.39,-0.155,
3321,-0.41,-0.165,
3322,-0.43,-0.195,
3323,-0.445,-0.205,
3324,-0.46,-0.205,
3325,-0.45,-0.18,
3326,-0.435,-0.17,
3327,-0.425,-0.175,
3328,-0.425,-0.18,
3329,-0.45,-0.175,
3330,-0.46,-0.16,
3331,-0.45,-0.17,
3332,-0.455,-0.17,
3333,-0.46,-0.195,
3334,-0.485,-0.26,
3335,-0.5,-0.34,
3336,-0.495,-0.355,
3337,-0.47,-0.315,
3338,-0.48,-0.29,
3339,-0.475,-0.28,
3340,-0.495,-0.3,
3341,-0.495,-0.31,
3342,-0.495,-0.31,
3343,-0.49,-0.29,
3344,-0.495,-0.29,
3345,-0.515,-0.28,
3346,-0.535,-0.285,
3347,-0.53,-0.285,
3348,-0.525,-0.27,
3349,-0.5,-0.245,
3350,-0.47,-0.235,
3351,-0.44,-0.22,
3352,-0.41,-0.21,
3353,-0.39,-0.215,
3354,-0.37,-0.205,
3355,-0.355,-0.155,
3356,-0.375,-0.115,
3357,-0.37,-0.075,
3358,-0.375,-0.075,
3359,-0.36,-0.085,
3360,-0.35,-0.045,
3361,-0.34,-0.02,
3362,-0.33,0.005,
3363,-0.34,-0.01,
3364,-0.35,-0.025,
3365,-0.365,-0.045,
3366,-0.37,-0.04,
3367,-0.355,-0.06,
3368,-0.34,-0.06,
3369,-0.33,-0.055,
3370,-0.315,-0.07,
3371,-0.325,-0.095,
3372,-0.33,-0.075,
3373,-0.305,-0.035,
3374,-0.29,-0.02,
3375,-0.29,-0.025,
3376,-0.29,-0.045,
3377,-0.305,-0.075,
3378,-0.31,-0.055,
3379,-0.31,-0.02,
3380,-0.33,0.0,
3381,-0.365,-0.02,
3382,-0.42,-0.045,
3383,-0.46,-0.055,
3384,-0.5,-0.01,
3385,-0.52,0.0,
3386,-0.505,-0.13,
3387,-0.46,-0.405,
3388,-0.41,-0.71,
3389,-0.38,-1.025,
3390,-0.325,-1.37,
3391,-0.27,-1.75,
3392,-0.25,-2.165,
3393,-0.235,-2.505,
3394,-0.22,-2.745,
3395,-0.21,-2.845,
3396,-0.185,-2.845,
3397,-0.095,-2.755,
3398,0.045,-2.54,
3399,0.245,-2.175,
3400,0.44,-1.575,
3401,0.555,-0.94,
3402,0.57,-0.39,N
3403,0.53,-0.06,
3404,0.46,0.08,
3405,0.365,0.145,
3406,0.25,0.17,
3407,0.09,0.135,
3408,-0.04,0.095,
3409,-0.125,0.11,
3410,-0.165,0.18,
3411,-0.195,0.23,
3412,-0.225,0.24,
3413,-0.23,0.205,
3414,-0.245,0.19,
3415,-0.24,0.18,
3416,-0.22,0.185,
3417,-0.195,0.19,
3418,-0.18,0.195,
3419,-0.205,0.18,
3420,-0.235,0.195,
3421,-0.24,0.22,
3422,-0.25,0.245,
3423,-0.26,0.255,
3424,-0.27,0.225,
3425,-0.265,0.22,
3426,-0.245,0.225,
3427,-0.215,0.235,
3428,-0.215,0.255,
3429,-0.185,0.24,
3430,-0.19,0.2,
3431,-0.195,0.185,
3432,-0.205,0.175,
3433,-0.205,0.2,
3434,-0.185,0.205,
3435,-0.18,0.21,
3436,-0.195,0.2,
3437,-0.19,0.2,
3438,-0.195,0.21,
3439,-0.205,0.235,
3440,-0.19,0.215,
3441,-0.195,0.22,
3442,-0.17,0.235,
3443,-0.17,0.225,
3444,-0.145,0.205,
3445,-0.14,0.21,
3446,-0.115,0.22,
3447,-0.115,0.24,
3448,-0.13,0.205,
3449,-0.15,0.18,
3450,-0.15,0.165,
3451,-0.165,0.165,
3452,-0.14,0.175,
3453,-0.14,0.18,
3454,-0.12,0.195,
3455,-0.11,0.19,
3456,-0.09,0.205,
3457,-0.085,0.21,
3458,-0.09,0.21,
3459,-0.105,0.2,
3460,-0.125,0.195,
3461,-0.135,0.18,
3462,-0.14,0.19,
3463,-0.14,0.195,
3464,-0.115,0.21,
3465,-0.105,0.215,
3466,-0.1,0.22,
3467,-0.09,0.22,
3468,-0.07,0.19,
3469,-0.05,0.17,
3470,-0.045,0.155,
3471,-0.01,0.155,
3472,-0.025,0.135,
3473,-0.025,0.125,
3474,-0.015,0.12,
3475,0.005,0.105,
3476,0.005,0.09,
3477,0.03,0.085,
3478,0.03,0.07,
3479,0.015,0.06,
3480,-0.005,0.055,
3481,-0.015,0.04,
3482,-0.005,0.035,
3483,0.01,0.025,
3484,0.035,0.0,
3485,0.065,-0.025,
3486,0.085,-0.035,
3487,0.08,-0.04,
3488,0.06,-0.04,
3489,0.045,-0.065,
3490,0.035,-0.11,
3491,0.035,-0.125,
3492,0.045,-0.11,
3493,0.065,-0.1,
3494,0.07,-0.11,
3495,0.08,-0.14,
3496,0.085,-0.145,
3497,0.055,-0.145,
3498,0.045,-0.135,
3499,0.045,-0.125,
3500,0.04,-0.115,
3501,0.035,-0.135,
3502,0.01,-0.155,
3503,0.01,-0.16,
3504,0.02,-0.175,
3505,0.03,-0.165,
3506,0.03,-0.145,
3507,0.02,-0.15,
3508,-0.02,-0.165,
3509,-0.055,-0.2,
3510,-0.085,-0.235,
3511,-0.075,-0.235,
3512,-0.08,-0.215,
3513,-0.075,-0.195,
3514,-0.08,-0.17,
3515,-0.08,-0.14,
3516,-0.105,-0.105,
3517,-0.12,-0.11,
3518,-0.125,-0.135,
3519,-0.14,-0.145,
3520,-0.165,-0.135,
3521,-0.185,-0.15,
3522,-0.205,-0.11,
3523,-0.195,-0.11,
3524,-0.19,-0.085,
3525,-0.205,-0.07,
3526,-0.2,-0.07,
3527,-0.2,-0.085,
3528,-0.215,-0.08,
3529,-0.23,-0.075,
3530,-0.215,-0.08,
3531,-0.225,-0.085,
3532,-0.235,-0.05,
3533,-0.245,-0.045,
3534,-0.27,-0.06,
3535,-0.26,-0.08,
3536,-0.265,-0.07,
3537,-0.26,-0.055,
3538,-0.27,-0.035,
3539,-0.275,-0.035,
3540,-0.285,-0.015,
3541,-0.27,0.0,
3542,-0.26,0.02,
3543,-0.25,0.035,
3544,-0.265,0.0,
3545,-0.28,-0.015,
3546,-0.285,0.02,
3547,-0.3,0.05,
3548,-0.315,0.045,
3549,-0.32,0.01,
3550,-0.32,0.005,
3551,-0.33,0.01,
3552,-0.315,0.055,
3553,-0.285,0.065,
3554,-0.28,0.08,
3555,-0.28,0.095,
3556,-0.315,0.09,
3557,-0.335,0.065,
3558,-0.345,0.075,
3559,-0.33,0.09,
3560,-0.34,0.08,
3561,-0.35,0.08,
3562,-0.355,0.055,
3563,-0.375,0.05,
3564,-0.39,0.04,
3565,-0.385,0.05,
3566,-0.39,0.06,
3567,-0.385,0.07,
3568,-0.38,0.065,
3569,-0.365,0.06,
3570,-0.39,0.07,
3571,-0.39,0.075,
3572,-0.385,0.085,
3573,-0.38,0.075,
3574,-0.38,0.05,
3575,-0.395,0.015,
3576,-0.39,0.005,
3577,-0.385,-0.005,
3578,-0.355,0.015,
3579,-0.355,0.015,
3580,-0.365,0.0,
3581,-0.39,0.0,
3582,-0.405,0.035,
3583,-0.4,0.055,
3584,-0.37,0.03,
3585,-0.345,0.015,
3586,-0.325,-0.01,
3587,-0.33,-0.02,
3588,-0.35,0.03,
3589,-0.35,0.045,
3590,-0.345,0.065,
3591,-0.33,0.045,
3592,-0.31,0.015,
3593,-0.31,0.015,
3594,-0.3,0.055,
3595,-0.275,0.07,
3596,-0.255,0.08,
3597,-0.23,0.095,
3598,-0.23,0.09,
3599,-0.23,0.07,
3600,-0.25,0.07,
3601,-0.26,0.055,
3602,-0.25,0.08,
3603,-0.235,0.08,
3604,-0.22,0.03,
3605,-0.235,-0.065,
3606,-0.25,-0.125,
3607,-0.285,-0.165,
3608,-0.305,-0.165,
3609,-0.33,-0.14,
3610,-0.34,-0.135,
3611,-0.35,-0.135,
3612,-0.375,-0.14,
3613,-0.38,-0.15,
3614,-0.37,-0.15,
3615,-0.38,-0.145,
3616,-0.395,-0.155,
3617,-0.42,-0.175,
3618,-0.435,-0.195,
3619,-0.435,-0.185,
3620,-0.425,-0.18,
3621,-0.42,-0.13,
3622,-0.415,-0.14,
3623,-0.425,-0.19,
3624,-0.41,-0.205,
3625,-0.42,-0.2,
3626,-0.43,-0.21,
3627,-0.445,-0.19,
3628,-0.465,-0.205,
3629,-0.47,-0.215,
3630,-0.47,-0.215,
3631,-0.46,-0.215,
3632,-0.45,-0.21,
3633,-0.46,-0.215,
3634,-0.48,-0.245,
3635,-0.475,-0.24,
3636,-0.495,-0.245,
3637,-0.495,-0.245,
3638,-0.51,-0.24,
3639,-0.495,-0.24,
3640,-0.5,-0.24,
3641,-0.505,-0.235,
3642,-0.505,-0.195,
3643,-0.505,-0.17,
3644,-0.475,-0.145,
3645,-0.46,-0.145,
3646,-0.465,-0.145,
3647,-0.455,-0.155,
3648,-0.445,-0.14,
3649,-0.43,-0.1,
3650,-0.41,-0.08,
3651,-0.41,-0.07,
3652,-0.41,-0.08,
3653,-0.43,-0.06,
3654,-0.42,-0.045,
3655,-0.405,-0.005,
3656,-0.39,0.015,
3657,-0.36,0.005,
3658,-0.35,-0.045,
3659,-0.365,-0.06,
3660,-0.37,-0.025,
3661,-0.36,0.0,
3662,-0.355,-0.005,
3663,-0.35,-0.015,
3664,-0.37,-0.035,
3665,-0.375,-0.05,
3666,-0.365,-0.035,
3667,-0.36,-0.005,
3668,-0.355,0.005,
3669,-0.355,0.01,
3670,-0.36,-0.01,
3671,-0.38,0.015,
3672,-0.39,0.03,
3673,-0.405,0.03,
3674,-0.415,0.005,
3675,-0.44,0.0,
3676,-0.495,0.01,
3677,-0.515,-0.03,
3678,-0.535,-0.205,
3679,-0.505,-0.485,
3680,-0.49,-0.76,
3681,-0.46,-1.055,
3682,-0.44,-1.405,
3683,-0.435,-1.805,
3684,-0.425,-2.165,
3685,-0.395,-2.46,
3686,-0.34,-2.69,
3687,-0.275,-2.84,
3688,-0.23,-2.89,
3689,-0.195,-2.84,
3690,-0.11,-2.565,
3691,0.065,-1.96,
3692,0.305,-1.325,
3693,0.42,-0.69,
3694,0.42,-0.055,N
3695,0.35,0.21,
3696,0.23,0.23,
3697,0.11,0.22,
3698,-0.015,0.205,
3699,-0.1,0.21,
3700,-0.165,0.22,
3701,-0.21,0.23,
3702,-0.24,0.26,
3703,-0.245,0.295,
3704,-0.23,0.305,
3705,-0.235,0.31,
3706,-0.26,0.305,
3707,-0.275,0.275,
3708,-0.29,0.25,
3709,-0.285,0.265,
3710,-0.28,0.285,
3711,-0.27,0.29,
3712,-0.265,0.295,
3713,-0.265,0.28,
3714,-0.27,0.275,
3715,-0.265,0.265,
3716,-0.25,0.265,
3717,-0.26,0.245,
3718,-0.265,0.225,
3719,-0.265,0.195,
3720,-0.275,0.215,
3721,-0.26,0.255,
3722,-0.235,0.295,
3723,-0.22,0.33,
3724,-0.205,0.32,
3725,-0.215,0.28,
3726,-0.215,0.275,
3727,-0.23,0.315,
3728,-0.2,0.33,
3729,-0.2,0.315,
3730,-0.205,0.275,
3731,-0.195,0.26,
3732,-0.21,0.25,
3733,-0.19,0.27,
3734,-0.17,0.28,
3735,-0.17,0.295,
3736,-0.185,0.265,
3737,-0.195,0.255,
3738,-0.2,0.25,
3739,-0.18,0.265,
3740,-0.15,0.275,
3741,-0.125,0.27,
3742,-0.12,0.28,
3743,-0.12,0.285,
3744,-0.1,0.295,
3745,-0.09,0.315,
3746,-0.085,0.295,
3747,-0.09,0.3,
3748,-0.09,0.28,
3749,-0.09,0.275,
3750,-0.095,0.26,
3751,-0.075,0.285,
3752,-0.07,0.285,
3753,-0.065,0.255,
3754,-0.06,0.24,
3755,-0.06,0.23,
3756,-0.055,0.225,
3757,-0.045,0.24,
3758,-0.02,0.265,
3759,-0.01,0.24,
3760,0.005,0.21,
3761,-0.01,0.185,
3762,-0.01,0.18,
3763,0.0,0.19,
3764,0.03,0.22,
3765,0.045,0.19,
3766,0.04,0.15,
3767,0.02,0.12,
3768,0.025,0.11,
3769,0.035,0.1,
3770,0.04,0.08,
3771,0.075,0.02,
3772,0.06,-0.025,
3773,0.065,-0.045,
3774,0.045,-0.05,
3775,0.035,-0.045,
3776,0.04,-0.035,
3777,0.06,-0.03,
3778,0.05,-0.06,
3779,0.065,-0.07,
3780,0.05,-0.075,
3781,0.055,-0.08,
3782,0.06,-0.09,
3783,0.055,-0.115,
3784,0.06,-0.16,
3785,0.035,-0.18,
3786,0.015,-0.18,
3787,0.025,-0.175,
3788,0.045,-0.16,
3789,0.035,-0.165,
3790,0.035,-0.16,
3791,0.03,-0.145,
3792,0.01,-0.15,
3793,-0.005,-0.155,
3794,-0.02,-0.15,
3795,-0.025,-0.125,
3796,-0.04,-0.125,
3797,-0.04,-0.135,
3798,-0.06,-0.115,
3799,-0.06,-0.1,
3800,-0.07,-0.095,
3801,-0.095,-0.12,
3802,-0.1,-0.12,
3803,-0.12,-0.14,
3804,-0.155,-0.115,
3805,-0.145,-0.095,
3806,-0.135,-0.08,
3807,-0.125,-0.1,
3808,-0.14,-0.14,
3809,-0.15,-0.125,
3810,-0.16,-0.095,
3811,-0.19,-0.06,
3812,-0.175,-0.05,
3813,-0.175,-0.055,
3814,-0.18,-0.095,
3815,-0.185,-0.1,
3816,-0.2,-0.06,
3817,-0.205,-0.04,
3818,-0.225,-0.025,
3819,-0.215,-0.025,
3820,-0.22,-0.04,
3821,-0.24,-0.04,
3822,-0.26,-0.04,
3823,-0.27,-0.04,
3824,-0.245,-0.025,
3825,-0.235,-0.01,
3826,-0.24,0.0,
3827,-0.235,-0.01,
3828,-0.255,-0.015,
3829,-0.235,0.02,
3830,-0.24,0.055,
3831,-0.255,0.06,
3832,-0.265,0.045,
3833,-0.295,0.02,
3834,-0.305,0.03,
3835,-0.285,0.075,
3836,-0.255,0.085,
3837,-0.27,0.06,
3838,-0.275,0.065,
3839,-0.3,0.07,
3840,-0.315,0.075,
3841,-0.33,0.075,
3842,-0.345,0.075,
3843,-0.35,0.07,
3844,-0.34,0.04,
3845,-0.34,0.015,
3846,-0.335,0.03,
3847,-0.325,0.06,
3848,-0.315,0.07,
3849,-0.315,0.07,
3850,-0.335,0.09,
3851,-0.35,0.085,
3852,-0.355,0.07,
3853,-0.35,0.075,
3854,-0.34,0.085,
3855,-0.35,0.08,
3856,-0.35,0.07,
3857,-0.365,0.045,
3858,-0.375,0.03,
3859,-0.38,0.03,
3860,-0.36,0.04,
3861,-0.365,0.04,
3862,-0.365,0.015,
3863,-0.375,0.01,
3864,-0.385,0.01,
3865,-0.365,0.035,
3866,-0.345,0.05,
3867,-0.34,0.03,
3868,-0.36,0.005,
3869,-0.365,0.015,
3870,-0.38,0.035,
3871,-0.37,0.045,
3872,-0.38,0.03,
3873,-0.36,0.0,
3874,-0.35,-0.005,
3875,-0.365,-0.02,
3876,-0.385,-0.035,
3877,-0.39,-0.02,
3878,-0.39,0.04,
3879,-0.395,0.07,
3880,-0.38,0.06,
3881,-0.37,0.03,
3882,-0.365,0.0,
3883,-0.345,0.02,
3884,-0.31,0.07,
3885,-0.3,0.075,
3886,-0.29,0.07,
3887,-0.285,0.055,
3888,-0.285,0.04,
3889,-0.27,0.04,
3890,-0.25,0.05,
3891,-0.245,0.055,
3892,-0.235,0.045,
3893,-0.25,0.05,
3894,-0.26,0.085,
3895,-0.25,0.14,
3896,-0.24,0.14,
3897,-0.245,0.09,
3898,-0.245,0.005,
3899,-0.275,-0.075,
3900,-0.265,-0.135,
3901,-0.27,-0.155,
3902,-0.285,-0.16,
3903,-0.3,-0.175,
3904,-0.325,-0.18,
3905,-0.365,-0.16,
3906,-0.39,-0.125,
3907,-0.385,-0.085,
3908,-0.36,-0.06,
3909,-0.37,-0.075,
3910,-0.385,-0.135,
3911,-0.415,-0.19,
3912,-0.42,-0.225,
3913,-0.42,-0.2,
3914,-0.405,-0.14,
3915,-0.415,-0.125,
3916,-0.43,-0.14,
3917,-0.43,-0.16,
3918,-0.455,-0.175,
3919,-0.455,-0.18,
3920,-0.455,-0.185,
3921,-0.43,-0.21,
3922,-0.425,-0.24,
3923,-0.435,-0.235,
3924,-0.455,-0.21,
3925,-0.475,-0.175,
3926,-0.47,-0.145,
3927,-0.48,-0.175,
3928,-0.48,-0.22,
3929,-0.48,-0.24,
3930,-0.49,-0.255,
3931,-0.48,-0.25,
3932,-0.455,-0.24,
3933,-0.45,-0.23,
3934,-0.47,-0.225,
3935,-0.505,-0.21,
3936,-0.52,-0.235,
3937,-0.51,-0.22,
3938,-0.485,-0.195,
3939,-0.445,-0.195,
3940,-0.44,-0.19,
3941,-0.44,-0.18,
3942,-0.445,-0.17,
3943,-0.415,-0.125,
3944,-0.405,-0.095,
3945,-0.395,-0.09,
3946,-0.395,-0.095,
3947,-0.375,-0.12,
3948,-0.38,-0.1,
3949,-0.385,-0.065,
3950,-0.385,-0.03,
3951,-0.38,-0.02,
3952,-0.385,-0.03,
3953,-0.38,-0.02,
3954,-0.385,-0.02,
3955,-0.375,-0.015,
3956,-0.345,0.0,
3957,-0.32,0.005,
3958,-0.325,0.005,
3959,-0.35,-0.005,
3960,-0.365,-0.03,
3961,-0.36,-0.035,
3962,-0.36,-0.04,
3963,-0.34,-0.025,
3964,-0.36,-0.025,
3965,-0.36,-0.005,
3966,-0.395,-0.02,
3967,-0.41,-0.045,
3968,-0.435,-0.06,
3969,-0.46,-0.04,
3970,-0.515,-0.04,
3971,-0.545,-0.19,
3972,-0.505,-0.49,
3973,-0.465,-0.795,
3974,-0.405,-1.09,
3975,-0.39,-1.45,
3976,-0.35,-1.885,
3977,-0.305,-2.29,
3978,-0.265,-2.585,
3979,-0.24,-2.735,
3980,-0.22,-2.765,
3981,-0.18,-2.725,
3982,-0.115,-2.59,
3983,0.03,-2.245,
3984,0.21,-1.62,
3985,0.365,-0.985,
3986,0.43,-0.35,N
3987,0.405,0.05,
3988,0.345,0.155,
3989,0.23,0.205,
3990,0.085,0.19,
3991,-0.02,0.165,
3992,-0.11,0.15,
3993,-0.165,0.2,
3994,-0.22,0.21,
3995,-0.27,0.21,
3996,-0.295,0.23,
3997,-0.32,0.25,
3998,-0.31,0.27,
3999,-0.295,0.27,
4000,-0.295,0.245,
4001,-0.285,0.225,
4002,-0.285,0.225,
4003,-0.275,0.255,
4004,-0.265,0.275,
4005,-0.255,0.26,
4006,-0.28,0.23,
4007,-0.285,0.225,
4008,-0.285,0.235,
4009,-0.245,0.27,
4010,-0.22,0.285,
4011,-0.235,0.275,
4012,-0.25,0.27,
4013,-0.255,0.26,
4014,-0.225,0.25,
4015,-0.205,0.24,
4016,-0.18,0.255,
4017,-0.16,0.285,
4018,-0.155,0.295,
4019,-0.18,0.26,
4020,-0.205,0.235,
4021,-0.215,0.26,
4022,-0.23,0.27,
4023,-0.235,0.27,
4024,-0.245,0.285,
4025,-0.24,0.285,
4026,-0.21,0.265,
4027,-0.195,0.29,
4028,-0.17,0.28,
4029,-0.165,0.255,
4030,-0.165,0.24,
4031,-0.155,0.23,
4032,-0.18,0.235,
4033,-0.175,0.285,
4034,-0.155,0.315,
4035,-0.145,0.315,
4036,-0.125,0.275,
4037,-0.125,0.24,
4038,-0.125,0.24,
4039,-0.115,0.26,
4040,-0.11,0.275,
4041,-0.125,0.28,
4042,-0.115,0.27,
4043,-0.115,0.255,
4044,-0.08,0.255,
4045,-0.05,0.255,
4046,-0.025,0.255,
4047,-0.005,0.235,
4048,-0.035,0.195,
4049,-0.04,0.17,
4050,-0.055,0.155,
4051,-0.06,0.175,
4052,-0.04,0.19,
4053,-0.025,0.155,
4054,-0.02,0.14,
4055,-0.01,0.115,
4056,-0.02,0.095,
4057,-0.02,0.1,
4058,-0.015,0.08,
4059,-0.005,0.06,
4060,-0.01,0.055,
4061,-0.01,0.05,
4062,-0.005,0.03,
4063,0.015,0.03,
4064,0.035,0.03,
4065,0.06,-0.02,
4066,0.05,-0.03,
4067,0.025,-0.03,
4068,0.025,-0.045,
4069,0.02,-0.055,
4070,0.025,-0.05,
4071,0.025,-0.04,
4072,0.035,-0.06,
4073,0.03,-0.08,
4074,0.02,-0.115,
4075,0.01,-0.1,
4076,0.01,-0.1,
4077,0.01,-0.115,
4078,0.0,-0.12,
4079,-0.015,-0.125,
4080,-0.04,-0.13,
4081,-0.04,-0.145,
4082,-0.01,-0.125,
4083,-0.015,-0.135,
4084,-0.015,-0.12,
4085,-0.03,-0.125,
4086,-0.06,-0.11,
4087,-0.08,-0.085,
4088,-0.095,-0.06,
4089,-0.095,-0.06,
4090,-0.095,-0.095,
4091,-0.11,-0.105,
4092,-0.12,-0.095,
4093,-0.115,-0.05,
4094,-0.125,-0.03,
4095,-0.135,-0.025,
4096,-0.17,-0.02,
4097,-0.2,-0.02,
4098,-0.225,-0.01,
4099,-0.245,-0.005,
4100,-0.235,-0.005,
4101,-0.23,0.0,
4102,-0.23,0.0,
4103,-0.25,0.01,
4104,-0.255,0.005,
4105,-0.265,-0.005,
4106,-0.255,0.005,
4107,-0.25,-0.005,
4108,-0.23,-0.01,
4109,-0.255,-0.02,
4110,-0.26,-0.015,
4111,-0.255,0.025,
4112,-0.255,0.055,
4113,-0.29,0.075,
4114,-0.295,0.07,
4115,-0.295,0.075,
4116,-0.31,0.05,
4117,-0.285,0.08,
4118,-0.255,0.07,
4119,-0.25,0.06,
4120,-0.255,0.05,
4121,-0.275,0.06,
4122,-0.28,0.1,
4123,-0.285,0.125,
4124,-0.285,0.125,
4125,-0.295,0.13,
4126,-0.305,0.125,
4127,-0.32,0.125,
4128,-0.315,0.13,
4129,-0.3,0.14,
4130,-0.28,0.14,
4131,-0.295,0.125,
4132,-0.305,0.12,
4133,-0.345,0.14,
4134,-0.355,0.145,
4135,-0.345,0.16,
4136,-0.335,0.175,
4137,-0.325,0.175,
4138,-0.33,0.165,
4139,-0.35,0.17,
4140,-0.36,0.15,
4141,-0.36,0.135,
4142,-0.37,0.14,
4143,-0.37,0.145,
4144,-0.38,0.125,
4145,-0.385,0.12,
4146,-0.405,0.095,
4147,-0.385,0.12,
4148,-0.375,0.125,
4149,-0.365,0.14,
4150,-0.38,0.135,
4151,-0.4,0.135,
4152,-0.4,0.14,
4153,-0.41,0.145,
4154,-0.405,0.14,
4155,-0.37,0.12,
4156,-0.355,0.09,
4157,-0.355,0.06,
4158,-0.355,0.065,
4159,-0.355,0.09,
4160,-0.375,0.11,
4161,-0.37,0.11,
4162,-0.38,0.08,
4163,-0.395,0.06,
4164,-0.4,0.035,
4165,-0.38,0.065,
4166,-0.365,0.09,
4167,-0.325,0.11,
4168,-0.335,0.105,
4169,-0.34,0.11,
4170,-0.345,0.08,
4171,-0.32,0.09,
4172,-0.305,0.12,
4173,-0.285,0.135,
4174,-0.26,0.145,
4175,-0.235,0.13,
4176,-0.225,0.125,
4177,-0.21,0.13,
4178,-0.2,0.115,
4179,-0.195,0.13,
4180,-0.22,0.135,
4181,-0.245,0.145,
4182,-0.265,0.155,
4183,-0.255,0.16,
4184,-0.225,0.12,
4185,-0.185,0.04,
4186,-0.19,-0.035,
4187,-0.205,-0.07,
4188,-0.24,-0.095,
4189,-0.285,-0.09,
4190,-0.32,-0.09,
4191,-0.355,-0.075,
4192,-0.355,-0.09,
4193,-0.345,-0.09,
4194,-0.345,-0.08,
4195,-0.335,-0.085,
4196,-0.36,-0.085,
4197,-0.365,-0.08,
4198,-0.395,-0.105,
4199,-0.425,-0.095,
4200,-0.415,-0.11,
4201,-0.4,-0.07,
4202,-0.37,-0.055,
4203,-0.35,-0.065,
4204,-0.35,-0.075,
4205,-0.365,-0.115,
4206,-0.39,-0.15,
4207,-0.41,-0.15,
4208,-0.425,-0.15,
4209,-0.42,-0.145,
4210,-0.435,-0.155,
4211,-0.46,-0.16,
4212,-0.45,-0.175,
4213,-0.46,-0.16,
4214,-0.455,-0.16,
4215,-0.445,-0.155,
4216,-0.465,-0.18,
4217,-0.475,-0.185,
4218,-0.485,-0.205,
4219,-0.46,-0.21,
4220,-0.43,-0.18,
4221,-0.435,-0.155,
4222,-0.475,-0.135,
4223,-0.49,-0.15,
4224,-0.515,-0.17,
4225,-0.5,-0.15,
4226,-0.465,-0.13,
4227,-0.43,-0.12,
4228,-0.41,-0.125,
4229,-0.405,-0.135,
4230,-0.38,-0.13,
4231,-0.37,-0.095,
4232,-0.355,-0.06,
4233,-0.365,-0.045,
4234,-0.39,-0.07,
4235,-0.415,-0.065,
4236,-0.41,-0.04,
4237,-0.4,0.01,
4238,-0.385,0.045,
4239,-0.36,0.035,
4240,-0.355,0.0,
4241,-0.335,-0.02,
4242,-0.335,-0.01,
4243,-0.3,0.005,
4244,-0.28,0.03,
4245,-0.275,0.035,
4246,-0.295,0.035,
4247,-0.32,0.01,
4248,-0.335,0.015,
4249,-0.33,0.04,
4250,-0.3,0.045,
4251,-0.285,0.05,
4252,-0.28,0.03,
4253,-0.305,0.04,
4254,-0.355,0.055,
4255,-0.345,0.11,
4256,-0.365,0.11,
4257,-0.395,0.1,
4258,-0.435,0.1,
4259,-0.46,0.085,
4260,-0.47,-0.065,
4261,-0.45,-0.325,
4262,-0.4,-0.625,
4263,-0.36,-0.98,
4264,-0.32,-1.42,
4265,-0.285,-1.905,
4266,-0.25,-2.345,
4267,-0.185,-2.62,
4268,-0.165,-2.745,
4269,-0.14,-2.755,
4270,-0.085,-2.675,
4271,0.04,-2.445,
4272,0.215,-1.975,
4273,0.42,-1.34,
4274,0.535,-0.705,
4275,0.545,-0.07,N
4276,0.47,0.24,
4277,0.38,0.27,
4278,0.29,0.275,
4279,0.15,0.245,
4280,0.005,0.21,
4281,-0.09,0.21,
4282,-0.155,0.225,
4283,-0.21,0.25,
4284,-0.23,0.265,
4285,-0.23,0.285,
4286,-0.235,0.305,
4287,-0.215,0.3,
4288,-0.24,0.285,
4289,-0.25,0.265,
4290,-0.26,0.25,
4291,-0.255,0.29,
4292,-0.24,0.325,
4293,-0.215,0.355,
4294,-0.195,0.335,
4295,-0.19,0.295,
4296,-0.175,0.265,
4297,-0.195,0.26,
4298,-0.2,0.29,
4299,-0.2,0.31,
4300,-0.2,0.29,
4301,-0.195,0.27,
4302,-0.21,0.28,
4303,-0.215,0.29,
4304,-0.21,0.31,
4305,-0.205,0.325,
4306,-0.19,0.325,
4307,-0.2,0.3,
4308,-0.22,0.265,
4309,-0.2,0.275,
4310,-0.18,0.28,
4311,-0.16,0.285,
4312,-0.155,0.275,
4313,-0.165,0.29,
4314,-0.16,0.315,
4315,-0.165,0.325,
4316,-0.175,0.315,
4317,-0.17,0.295,
4318,-0.155,0.28,
4319,-0.16,0.27,
4320,-0.145,0.26,
4321,-0.14,0.265,
4322,-0.115,0.295,
4323,-0.115,0.315,
4324,-0.13,0.315,
4325,-0.14,0.315,
4326,-0.11,0.285,
4327,-0.1,0.26,
4328,-0.075,0.245,
4329,-0.045,0.255,
4330,-0.05,0.27,
4331,-0.045,0.26,
4332,-0.065,0.235,
4333,-0.075,0.215,
4334,-0.07,0.195,
4335,-0.065,0.175,
4336,-0.065,0.18,
4337,-0.06,0.19,
4338,-0.03,0.205,
4339,-0.015,0.225,
4340,0.005,0.23,
4341,0.015,0.2,
4342,0.01,0.15,
4343,-0.005,0.125,
4344,-0.03,0.11,
4345,-0.005,0.13,
4346,0.01,0.1,
4347,0.035,0.08,
4348,0.045,0.055,
4349,0.06,0.04,
4350,0.05,0.0,
4351,0.03,-0.02,
4352,0.015,-0.06,
4353,0.03,-0.06,
4354,0.035,-0.045,
4355,0.065,-0.035,
4356,0.08,-0.02,
4357,0.07,-0.02,
4358,0.065,-0.03,
4359,0.045,-0.03,
4360,0.04,-0.065,
4361,0.035,-0.1,
4362,0.035,-0.12,
4363,0.04,-0.08,
4364,0.06,-0.065,
4365,0.06,-0.075,
4366,0.04,-0.085,
4367,0.01,-0.1,
4368,-0.015,-0.115,
4369,-0.04,-0.12,
4370,-0.065,-0.11,
4371,-0.065,-0.1,
4372,-0.05,-0.105,
4373,-0.06,-0.12,
4374,-0.095,-0.105,
4375,-0.115,-0.075,
4376,-0.125,-0.05,
4377,-0.14,-0.06,
4378,-0.165,-0.085,
4379,-0.195,-0.085,
4380,-0.19,-0.05,
4381,-0.195,-0.01,
4382,-0.19,0.015,
4383,-0.21,0.015,
4384,-0.245,0.015,
4385,-0.255,-0.03,
4386,-0.245,-0.055,
4387,-0.235,-0.03,
4388,-0.225,0.02,
4389,-0.225,0.015,
4390,-0.245,-0.035,
4391,-0.25,-0.065,
4392,-0.24,-0.05,
4393,-0.235,-0.005,
4394,-0.245,0.04,
4395,-0.265,0.045,
4396,-0.27,0.015,
4397,-0.235,0.02,
4398,-0.225,0.045,
4399,-0.22,0.07,
4400,-0.235,0.09,
4401,-0.235,0.095,
4402,-0.26,0.08,
4403,-0.27,0.075,
4404,-0.29,0.08,
4405,-0.285,0.105,
4406,-0.255,0.125,
4407,-0.265,0.135,
4408,-0.26,0.135,
4409,-0.275,0.135,
4410,-0.305,0.15,
4411,-0.325,0.155,
4412,-0.32,0.17,
4413,-0.305,0.165,
4414,-0.285,0.17,
4415,-0.3,0.175,
4416,-0.31,0.165,
4417,-0.315,0.165,
4418,-0.31,0.18,
4419,-0.305,0.165,
4420,-0.325,0.135,
4421,-0.355,0.075,
4422,-0.355,0.075,
4423,-0.37,0.11,
4424,-0.35,0.175,
4425,-0.345,0.205,
4426,-0.37,0.175,
4427,-0.37,0.155,
4428,-0.375,0.15,
4429,-0.38,0.135,
4430,-0.375,0.11,
4431,-0.37,0.1,
4432,-0.355,0.085,
4433,-0.36,0.06,
4434,-0.37,0.06,
4435,-0.365,0.085,
4436,-0.385,0.095,
4437,-0.405,0.085,
4438,-0.415,0.055,
4439,-0.39,0.065,
4440,-0.365,0.085,
4441,-0.355,0.085,
4442,-0.37,0.095,
4443,-0.37,0.11,
4444,-0.36,0.115,
4445,-0.34,0.08,
4446,-0.29,0.085,
4447,-0.22,0.115,
4448,-0.195,0.165,
4449,-0.205,0.185,
4450,-0.22,0.17,
4451,-0.24,0.12,
4452,-0.215,0.1,
4453,-0.205,0.095,
4454,-0.19,0.12,
4455,-0.17,0.135,
4456,-0.17,0.15,
4457,-0.19,0.15,
4458,-0.235,0.175,
4459,-0.255,0.145,
4460,-0.26,0.09,
4461,-0.25,0.01,
4462,-0.245,-0.08,
4463,-0.245,-0.12,
4464,-0.26,-0.135,
4465,-0.29,-0.08,
4466,-0.325,-0.04,
4467,-0.345,-0.04,
4468,-0.335,-0.07,
4469,-0.345,-0.1,
4470,-0.36,-0.115,
4471,-0.355,-0.1,
4472,-0.345,-0.085,
4473,-0.335,-0.1,
4474,-0.355,-0.115,
4475,-0.39,-0.115,
4476,-0.405,-0.115,
4477,-0.405,-0.095,
4478,-0.39,-0.1,
4479,-0.375,-0.1,
4480,-0.36,-0.12,
4481,-0.38,-0.145,
4482,-0.395,-0.185,
4483,-0.405,-0.175,
4484,-0.395,-0.16,
4485,-0.4,-0.18,
4486,-0.425,-0.195,
4487,-0.455,-0.225,
4488,-0.475,-0.225,
4489,-0.46,-0.195,
4490,-0.45,-0.195,
4491,-0.445,-0.185,
4492,-0.445,-0.185,
4493,-0.465,-0.175,
4494,-0.475,-0.15,
4495,-0.465,-0.135,
4496,-0.43,-0.145,
4497,-0.39,-0.155,
4498,-0.37,-0.14,
4499,-0.37,-0.135,
4500,-0.365,-0.11,
4501,-0.37,-0.065,
4502,-0.375,-0.025,
4503,-0.345,-0.025,
4504,-0.35,-0.03,
4505,-0.36,-0.045,
4506,-0.375,-0.04,
4507,-0.375,-0.005,
4508,-0.335,0.065,
4509,-0.33,0.09,
4510,-0.345,0.075,
4511,-0.335,0.065,
4512,-0.36,0.05,
4513,-0.33,0.05,
4514,-0.285,0.055,
4515,-0.245,0.035,
4516,-0.23,0.02,
4517,-0.255,0.02,
4518,-0.29,-0.005,
4519,-0.295,0.02,
4520,-0.3,0.065,
4521,-0.31,0.075,
4522,-0.32,0.065,
4523,-0.33,0.035,
4524,-0.37,0.01,
4525,-0.41,0.03,
4526,-0.45,0.08,
4527,-0.475,0.065,
4528,-0.48,-0.14,
4529,-0.47,-0.49,
4530,-0.435,-0.795,
4531,-0.375,-1.075,
4532,-0.325,-1.395,
4533,-0.285,-1.825,
4534,-0.265,-2.275,
4535,-0.245,-2.62,
4536,-0.23,-2.75,
4537,-0.21,-2.73,
4538,-0.115,-2.57,
4539,0.07,-2.2,
4540,0.305,-1.565,
4541,0.5,-0.93,
4542,0.53,-0.295,N
4543,0.44,0.2,
4544,0.35,0.285,
4545,0.265,0.29,
4546,0.115,0.285,
4547,-0.015,0.265,
4548,-0.11,0.29,
4549,-0.16,0.325,
4550,-0.205,0.35,
4551,-0.22,0.335,
4552,-0.21,0.28,
4553,-0.2,0.28,
4554,-0.19,0.295,
4555,-0.17,0.33,
4556,-0.165,0.325,
4557,-0.16,0.32,
4558,-0.145,0.325,
4559,-0.16,0.325,
4560,-0.185,0.31,
4561,-0.185,0.33,
4562,-0.19,0.33,
4563,-0.175,0.335,
4564,-0.17,0.335,
4565,-0.16,0.34,
4566,-0.17,0.335,
4567,-0.165,0.335,
4568,-0.175,0.325,
4569,-0.17,0.32,
4570,-0.175,0.315,
4571,-0.14,0.325,
4572,-0.12,0.3,
4573,-0.11,0.31,
4574,-0.09,0.31,
4575,-0.095,0.36,
4576,-0.115,0.37,
4577,-0.115,0.375,
4578,-0.115,0.345,
4579,-0.105,0.32,
4580,-0.095,0.3,
4581,-0.065,0.28,
4582,-0.065,0.28,
4583,-0.075,0.275,
4584,-0.09,0.305,
4585,-0.1,0.335,
4586,-0.105,0.325,
4587,-0.11,0.315,
4588,-0.11,0.31,
4589,-0.095,0.275,
4590,-0.08,0.27,
4591,-0.065,0.29,
4592,-0.03,0.315,
4593,0.01,0.325,
4594,-0.01,0.32,
4595,-0.045,0.32,
4596,-0.07,0.29,
4597,-0.05,0.28,
4598,-0.02,0.27,
4599,0.04,0.255,
4600,0.05,0.24,
4601,0.035,0.21,
4602,0.015,0.205,
4603,0.025,0.255,
4604,0.045,0.255,
4605,0.055,0.225,
4606,0.055,0.19,
4607,0.07,0.16,
4608,0.08,0.12,
4609,0.07,0.095,
4610,0.08,0.1,
4611,0.075,0.125,
4612,0.07,0.125,
4613,0.05,0.11,
4614,0.065,0.085,
4615,0.09,0.07,
4616,0.105,0.04,
4617,0.095,0.02,
4618,0.08,0.0,
4619,0.08,-0.04,
4620,0.09,-0.05,
4621,0.13,-0.05,
4622,0.155,-0.055,
4623,0.14,-0.085,
4624,0.115,-0.095,
4625,0.11,-0.115,
4626,0.085,-0.1,
4627,0.09,-0.095,
4628,0.12,-0.06,
4629,0.145,-0.045,
4630,0.14,-0.025,
4631,0.105,-0.02,
4632,0.085,-0.035,
4633,0.075,-0.045,
4634,0.085,-0.065,
4635,0.1,-0.11,
4636,0.095,-0.15,
4637,0.065,-0.165,
4638,0.005,-0.145,
4639,-0.005,-0.105,
4640,-0.02,-0.06,
4641,-0.03,-0.035,
4642,-0.04,-0.025,
4643,-0.07,-0.015,
4644,-0.08,-0.015,
4645,-0.065,-0.01,
4646,-0.065,0.01,
4647,-0.075,0.005,
4648,-0.09,-0.01,
4649,-0.105,-0.04,
4650,-0.13,-0.065,
4651,-0.115,-0.03,
4652,-0.105,0.005,
4653,-0.125,0.01,
4654,-0.125,-0.005,
4655,-0.135,-0.015,
4656,-0.16,-0.015,
4657,-0.18,0.0,
4658,-0.205,0.005,
4659,-0.23,0.005,
4660,-0.235,0.0,
4661,-0.215,0.0,
4662,-0.185,0.03,
4663,-0.185,0.065,
4664,-0.17,0.095,
4665,-0.195,0.075,
4666,-0.19,0.075,
4667,-0.215,0.06,
4668,-0.24,0.04,
4669,-0.235,0.065,
4670,-0.23,0.075,
4671,-0.225,0.085,
4672,-0.23,0.085,
4673,-0.255,0.085,
4674,-0.265,0.08,
4675,-0.25,0.125,
4676,-0.225,0.135,
4677,-0.215,0.15,
4678,-0.23,0.14,
4679,-0.27,0.14,
4680,-0.28,0.125,
4681,-0.27,0.11,
4682,-0.245,0.125,
4683,-0.245,0.13,
4684,-0.27,0.14,
4685,-0.275,0.135,
4686,-0.29,0.155,
4687,-0.315,0.165,
4688,-0.31,0.155,
4689,-0.315,0.16,
4690,-0.32,0.13,
4691,-0.32,0.11,
4692,-0.335,0.12,
4693,-0.325,0.125,
4694,-0.32,0.12,
4695,-0.305,0.13,
4696,-0.31,0.13,
4697,-0.335,0.135,
4698,-0.375,0.135,
4699,-0.34,0.12,
4700,-0.315,0.125,
4701,-0.31,0.095,
4702,-0.3,0.065,
4703,-0.305,0.06,
4704,-0.325,0.065,
4705,-0.315,0.08,
4706,-0.325,0.105,
4707,-0.33,0.095,
4708,-0.33,0.06,
4709,-0.345,0.055,
4710,-0.35,0.06,
4711,-0.34,0.06,
4712,-0.335,0.055,
4713,-0.34,0.035,
4714,-0.35,0.025,
4715,-0.335,0.015,
4716,-0.325,0.025,
4717,-0.315,0.05,
4718,-0.315,0.07,
4719,-0.29,0.09,
4720,-0.27,0.115,
4721,-0.255,0.12,
4722,-0.245,0.12,
4723,-0.235,0.11,
4724,-0.2,0.085,
4725,-0.175,0.08,
4726,-0.2,0.09,
4727,-0.22,0.125,
4728,-0.215,0.155,
4729,-0.2,0.195,
4730,-0.18,0.225,
4731,-0.18,0.21,
4732,-0.195,0.18,
4733,-0.2,0.105,
4734,-0.23,0.015,
4735,-0.25,-0.05,
4736,-0.26,-0.08,
4737,-0.25,-0.105,
4738,-0.265,-0.115,
4739,-0.285,-0.115,
4740,-0.31,-0.095,
4741,-0.305,-0.05,
4742,-0.3,-0.025,
4743,-0.285,-0.035,
4744,-0.285,-0.055,
4745,-0.28,-0.07,
4746,-0.295,-0.1,
4747,-0.3,-0.09,
4748,-0.285,-0.07,
4749,-0.305,-0.065,
4750,-0.34,-0.065,
4751,-0.37,-0.095,
4752,-0.365,-0.12,
4753,-0.355,-0.095,
4754,-0.36,-0.075,
4755,-0.38,-0.075,
4756,-0.4,-0.085,
4757,-0.395,-0.125,
4758,-0.405,-0.135,
4759,-0.395,-0.145,
4760,-0.395,-0.16,
4761,-0.385,-0.19,
4762,-0.395,-0.21,
4763,-0.41,-0.2,
4764,-0.45,-0.205,
4765,-0.44,-0.18,
4766,-0.42,-0.155,
4767,-0.415,-0.125,
4768,-0.42,-0.14,
4769,-0.43,-0.155,
4770,-0.44,-0.15,
4771,-0.445,-0.15,
4772,-0.43,-0.14,
4773,-0.415,-0.13,
4774,-0.395,-0.135,
4775,-0.375,-0.125,
4776,-0.365,-0.12,
4777,-0.35,-0.1,
4778,-0.34,-0.065,
4779,-0.325,-0.02,
4780,-0.32,-0.005,
4781,-0.325,0.0,
4782,-0.355,-0.015,
4783,-0.38,-0.02,
4784,-0.35,0.035,
4785,-0.31,0.075,
4786,-0.28,0.075,
4787,-0.27,0.07,
4788,-0.305,0.045,
4789,-0.31,0.045,
4790,-0.285,0.04,
4791,-0.27,0.03,
4792,-0.27,0.025,
4793,-0.29,0.01,
4794,-0.345,0.0,
4795,-0.345,0.025,
4796,-0.31,0.07,
4797,-0.29,0.1,
4798,-0.31,0.115,
4799,-0.335,0.09,
4800,-0.35,0.035,
4801,-0.38,0.0,
4802,-0.41,-0.015,
4803,-0.455,0.045,
4804,-0.49,0.055,
4805,-0.5,-0.11,
4806,-0.485,-0.44,
4807,-0.445,-0.785,
4808,-0.39,-1.12,
4809,-0.32,-1.5,
4810,-0.25,-1.92,
4811,-0.21,-2.315,
4812,-0.22,-2.55,
4813,-0.225,-2.65,
4814,-0.205,-2.625,
4815,-0.14,-2.52,
4816,-0.01,-2.28,
4817,0.19,-1.775,
4818,0.38,-1.14,
4819,0.485,-0.505,
4820,0.49,0.07,N
4821,0.445,0.22,
4822,0.405,0.285,
4823,0.295,0.315,
4824,0.13,0.305,
4825,-0.01,0.26,
4826,-0.1,0.245,
4827,-0.175,0.26,
4828,-0.22,0.28,
4829,-0.25,0.305,
4830,-0.255,0.32,
4831,-0.25,0.32,
4832,-0.235,0.34,
4833,-0.205,0.32,
4834,-0.215,0.3,
4835,-0.22,0.275,
4836,-0.245,0.265,
4837,-0.255,0.3,
4838,-0.255,0.315,
4839,-0.235,0.335,
4840,-0.22,0.33,
4841,-0.22,0.335,
4842,-0.245,0.325,
4843,-0.23,0.32,
4844,-0.23,0.325,
4845,-0.225,0.32,
4846,-0.23,0.305,
4847,-0.23,0.295,
4848,-0.24,0.28,
4849,-0.225,0.3,
4850,-0.2,0.325,
4851,-0.19,0.32,
4852,-0.185,0.33,
4853,-0.2,0.345,
4854,-0.21,0.345,
4855,-0.21,0.32,
4856,-0.195,0.33,
4857,-0.16,0.35,
4858,-0.135,0.345,
4859,-0.15,0.35,
4860,-0.165,0.34,
4861,-0.185,0.335,
4862,-0.185,0.34,
4863,-0.165,0.345,
4864,-0.16,0.37,
4865,-0.16,0.365,
4866,-0.16,0.37,
4867,-0.135,0.355,
4868,-0.1,0.34,
4869,-0.085,0.335,
4870,-0.065,0.335,
4871,-0.075,0.335,
4872,-0.12,0.32,
4873,-0.125,0.32,
4874,-0.12,0.345,
4875,-0.1,0.34,
4876,-0.105,0.335,
4877,-0.09,0.315,
4878,-0.085,0.31,
4879,-0.07,0.32,
4880,-0.055,0.32,
4881,-0.045,0.31,
4882,-0.055,0.27,
4883,-0.06,0.24,
4884,-0.045,0.225,
4885,-0.035,0.27,
4886,-0.005,0.28,
4887,0.015,0.255,
4888,0.02,0.24,
4889,0.015,0.225,
4890,-0.015,0.195,
4891,-0.015,0.155,
4892,-0.02,0.125,
4893,0.0,0.13,
4894,0.035,0.145,
4895,0.02,0.145,
4896,0.01,0.14,
4897,0.025,0.125,
4898,0.02,0.1,
4899,0.015,0.07,
4900,0.01,0.04,
4901,0.0,-0.005,
4902,0.0,-0.03,
4903,0.005,0.0,
4904,0.025,0.035,
4905,0.055,0.045,
4906,0.045,0.025,
4907,0.035,0.0,
4908,-0.015,-0.03,
4909,-0.005,-0.04,
4910,0.005,-0.04,
4911,0.01,-0.035,
4912,-0.005,-0.055,
4913,-0.015,-0.055,
4914,-0.03,-0.055,
4915,-0.045,-0.035,
4916,-0.065,-0.05,
4917,-0.09,-0.035,
4918,-0.1,-0.035,
4919,-0.11,-0.04,
4920,-0.12,-0.035,
4921,-0.125,-0.005,
4922,-0.13,0.035,
4923,-0.135,0.065,
4924,-0.14,0.065,
4925,-0.155,0.03,
4926,-0.17,0.01,
4927,-0.205,0.015,
4928,-0.23,0.05,
4929,-0.21,0.065,
4930,-0.21,0.07,
4931,-0.195,0.08,
4932,-0.21,0.07,
4933,-0.22,0.05,
4934,-0.245,0.05,
4935,-0.26,0.075,
4936,-0.28,0.105,
4937,-0.285,0.115,
4938,-0.295,0.1,
4939,-0.26,0.095,
4940,-0.26,0.1,
4941,-0.255,0.1,
4942,-0.255,0.105,
4943,-0.265,0.1,
4944,-0.285,0.105,
4945,-0.29,0.105,
4946,-0.275,0.125,
4947,-0.26,0.14,
4948,-0.265,0.135,
4949,-0.285,0.12,
4950,-0.305,0.12,
4951,-0.305,0.12,
4952,-0.28,0.135,
4953,-0.265,0.145,
4954,-0.275,0.155,
4955,-0.3,0.16,
4956,-0.305,0.15,
4957,-0.29,0.17,
4958,-0.265,0.18,
4959,-0.27,0.17,
4960,-0.28,0.14,
4961,-0.29,0.15,
4962,-0.295,0.165,
4963,-0.28,0.185,
4964,-0.285,0.205,
4965,-0.275,0.245,
4966,-0.29,0.255,
4967,-0.31,0.235,
4968,-0.355,0.205,
4969,-0.385,0.22,
4970,-0.4,0.225,
4971,-0.395,0.25,
4972,-0.41,0.27,
4973,-0.395,0.275,
4974,-0.405,0.235,
4975,-0.395,0.215,
4976,-0.405,0.22,
4977,-0.41,0.25,
4978,-0.415,0.24,
4979,-0.415,0.21,
4980,-0.385,0.18,
4981,-0.315,0.165,
4982,-0.24,0.165,
4983,-0.165,0.14,
4984,-0.13,0.14,
4985,-0.175,0.15,
4986,-0.295,0.17,
4987,-0.41,0.205,
4988,-0.495,0.235,
4989,-0.505,0.245,
4990,-0.495,0.235,
4991,-0.45,0.18,
4992,-0.37,0.165,
4993,-0.27,0.18,
4994,-0.245,0.2,
4995,-0.275,0.195,
4996,-0.29,0.165,
4997,-0.33,0.145,
4998,-0.335,0.185,
4999,-0.355,0.235,
5000,-0.35,0.255,
5001,-0.325,0.28,
5002,-0.305,0.25,
5003,-0.28,0.215,
5004,-0.24,0.18,
5005,-0.19,0.18,
5006,-0.13,0.17,|
5007,-0.105,0.165,
5008,-0.095,0.19,
5009,-0.105,0.245,
5010,-0.125,0.28,
5011,-0.14,0.315,
5012,-0.16,0.28,
5013,-0.19,0.18,
5014,-0.195,0.07,
5015,-0.185,0.005,
5016,-0.21,0.0,
5017,-0.255,0.03,
5018,-0.305,0.02,
5019,-0.305,-0.03,
5020,-0.295,-0.04,
5021,-0.31,-0.035,
5022,-0.345,-0.01,
5023,-0.395,0.005,
5024,-0.44,0.02,
5025,-0.49,0.025,
5026,-0.56,0.055,
5027,-0.585,0.055,
5028,-0.635,0.035,
5029,-0.61,0.03,
5030,-0.59,0.025,
5031,-0.545,0.015,
5032,-0.535,0.005,
5033,-0.535,-0.005,
5034,-0.52,-0.025,
5035,-0.51,-0.015,
5036,-0.485,-0.035,
5037,-0.46,-0.045,
5038,-0.44,-0.065,
5039,-0.45,-0.08,
5040,-0.45,-0.085,
5041,-0.435,-0.075,
5042,-0.405,-0.1,
5043,-0.385,-0.13,
5044,-0.39,-0.155,
5045,-0.37,-0.185,
5046,-0.365,-0.185,
5047,-0.355,-0.16,
5048,-0.355,-0.145,
5049,-0.385,-0.14,
5050,-0.45,-0.125,
5051,-0.515,-0.13,
5052,-0.56,-0.125,
5053,-0.565,-0.075,
5054,-0.55,-0.025,
5055,-0.52,0.0,
5056,-0.525,0.015,
5057,-0.555,0.04,
5058,-0.58,0.055,
5059,-0.56,0.06,
5060,-0.535,0.055,
5061,-0.495,0.055,
5062,-0.45,0.06,
5063,-0.41,0.055,
5064,-0.395,0.025,
5065,-0.355,0.01,
5066,-0.335,0.03,
5067,-0.315,0.055,
5068,-0.33,0.07,
5069,-0.355,0.065,
5070,-0.365,0.09,
5071,-0.36,0.12,
5072,-0.36,0.115,
5073,-0.345,0.1,
5074,-0.325,0.075,
5075,-0.285,0.065,
5076,-0.23,0.03,
5077,-0.16,0.01,
5078,-0.13,0.0,
5079,-0.12,0.02,
5080,-0.16,0.05,
5081,-0.24,0.08,
5082,-0.315,0.11,
5083,-0.4,0.14,
5084,-0.46,0.14,
5085,-0.53,0.15,
5086,-0.59,0.185,
5087,-0.63,0.185,
5088,-0.615,0.07,
5089,-0.55,-0.14,
5090,-0.46,-0.37,
5091,-0.435,-0.615,
5092,-0.44,-0.965,
5093,-0.46,-1.415,
5094,-0.49,-1.865,
5095,-0.485,-2.255,
5096,-0.475,-2.515,
5097,-0.455,-2.63,
5098,-0.46,-2.625,
5099,-0.365,-2.505,
5100,-0.195,-2.18,
5101,0.04,-1.59,
5102,0.265,-0.955,
5103,0.385,-0.32,
5104,0.385,0.205,
5105,0.345,0.35,
5106,0.3,0.38,N
5107,0.235,0.39,
5108,0.16,0.36,
5109,0.13,0.33,
5110,0.11,0.305,
5111,0.08,0.295,
5112,0.025,0.315,
5113,-0.04,0.35,
5114,-0.07,0.38,
5115,-0.095,0.39,
5116,-0.09,0.37,
5117,-0.12,0.33,
5118,-0.13,0.305,
5119,-0.125,0.31,
5120,-0.12,0.295,
5121,-0.125,0.275,
5122,-0.12,0.305,
5123,-0.16,0.35,
5124,-0.225,0.405,
5125,-0.275,0.435,
5126,-0.33,0.45,
5127,-0.39,0.45,
5128,-0.39,0.445,
5129,-0.395,0.44,
5130,-0.39,0.44,
5131,-0.37,0.435,
5132,-0.32,0.42,
5133,-0.305,0.41,
5134,-0.24,0.41,
5135,-0.24,0.4,
5136,-0.25,0.41,
5137,-0.255,0.41,
5138,-0.24,0.42,
5139,-0.23,0.42,
5140,-0.23,0.415,
5141,-0.21,0.41,
5142,-0.185,0.39,
5143,-0.15,0.395,
5144,-0.135,0.39,
5145,-0.11,0.395,
5146,-0.115,0.39,
5147,-0.14,0.38,
5148,-0.175,0.37,
5149,-0.185,0.38,
5150,-0.175,0.38,
5151,-0.155,0.37,
5152,-0.14,0.355,
5153,-0.14,0.345,
5154,-0.135,0.36,
5155,-0.125,0.395,
5156,-0.095,0.39,
5157,-0.085,0.38,
5158,-0.09,0.385,
5159,-0.095,0.36,
5160,-0.105,0.365,
5161,-0.09,0.35,
5162,-0.07,0.34,
5163,-0.045,0.375,
5164,-0.035,0.38,
5165,-0.025,0.36,
5166,-0.045,0.355,
5167,-0.055,0.37,
5168,-0.05,0.365,
5169,-0.015,0.37,
5170,0.02,0.335,
5171,0.035,0.29,
5172,0.045,0.265,
5173,0.035,0.255,
5174,0.03,0.255,
5175,0.025,0.24,
5176,0.025,0.255,
5177,0.025,0.265,
5178,0.03,0.26,
5179,0.02,0.245,
5180,0.03,0.22,
5181,0.035,0.225,
5182,0.04,0.21,
5183,0.015,0.185,
5184,0.02,0.17,
5185,0.025,0.175,
5186,0.06,0.17,
5187,0.08,0.16,
5188,0.085,0.145,
5189,0.11,0.085,
5190,0.11,0.06,
5191,0.11,0.07,
5192,0.115,0.065,
5193,0.115,0.03,
5194,0.11,0.015,
5195,0.12,0.02,
5196,0.12,0.03,
5197,0.1,0.05,
5198,0.085,0.065,
5199,0.095,0.05,
5200,0.09,0.035,
5201,0.095,0.005,
5202,0.095,-0.025,
5203,0.105,-0.025,
5204,0.115,-0.015,
5205,0.125,0.005,
5206,0.105,0.005,
5207,0.11,-0.02,
5208,0.105,-0.02,
5209,0.125,-0.05,
5210,0.125,-0.06,
5211,0.115,-0.055,
5212,0.08,-0.07,
5213,0.065,-0.055,
5214,0.035,-0.05,
5215,0.03,-0.03,
5216,0.035,0.01,
5217,0.035,0.04,
5218,0.03,0.035,
5219,0.025,0.02,
5220,0.02,0.025,
5221,0.02,0.04,
5222,0.01,0.065,
5223,0.02,0.055,
5224,-0.015,0.035,
5225,-0.02,-0.01,
5226,-0.055,-0.025,
5227,-0.085,0.0,
5228,-0.09,0.035,
5229,-0.09,0.075,
5230,-0.095,0.105,
5231,-0.09,0.115,
5232,-0.075,0.11,
5233,-0.05,0.12,
5234,-0.03,0.12,
5235,-0.03,0.125,
5236,-0.065,0.12,
5237,-0.09,0.125,
5238,-0.1,0.12,
5239,-0.1,0.125,
5240,-0.085,0.135,
5241,-0.075,0.155,
5242,-0.08,0.145,
5243,-0.09,0.115,
5244,-0.105,0.1,
5245,-0.12,0.125,
5246,-0.1,0.155,
5247,-0.095,0.175,
5248,-0.095,0.16,
5249,-0.11,0.16,
5250,-0.135,0.17,
5251,-0.135,0.22,
5252,-0.115,0.24,
5253,-0.115,0.24,
5254,-0.12,0.215,
5255,-0.13,0.21,
5256,-0.155,0.225,
5257,-0.14,0.24,
5258,-0.14,0.27,
5259,-0.115,0.28,
5260,-0.135,0.29,
5261,-0.15,0.28,
5262,-0.13,0.29,
5263,-0.115,0.305,
5264,-0.095,0.305,
5265,-0.09,0.27,
5266,-0.1,0.24,
5267,-0.105,0.2,
5268,-0.105,0.2,
5269,-0.125,0.22,
5270,-0.12,0.26,
5271,-0.13,0.285,
5272,-0.16,0.275,
5273,-0.155,0.26,
5274,-0.16,0.255,
5275,-0.185,0.275,
5276,-0.16,0.28,
5277,-0.145,0.29,
5278,-0.14,0.28,
5279,-0.155,0.265,
5280,-0.16,0.245,
5281,-0.175,0.26,
5282,-0.175,0.265,
5283,-0.15,0.275,
5284,-0.165,0.275,
5285,-0.165,0.27,
5286,-0.165,0.26,
5287,-0.17,0.255,
5288,-0.165,0.24,
5289,-0.15,0.225,
5290,-0.14,0.22,
5291,-0.14,0.215,
5292,-0.15,0.215,
5293,-0.155,0.24,
5294,-0.145,0.25,
5295,-0.15,0.255,
5296,-0.17,0.25,
5297,-0.18,0.25,
5298,-0.15,0.235,
5299,-0.135,0.215,
5300,-0.115,0.215,
5301,-0.1,0.205,
5302,-0.11,0.2,
5303,-0.135,0.205,
5304,-0.14,0.185,
5305,-0.15,0.195,
5306,-0.15,0.22,
5307,-0.14,0.22,
5308,-0.165,0.23,
5309,-0.185,0.215,
5310,-0.16,0.185,
5311,-0.145,0.185,
5312,-0.105,0.195,
5313,-0.095,0.21,
5314,-0.1,0.2,
5315,-0.105,0.205,
5316,-0.095,0.215,
5317,-0.105,0.225,
5318,-0.09,0.245,
5319,-0.05,0.275,
5320,-0.05,0.26,
5321,-0.045,0.245,
5322,-0.04,0.245,
5323,-0.04,0.235,
5324,-0.015,0.245,
5325,0.015,0.23,
5326,0.01,0.25,
5327,0.01,0.27,
5328,-0.005,0.28,
5329,-0.02,0.31,
5330,-0.005,0.32,
5331,0.01,0.265,
5332,0.015,0.22,
5333,0.005,0.17,
5334,-0.02,0.14,
5335,-0.04,0.105,
5336,-0.04,0.075,
5337,-0.02,0.07,
5338,-0.03,0.075,
5339,-0.065,0.06,
5340,-0.09,0.025,
5341,-0.115,0.03,
5342,-0.11,0.035,
5343,-0.1,0.035,
5344,-0.105,0.05,
5345,-0.125,0.03,
5346,-0.135,0.03,
5347,-0.15,0.04,
5348,-0.14,0.05,
5349,-0.125,0.035,
5350,-0.125,0.035,
5351,-0.15,0.025,
5352,-0.15,0.025,
5353,-0.17,0.03,
5354,-0.17,0.02,
5355,-0.145,0.01,
5356,-0.16,0.005,
5357,-0.17,-0.015,
5358,-0.175,-0.045,
5359,-0.195,-0.035,
5360,-0.205,-0.005,
5361,-0.205,0.015,
5362,-0.215,0.0,
5363,-0.225,-0.005,
5364,-0.24,-0.01,
5365,-0.23,-0.03,
5366,-0.2,-0.015,
5367,-0.195,-0.03,
5368,-0.19,-0.03,
5369,-0.2,-0.04,
5370,-0.215,-0.05,
5371,-0.235,-0.05,
5372,-0.23,-0.07,
5373,-0.21,-0.055,
5374,-0.22,-0.04,
5375,-0.225,-0.06,
5376,-0.24,-0.07,
5377,-0.255,-0.075,
5378,-0.245,-0.05,
5379,-0.23,-0.03,
5380,-0.22,-0.035,
5381,-0.215,-0.05,
5382,-0.22,-0.055,
5383,-0.21,-0.03,
5384,-0.19,-0.005,
5385,-0.145,0.03,
5386,-0.125,0.01,
5387,-0.125,0.0,
5388,-0.135,0.005,
5389,-0.15,0.02,
5390,-0.125,0.05,
5391,-0.105,0.075,
5392,-0.105,0.105,
5393,-0.095,0.13,
5394,-0.105,0.145,
5395,-0.105,0.17,
5396,-0.09,0.185,
5397,-0.07,0.17,
5398,-0.07,0.17,
5399,-0.07,0.17,
5400,-0.065,0.165,
5401,-0.085,0.17,
5402,-0.065,0.16,
5403,-0.055,0.17,
5404,-0.055,0.165,
5405,-0.05,0.14,
5406,-0.045,0.135,
5407,-0.04,0.135,
5408,-0.025,0.16,
5409,-0.02,0.17,
5410,-0.04,0.165,
5411,-0.04,0.145,
5412,-0.06,0.13,
5413,-0.055,0.125,
5414,-0.07,0.145,
5415,-0.065,0.16,
5416,-0.085,0.13,
5417,-0.11,0.13,
5418,-0.14,0.12,
5419,-0.18,0.14,
5420,-0.21,0.14,
5421,-0.21,0.17,
5422,-0.235,0.135,
5423,-0.23,-0.025,
5424,-0.215,-0.26,
5425,-0.19,-0.48,
5426,-0.15,-0.725,
5427,-0.115,-1.01,
5428,-0.075,-1.36,
5429,-0.055,-1.74,
5430,-0.03,-2.095,
5431,-0.02,-2.37,
5432,-0.015,-2.55,
5433,-0.005,-2.625,
5434,0.015,-2.64,
5435,0.045,-2.59,
5436,0.115,-2.465,
5437,0.245,-2.16,
5438,0.425,-1.7,
5439,0.58,-1.11,
5440,0.66,-0.56,
5441,0.665,-0.17,
5442,0.64,0.045,N
5443,0.595,0.18,
5444,0.55,0.275,
5445,0.465,0.34,
5446,0.355,0.355,
5447,0.23,0.325,
5448,0.135,0.305,
5449,0.085,0.335,
5450,0.035,0.365,
5451,-0.01,0.37,
5452,-0.055,0.37,
5453,-0.075,0.365,
5454,-0.07,0.34,
5455,-0.08,0.35,
5456,-0.065,0.355,
5457,-0.06,0.365,
5458,-0.075,0.36,
5459,-0.09,0.355,
5460,-0.085,0.335,
5461,-0.11,0.33,
5462,-0.095,0.325,
5463,-0.09,0.335,
5464,-0.095,0.345,
5465,-0.1,0.34,
5466,-0.1,0.335,
5467,-0.11,0.345,
5468,-0.09,0.345,
5469,-0.105,0.335,
5470,-0.085,0.33,
5471,-0.09,0.305,
5472,-0.1,0.295,
5473,-0.11,0.29,
5474,-0.115,0.31,
5475,-0.08,0.335,
5476,-0.08,0.34,
5477,-0.095,0.34,
5478,-0.095,0.315,
5479,-0.095,0.325,
5480,-0.095,0.345,
5481,-0.08,0.345,
5482,-0.095,0.335,
5483,-0.125,0.335,
5484,-0.11,0.34,
5485,-0.115,0.35,
5486,-0.095,0.35,
5487,-0.08,0.345,
5488,-0.075,0.35,
5489,-0.075,0.335,
5490,-0.095,0.35,
5491,-0.11,0.365,
5492,-0.095,0.355,
5493,-0.065,0.355,
5494,-0.065,0.345,
5495,-0.055,0.32,
5496,-0.055,0.3,
5497,-0.055,0.295,
5498,-0.055,0.315,
5499,-0.03,0.34,
5500,-0.035,0.35,
5501,-0.05,0.325,
5502,-0.04,0.295,
5503,-0.07,0.27,
5504,-0.065,0.265,
5505,-0.06,0.28,
5506,-0.06,0.3,
5507,-0.065,0.305,
5508,-0.05,0.315,
5509,-0.05,0.335,
5510,-0.01,0.335,
5511,0.015,0.325,
5512,0.0,0.3,
5513,-0.005,0.305,
5514,-0.015,0.315,
5515,-0.005,0.32,
5516,0.005,0.335,
5517,0.04,0.325,
5518,0.055,0.33,
5519,0.03,0.305,
5520,0.035,0.265,
5521,0.03,0.265,
5522,0.055,0.29,
5523,0.085,0.305,
5524,0.085,0.275,
5525,0.085,0.23,
5526,0.07,0.19,
5527,0.04,0.175,
5528,0.055,0.175,
5529,0.065,0.19,
5530,0.065,0.19,
5531,0.07,0.165,
5532,0.075,0.15,
5533,0.095,0.155,
5534,0.105,0.16,
5535,0.135,0.15,
5536,0.13,0.145,
5537,0.14,0.11,
5538,0.115,0.08,
5539,0.105,0.07,
5540,0.09,0.075,
5541,0.11,0.08,
5542,0.105,0.07,
5543,0.1,0.055,
5544,0.1,0.035,
5545,0.115,0.03,
5546,0.14,0.035,
5547,0.15,0.03,
5548,0.14,0.025,
5549,0.105,0.01,
5550,0.1,-0.015,
5551,0.115,-0.01,
5552,0.12,0.01,
5553,0.125,0.0,
5554,0.135,-0.005,
5555,0.14,-0.02,
5556,0.11,-0.035,
5557,0.1,-0.06,
5558,0.095,-0.035,
5559,0.09,-0.035,
5560,0.055,-0.02,
5561,0.04,-0.01,
5562,0.02,0.0,
5563,0.02,0.03,
5564,0.035,0.035,
5565,0.045,0.035,
5566,0.03,0.025,
5567,0.01,0.02,
5568,-0.02,0.015,
5569,-0.03,0.025,
5570,-0.05,0.055,
5571,-0.045,0.08,
5572,-0.04,0.075,
5573,-0.05,0.055,
5574,-0.055,0.04,
5575,-0.075,0.05,
5576,-0.07,0.055,
5577,-0.04,0.06,
5578,-0.05,0.07,
5579,-0.07,0.045,
5580,-0.08,0.05,
5581,-0.085,0.065,
5582,-0.095,0.085,
5583,-0.095,0.1,
5584,-0.105,0.105,
5585,-0.11,0.105,
5586,-0.125,0.12,
5587,-0.115,0.135,
5588,-0.1,0.15,
5589,-0.08,0.145,
5590,-0.105,0.12,
5591,-0.14,0.08,
5592,-0.16,0.06,
5593,-0.155,0.06,
5594,-0.125,0.08,
5595,-0.07,0.115,
5596,-0.04,0.125,
5597,-0.055,0.11,
5598,-0.05,0.105,
5599,-0.06,0.12,
5600,-0.055,0.14,
5601,0.0,0.125,
5602,0.075,0.065,
5603,0.185,0.005,
5604,0.3,-0.03,
5605,0.385,-0.02,
5606,0.435,0.01,
5607,0.405,0.03,
5608,0.295,0.06,|
5609,0.135,0.085,
5610,-0.025,0.125,
5611,-0.175,0.16,
5612,-0.225,0.205,
5613,-0.24,0.24,
5614,-0.24,0.25,
5615,-0.265,0.24,
5616,-0.32,0.24,
5617,-0.345,0.27,
5618,-0.415,0.295,
5619,-0.445,0.29,
5620,-0.48,0.285,
5621,-0.52,0.265,
5622,-0.55,0.25,
5623,-0.56,0.265,
5624,-0.56,0.27,
5625,-0.525,0.285,
5626,-0.49,0.28,
5627,-0.475,0.265,
5628,-0.455,0.25,
5629,-0.435,0.245,
5630,-0.38,0.255,
5631,-0.345,0.27,
5632,-0.32,0.275,
5633,-0.3,0.26,
5634,-0.305,0.23,
5635,-0.31,0.23,
5636,-0.3,0.2,
5637,-0.285,0.185,
5638,-0.28,0.16,
5639,-0.28,0.16,
5640,-0.27,0.18,
5641,-0.23,0.205,
5642,-0.21,0.21,
5643,-0.185,0.2,
5644,-0.185,0.16,
5645,-0.18,0.13,
5646,-0.19,0.13,
5647,-0.195,0.135,
5648,-0.2,0.145,
5649,-0.195,0.135,
5650,-0.195,0.155,
5651,-0.2,0.155,
5652,-0.235,0.15,
5653,-0.265,0.15,
5654,-0.3,0.155,
5655,-0.315,0.165,
5656,-0.345,0.165,
5657,-0.39,0.15,
5658,-0.43,0.13,
5659,-0.43,0.135,
5660,-0.42,0.13,
5661,-0.38,0.14,
5662,-0.35,0.14,
5663,-0.335,0.155,
5664,-0.315,0.18,
5665,-0.295,0.205,
5666,-0.285,0.24,
5667,-0.235,0.22,
5668,-0.235,0.21,
5669,-0.215,0.185,
5670,-0.235,0.125,
5671,-0.235,0.11,
5672,-0.23,0.135,
5673,-0.22,0.175,
5674,-0.215,0.21,
5675,-0.2,0.215,
5676,-0.185,0.23,
5677,-0.16,0.22,
5678,-0.145,0.225,
5679,-0.145,0.205,
5680,-0.165,0.16,
5681,-0.19,0.055,
5682,-0.225,-0.025,
5683,-0.245,-0.07,
5684,-0.23,-0.06,
5685,-0.225,-0.03,
5686,-0.23,0.0,
5687,-0.245,-0.005,
5688,-0.245,-0.01,
5689,-0.255,-0.005,
5690,-0.265,0.0,
5691,-0.285,-0.025,
5692,-0.285,-0.07,
5693,-0.31,-0.065,
5694,-0.325,-0.065,
5695,-0.33,-0.065,
5696,-0.305,-0.05,
5697,-0.305,-0.065,
5698,-0.31,-0.055,
5699,-0.33,-0.065,
5700,-0.36,-0.065,
5701,-0.39,-0.095,
5702,-0.385,-0.1,
5703,-0.375,-0.07,
5704,-0.35,-0.045,
5705,-0.335,-0.06,
5706,-0.345,-0.07,
5707,-0.36,-0.09,
5708,-0.365,-0.1,
5709,-0.375,-0.105,
5710,-0.385,-0.1,
5711,-0.395,-0.125,
5712,-0.39,-0.135,
5713,-0.385,-0.135,
5714,-0.36,-0.115,
5715,-0.345,-0.125,
5716,-0.345,-0.145,
5717,-0.36,-0.15,
5718,-0.365,-0.15,
5719,-0.365,-0.145,
5720,-0.37,-0.125,
5721,-0.39,-0.115,
5722,-0.4,-0.115,
5723,-0.41,-0.125,
5724,-0.415,-0.13,
5725,-0.405,-0.12,
5726,-0.375,-0.11,
5727,-0.345,-0.085,
5728,-0.335,-0.04,
5729,-0.32,-0.025,
5730,-0.315,-0.05,
5731,-0.315,-0.025,
5732,-0.315,0.0,
5733,-0.295,0.015,
5734,-0.275,0.01,
5735,-0.27,0.0,
5736,-0.295,-0.005,
5737,-0.29,0.005,
5738,-0.265,0.045,
5739,-0.245,0.08,
5740,-0.225,0.095,
5741,-0.24,0.08,
5742,-0.265,0.06,
5743,-0.26,0.09,
5744,-0.26,0.09,
5745,-0.235,0.105,
5746,-0.22,0.095,
5747,-0.23,0.095,
5748,-0.23,0.07,
5749,-0.225,0.065,
5750,-0.235,0.06,
5751,-0.23,0.08,
5752,-0.26,0.085,
5753,-0.27,0.075,
5754,-0.265,0.09,
5755,-0.275,0.135,
5756,-0.24,0.165,
5757,-0.23,0.15,
5758,-0.225,0.115,
5759,-0.265,0.075,
5760,-0.295,0.05,
5761,-0.325,0.02,
5762,-0.345,0.05,
5763,-0.365,0.085,
5764,-0.395,-0.005,
5765,-0.4,-0.24,
5766,-0.395,-0.505,
5767,-0.385,-0.74,
5768,-0.345,-1.02,
5769,-0.305,-1.385,
5770,-0.26,-1.805,
5771,-0.25,-2.19,
5772,-0.25,-2.49,
5773,-0.265,-2.655,
5774,-0.255,-2.715,
5775,-0.205,-2.7,
5776,-0.135,-2.63,
5777,-0.015,-2.445,
5778,0.14,-2.1,
5779,0.315,-1.52,
5780,0.44,-0.885,
5781,0.52,-0.3,
5782,0.495,0.065,
5783,0.46,0.27,N
5784,0.415,0.395,
5785,0.41,0.455,
5786,0.355,0.445,
5787,0.25,0.405,
5788,0.145,0.37,
5789,0.065,0.34,
5790,0.0,0.34,
5791,-0.04,0.38,
5792,-0.065,0.4,
5793,-0.09,0.39,
5794,-0.1,0.365,
5795,-0.115,0.325,
5796,-0.14,0.32,
5797,-0.14,0.34,
5798,-0.115,0.35,
5799,-0.085,0.355,
5800,-0.09,0.35,
5801,-0.105,0.35,
5802,-0.145,0.365,
5803,-0.16,0.375,
5804,-0.12,0.41,
5805,-0.09,0.41,
5806,-0.09,0.41,
5807,-0.085,0.38,
5808,-0.1,0.36,
5809,-0.1,0.36,
5810,-0.08,0.385,
5811,-0.06,0.41,
5812,-0.065,0.42,
5813,-0.075,0.4,
5814,-0.09,0.405,
5815,-0.09,0.4,
5816,-0.06,0.415,
5817,-0.05,0.435,
5818,-0.04,0.435,
5819,-0.04,0.415,
5820,-0.04,0.41,
5821,-0.035,0.43,
5822,-0.03,0.445,
5823,-0.025,0.44,
5824,-0.005,0.415,
5825,0.0,0.37,
5826,0.005,0.355,
5827,0.01,0.36,
5828,0.015,0.375,
5829,0.03,0.385,
5830,0.03,0.395,
5831,0.03,0.39,
5832,0.02,0.375,
5833,0.025,0.38,
5834,0.03,0.385,
5835,0.025,0.38,
5836,0.05,0.37,
5837,0.04,0.355,
5838,0.035,0.34,
5839,0.04,0.345,
5840,0.06,0.35,
5841,0.075,0.34,
5842,0.06,0.355,
5843,0.065,0.345,
5844,0.08,0.345,
5845,0.09,0.34,
5846,0.105,0.35,
5847,0.13,0.345,
5848,0.125,0.325,
5849,0.135,0.31,
5850,0.115,0.295,
5851,0.12,0.28,
5852,0.14,0.28,
5853,0.16,0.275,
5854,0.175,0.28,
5855,0.165,0.245,
5856,0.165,0.21,
5857,0.165,0.215,
5858,0.175,0.22,
5859,0.19,0.225,
5860,0.185,0.21,
5861,0.175,0.16,
5862,0.175,0.13,
5863,0.175,0.115,
5864,0.19,0.105,
5865,0.21,0.085,
5866,0.23,0.09,
5867,0.24,0.08,
5868,0.2,0.09,
5869,0.19,0.085,
5870,0.185,0.08,
5871,0.215,0.04,
5872,0.24,-0.005,
5873,0.235,-0.03,
5874,0.22,-0.03,
5875,0.205,-0.005,
5876,0.215,0.01,
5877,0.24,0.025,
5878,0.215,0.0,
5879,0.16,-0.03,
5880,0.14,-0.03,
5881,0.11,-0.055,
5882,0.115,-0.06,
5883,0.145,-0.06,
5884,0.16,-0.055,
5885,0.18,-0.075,
5886,0.18,-0.1,
5887,0.15,-0.065,
5888,0.14,-0.005,
5889,0.125,0.025,
5890,0.095,0.025,
5891,0.075,0.01,
5892,0.09,0.02,
5893,0.1,0.035,
5894,0.105,0.025,
5895,0.095,0.025,
5896,0.085,0.04,
5897,0.08,0.055,
5898,0.075,0.045,
5899,0.05,0.035,
5900,0.02,0.03,
5901,0.005,0.03,
5902,-0.02,0.045,
5903,-0.035,0.045,
5904,-0.035,0.03,
5905,-0.03,0.03,
5906,-0.005,0.055,
5907,0.01,0.045,
5908,0.015,0.04,
5909,-0.01,0.05,
5910,-0.03,0.075,
5911,-0.05,0.11,
5912,-0.05,0.14,
5913,-0.085,0.12,
5914,-0.09,0.11,
5915,-0.085,0.1,
5916,-0.08,0.08,
5917,-0.055,0.1,
5918,-0.025,0.105,
5919,-0.035,0.12,
5920,-0.08,0.115,
5921,-0.085,0.115,
5922,-0.09,0.125,
5923,-0.095,0.135,
5924,-0.09,0.14,
5925,-0.085,0.155,
5926,-0.06,0.175,
5927,-0.06,0.155,
5928,-0.075,0.125,
5929,-0.09,0.135,
5930,-0.11,0.14,
5931,-0.12,0.15,
5932,-0.115,0.16,
5933,-0.11,0.145,
5934,-0.105,0.145,
5935,-0.105,0.17,
5936,-0.105,0.23,
5937,-0.125,0.25,
5938,-0.13,0.25,
5939,-0.16,0.23,
5940,-0.145,0.24,
5941,-0.13,0.24,
5942,-0.12,0.24,
5943,-0.115,0.225,
5944,-0.105,0.205,
5945,-0.11,0.21,
5946,-0.135,0.2,
5947,-0.16,0.195,
5948,-0.14,0.185,
5949,-0.16,0.175,
5950,-0.165,0.17,
5951,-0.195,0.165,
5952,-0.2,0.16,
5953,-0.215,0.155,
5954,-0.19,0.18,
5955,-0.17,0.19,
5956,-0.185,0.2,
5957,-0.205,0.185,
5958,-0.2,0.185,
5959,-0.185,0.2,
5960,-0.18,0.17,
5961,-0.17,0.15,
5962,-0.15,0.115,
5963,-0.13,0.115,
5964,-0.12,0.13,
5965,-0.13,0.105,
5966,-0.14,0.115,
5967,-0.12,0.13,
5968,-0.13,0.12,
5969,-0.165,0.11,
5970,-0.19,0.09,
5971,-0.21,0.12,
5972,-0.2,0.13,
5973,-0.17,0.16,
5974,-0.145,0.165,
5975,-0.13,0.16,
5976,-0.13,0.15,
5977,-0.125,0.15,
5978,-0.105,0.16,
5979,-0.07,0.14,
5980,-0.075,0.135,
5981,-0.075,0.135,
5982,-0.08,0.14,
5983,-0.065,0.12,
5984,-0.03,0.15,
5985,0.015,0.195,
5986,0.0,0.235,
5987,-0.005,0.255,
5988,-0.03,0.265,
5989,-0.03,0.275,
5990,-0.015,0.275,
5991,0.0,0.245,
5992,0.005,0.19,
5993,-0.015,0.13,
5994,-0.035,0.07,
5995,-0.04,0.045,
5996,-0.055,0.03,
5997,-0.08,0.01,
5998,-0.09,-0.01,
5999,-0.115,-0.055,
6000,-0.145,-0.065,
6001,-0.18,-0.05,
6002,-0.195,-0.025,
6003,-0.2,-0.005,
6004,-0.195,0.0,
6005,-0.195,-0.005,
6006,-0.21,-0.005,
6007,-0.21,0.0,
6008,-0.185,0.015,
6009,-0.19,-0.005,
6010,-0.205,-0.02,
6011,-0.22,-0.05,
6012,-0.205,-0.065,
6013,-0.205,-0.05,
6014,-0.2,-0.025,
6015,-0.21,-0.015,
6016,-0.245,-0.01,
6017,-0.24,-0.055,
6018,-0.26,-0.085,
6019,-0.27,-0.105,
6020,-0.26,-0.09,
6021,-0.265,-0.09,
6022,-0.265,-0.09,
6023,-0.26,-0.09,
6024,-0.275,-0.1,
6025,-0.265,-0.1,
6026,-0.255,-0.115,
6027,-0.245,-0.13,
6028,-0.26,-0.145,
6029,-0.27,-0.125,
6030,-0.27,-0.115,
6031,-0.285,-0.095,
6032,-0.27,-0.09,
6033,-0.24,-0.095,
6034,-0.225,-0.1,
6035,-0.225,-0.11,
6036,-0.235,-0.105,
6037,-0.21,-0.085,
6038,-0.175,-0.08,
6039,-0.125,-0.075,
6040,-0.06,-0.065,
6041,-0.005,-0.05,
6042,0.03,-0.04,
6043,0.0,0.015,
6044,-0.025,0.05,
6045,-0.04,0.07,
6046,-0.04,0.055,
6047,0.005,0.045,
6048,0.05,0.0,|
6049,0.13,0.02,
6050,0.205,0.045,
6051,0.21,0.08,
6052,0.135,0.1,
6053,0.035,0.11,
6054,-0.085,0.115,
6055,-0.165,0.14,
6056,-0.18,0.155,
6057,-0.16,0.12,
6058,-0.105,0.08,
6059,-0.08,0.07,
6060,-0.08,0.065,
6061,-0.095,0.09,
6062,-0.105,0.11,
6063,-0.145,0.15,
6064,-0.205,0.21,
6065,-0.285,0.24,
6066,-0.335,0.21,
6067,-0.365,0.145,
6068,-0.39,0.115,
6069,-0.405,0.095,
6070,-0.385,-0.015,
6071,-0.35,-0.27,
6072,-0.3,-0.565,
6073,-0.27,-0.885,
6074,-0.225,-1.235,
6075,-0.15,-1.63,
6076,-0.055,-2.01,
6077,0.055,-2.325,
6078,0.12,-2.56,
6079,0.205,-2.685,
6080,0.27,-2.73,
6081,0.29,-2.695,
6082,0.275,-2.585,
6083,0.25,-2.35,
6084,0.305,-1.925,
6085,0.435,-1.29,N
6086,0.54,-0.655,
6087,0.55,-0.045,
6088,0.45,0.23,
6089,0.32,0.345,
6090,0.165,0.385,
6091,0.02,0.425,
6092,-0.09,0.42,
6093,-0.15,0.41,
6094,-0.175,0.41,
6095,-0.21,0.4,
6096,-0.235,0.39,
6097,-0.235,0.395,
6098,-0.21,0.395,
6099,-0.19,0.385,
6100,-0.165,0.395,
6101,-0.145,0.405,
6102,-0.135,0.395,
6103,-0.115,0.395,
6104,-0.105,0.405,
6105,-0.12,0.42,
6106,-0.12,0.415,
6107,-0.115,0.4,
6108,-0.115,0.38,
6109,-0.115,0.355,
6110,-0.09,0.35,
6111,-0.085,0.355,
6112,-0.1,0.36,
6113,-0.12,0.355,
6114,-0.13,0.35,
6115,-0.14,0.35,
6116,-0.105,0.375,
6117,-0.055,0.405,
6118,-0.02,0.41,
6119,-0.03,0.38,
6120,-0.065,0.36,
6121,-0.085,0.38,
6122,-0.075,0.405,
6123,-0.06,0.42,
6124,-0.035,0.405,
6125,-0.03,0.39,
6126,-0.04,0.405,
6127,-0.045,0.415,
6128,-0.04,0.4,
6129,-0.035,0.385,
6130,-0.01,0.38,
6131,0.02,0.39,
6132,0.02,0.375,
6133,0.04,0.38,
6134,0.045,0.385,
6135,0.065,0.395,
6136,0.06,0.38,
6137,0.055,0.38,
6138,0.03,0.355,
6139,0.02,0.38,
6140,0.035,0.39,
6141,0.045,0.39,
6142,0.05,0.395,
6143,0.04,0.395,
6144,0.03,0.375,
6145,0.05,0.365,
6146,0.08,0.38,
6147,0.1,0.375,
6148,0.13,0.365,
6149,0.125,0.35,
6150,0.135,0.315,
6151,0.125,0.32,
6152,0.12,0.31,
6153,0.135,0.32,
6154,0.17,0.32,
6155,0.18,0.305,
6156,0.19,0.275,
6157,0.18,0.26,
6158,0.185,0.27,
6159,0.195,0.26,
6160,0.175,0.255,
6161,0.185,0.245,
6162,0.19,0.215,
6163,0.2,0.2,
6164,0.225,0.19,
6165,0.255,0.18,
6166,0.28,0.165,
6167,0.255,0.12,
6168,0.235,0.1,
6169,0.205,0.115,
6170,0.21,0.11,
6171,0.2,0.115,
6172,0.215,0.1,
6173,0.205,0.1,
6174,0.21,0.1,
6175,0.21,0.075,
6176,0.235,0.055,
6177,0.25,0.045,
6178,0.265,0.035,
6179,0.255,0.02,
6180,0.24,0.0,
6181,0.24,-0.02,
6182,0.235,-0.025,
6183,0.235,-0.005,
6184,0.2,-0.005,
6185,0.185,-0.005,
6186,0.15,0.015,
6187,0.135,0.04,
6188,0.14,0.035,
6189,0.14,0.015,
6190,0.13,0.005,
6191,0.1,-0.015,
6192,0.085,-0.015,+
6193,0.06,-0.01,
6194,0.04,0.005,
6195,0.03,0.04,
6196,0.03,0.06,
6197,0.025,0.055,
6198,-0.005,0.05,
6199,-0.015,0.09,
6200,-0.015,0.105,
6201,0.005,0.1,
6202,-0.005,0.09,
6203,-0.01,0.05,
6204,-0.035,0.045,
6205,-0.045,0.105,
6206,-0.055,0.14,
6207,-0.05,0.16,
6208,-0.065,0.155,
6209,-0.065,0.12,
6210,-0.06,0.12,
6211,-0.05,0.125,
6212,-0.035,0.14,
6213,-0.045,0.135,
6214,-0.06,0.145,
6215,-0.085,0.135,
6216,-0.11,0.13,
6217,-0.1,0.15,
6218,-0.08,0.17,
6219,-0.065,0.175,
6220,-0.055,0.195,
6221,-0.055,0.195,
6222,-0.08,0.21,
6223,-0.075,0.22,
6224,-0.08,0.23,
6225,-0.065,0.245,
6226,-0.06,0.26,
6227,-0.04,0.25,
6228,-0.05,0.235,
6229,-0.06,0.24,
6230,-0.065,0.265,
6231,-0.07,0.265,
6232,-0.09,0.27,
6233,-0.1,0.275,
6234,-0.115,0.27,
6235,-0.115,0.265,
6236,-0.115,0.28,
6237,-0.085,0.29,
6238,-0.085,0.305,
6239,-0.085,0.295,
6240,-0.1,0.29,
6241,-0.115,0.3,
6242,-0.11,0.31,
6243,-0.095,0.315,
6244,-0.08,0.295,
6245,-0.065,0.27,
6246,-0.07,0.255,
6247,-0.09,0.235,
6248,-0.1,0.255,
6249,-0.1,0.285,
6250,-0.09,0.3,
6251,-0.08,0.28,
6252,-0.095,0.26,
6253,-0.095,0.255,
6254,-0.08,0.26,
6255,-0.075,0.25,
6256,-0.07,0.25,
6257,-0.085,0.235,
6258,-0.105,0.235,
6259,-0.08,0.235,
6260,-0.045,0.245,
6261,-0.02,0.24,
6262,-0.005,0.23,
6263,-0.005,0.215,
6264,-0.035,0.21,
6265,-0.07,0.23,
6266,-0.075,0.27,
6267,-0.055,0.3,
6268,-0.015,0.295,
6269,-0.005,0.255,
6270,-0.02,0.2,
6271,-0.035,0.155,
6272,-0.045,0.055,
6273,-0.08,-0.055,
6274,-0.085,-0.14,
6275,-0.085,-0.195,
6276,-0.045,-0.235,
6277,0.015,-0.275,
6278,0.09,-0.345,
6279,0.21,-0.4,
6280,0.335,-0.445,
6281,0.47,-0.545,
6282,0.575,-0.705,
6283,0.64,-0.955,
6284,0.75,-1.15,
6285,0.925,-1.21,
6286,1.125,-1.045,
6287,1.31,-0.705,
6288,1.435,-0.315,
6289,1.55,-0.035,
6290,1.675,0.185,
6291,1.78,0.39,
6292,1.855,0.555,
6293,1.915,0.69,
6294,2.0,0.84,
6295,2.13,0.975,
6296,2.26,1.08,
6297,2.34,1.155,
6298,2.39,1.19,
6299,2.415,1.115,V
6300,2.4,1.005,
6301,2.345,0.96,
6302,2.22,0.935,
6303,2.045,0.9,
6304,1.775,0.78,
6305,1.46,0.58,
6306,1.12,0.405,
6307,0.795,0.285,
6308,0.49,0.25,
6309,0.23,0.195,
6310,0.015,0.125,
6311,-0.11,0.095,
6312,-0.18,0.06,
6313,-0.285,0.03,
6314,-0.385,-0.01,
6315,-0.445,-0.045,
6316,-0.48,-0.045,
6317,-0.485,-0.05,
6318,-0.515,-0.075,
6319,-0.53,-0.07,
6320,-0.52,-0.02,
6321,-0.49,-0.005,
6322,-0.455,0.015,
6323,-0.48,0.025,
6324,-0.475,0.0,
6325,-0.48,-0.01,
6326,-0.475,0.02,
6327,-0.475,0.02,
6328,-0.475,0.035,
6329,-0.47,0.06,
6330,-0.485,0.08,
6331,-0.48,0.09,
6332,-0.48,0.085,
6333,-0.485,0.09,
6334,-0.485,0.095,
6335,-0.51,0.065,
6336,-0.495,0.025,
6337,-0.48,0.025,
6338,-0.455,0.04,
6339,-0.47,0.055,
6340,-0.49,0.045,
6341,-0.515,0.005,
6342,-0.535,0.015,
6343,-0.505,0.02,
6344,-0.505,-0.005,
6345,-0.505,-0.005,
6346,-0.525,-0.01,
6347,-0.53,-0.04,
6348,-0.56,-0.07,
6349,-0.59,-0.105,
6350,-0.605,-0.105,
6351,-0.6,-0.1,
6352,-0.605,-0.105,
6353,-0.605,-0.135,
6354,-0.605,-0.165,
6355,-0.635,-0.18,
6356,-0.66,-0.195,
6357,-0.68,-0.235,
6358,-0.68,-0.245,
6359,-0.67,-0.225,
6360,-0.68,-0.225,
6361,-0.66,-0.25,
6362,-0.64,-0.265,
6363,-0.63,-0.27,
6364,-0.625,-0.29,
6365,-0.625,-0.315,
6366,-0.65,-0.335,
6367,-0.665,-0.32,
6368,-0.665,-0.32,
6369,-0.645,-0.315,
6370,-0.63,-0.34,
6371,-0.63,-0.36,
6372,-0.66,-0.38,
6373,-0.665,-0.39,
6374,-0.66,-0.39,
6375,-0.635,-0.39,
6376,-0.615,-0.375,
6377,-0.59,-0.355,
6378,-0.575,-0.34,
6379,-0.565,-0.32,
6380,-0.55,-0.295,
6381,-0.52,-0.305,
6382,-0.51,-0.345,
6383,-0.52,-0.35,
6384,-0.535,-0.36,
6385,-0.535,-0.325,
6386,-0.51,-0.295,
6387,-0.5,-0.28,
6388,-0.46,-0.26,
6389,-0.44,-0.245,
6390,-0.43,-0.225,
6391,-0.41,-0.225,
6392,-0.38,-0.21,
6393,-0.37,-0.185,
6394,-0.35,-0.145,
6395,-0.35,-0.12,
6396,-0.345,-0.105,
6397,-0.345,-0.07,
6398,-0.355,-0.03,
6399,-0.34,0.025,
6400,-0.34,0.035,
6401,-0.335,0.03,
6402,-0.305,0.025,
6403,-0.28,0.055,
6404,-0.235,0.085,
6405,-0.215,0.12,
6406,-0.2,0.12,
6407,-0.22,0.105,
6408,-0.215,0.115,
6409,-0.24,0.125,
6410,-0.23,0.145,
6411,-0.225,0.16,
6412,-0.205,0.185,
6413,-0.165,0.18,
6414,-0.14,0.195,
6415,-0.145,0.195,
6416,-0.14,0.21,
6417,-0.15,0.215,
6418,-0.145,0.225,
6419,-0.145,0.21,
6420,-0.15,0.215,
6421,-0.16,0.21,
6422,-0.165,0.21,
6423,-0.165,0.225,
6424,-0.18,0.225,
6425,-0.185,0.205,
6426,-0.19,0.205,
6427,-0.225,0.225,
6428,-0.195,0.23,
6429,-0.17,0.205,
6430,-0.15,0.185,
6431,-0.14,0.185,
6432,-0.14,0.19,
6433,-0.16,0.195,
6434,-0.175,0.195,
6435,-0.175,0.205,
6436,-0.18,0.205,
6437,-0.2,0.185,
6438,-0.205,0.185,
6439,-0.185,0.19,
6440,-0.155,0.19,
6441,-0.125,0.19,
6442,-0.13,0.195,
6443,-0.15,0.185,
6444,-0.175,0.175,
6445,-0.185,0.18,
6446,-0.2,0.195,
6447,-0.18,0.215,
6448,-0.145,0.21,
6449,-0.145,0.205,
6450,-0.15,0.18,
6451,-0.16,0.18,
6452,-0.17,0.185,
6453,-0.16,0.175,
6454,-0.15,0.16,
6455,-0.15,0.155,
6456,-0.165,0.17,
6457,-0.165,0.19,
6458,-0.16,0.205,
6459,-0.14,0.23,
6460,-0.15,0.225,
6461,-0.185,0.205,
6462,-0.185,0.19,
6463,-0.17,0.175,
6464,-0.165,0.175,
6465,-0.125,0.195,
6466,-0.115,0.17,
6467,-0.095,0.145,
6468,-0.115,0.155,
6469,-0.13,0.145,
6470,-0.135,0.14,
6471,-0.145,0.155,
6472,-0.16,0.175,
6473,-0.125,0.175,
6474,-0.125,0.175,
6475,-0.12,0.17,
6476,-0.12,0.19,
6477,-0.095,0.205,
6478,-0.09,0.175,
6479,-0.095,0.15,
6480,-0.105,0.15,
6481,-0.125,0.165,
6482,-0.105,0.205,
6483,-0.09,0.195,
6484,-0.085,0.165,
6485,-0.095,0.15,
6486,-0.1,0.145,
6487,-0.115,0.15,
6488,-0.125,0.155,
6489,-0.13,0.165,
6490,-0.13,0.17,
6491,-0.135,0.165,
6492,-0.095,0.135,
6493,-0.095,0.125,
6494,-0.085,0.15,
6495,-0.085,0.175,
6496,-0.085,0.18,
6497,-0.105,0.16,
6498,-0.13,0.135,
6499,-0.13,0.11,
6500,-0.125,0.12,
6501,-0.11,0.17,
6502,-0.095,0.185,
6503,-0.095,0.155,
6504,-0.11,0.105,
6505,-0.1,0.07,
6506,-0.12,0.08,
6507,-0.12,0.13,
6508,-0.11,0.155,
6509,-0.09,0.155,
6510,-0.085,0.135,
6511,-0.085,0.145,
6512,-0.095,0.14,
6513,-0.095,0.135,
6514,-0.095,0.13,
6515,-0.1,0.14,
6516,-0.105,0.145,
6517,-0.11,0.15,
6518,-0.095,0.18,
6519,-0.065,0.205,
6520,-0.05,0.2,
6521,-0.05,0.165,
6522,-0.07,0.14,
6523,-0.095,0.13,
6524,-0.115,0.14,
6525,-0.125,0.14,
6526,-0.135,0.155,
6527,-0.145,0.16,
6528,-0.145,0.15,
6529,-0.125,0.17,
6530,-0.1,0.185,
6531,-0.09,0.19,
6532,-0.1,0.17,
6533,-0.115,0.14,
6534,-0.125,0.13,
6535,-0.12,0.155,
6536,-0.09,0.2,
6537,-0.07,0.22,
6538,-0.055,0.21,
6539,-0.04,0.19,
6540,-0.04,0.175,
6541,-0.04,0.175,
6542,-0.015,0.205,
6543,-0.015,0.23,
6544,-0.005,0.245,
6545,0.015,0.265,
6546,0.035,0.29,
6547,0.045,0.31,
6548,0.03,0.315,
6549,0.025,0.325,
6550,0.02,0.33,
6551,0.03,0.295,
6552,0.015,0.24,
6553,0.015,0.165,
6554,0.035,0.095,
6555,0.025,0.03,
6556,-0.01,0.0,
6557,-0.065,-0.025,
6558,-0.11,-0.025,
6559,-0.16,-0.015,
6560,-0.17,0.015,
6561,-0.15,0.06,
6562,-0.15,0.065,
6563,-0.145,0.055,
6564,-0.165,0.035,
6565,-0.205,0.015,
6566,-0.185,-0.005,
6567,-0.17,-0.005,
6568,-0.165,-0.01,
6569,-0.18,-0.015,
6570,-0.205,0.005,
6571,-0.22,0.0,
6572,-0.205,0.01,
6573,-0.205,0.035,
6574,-0.195,0.03,
6575,-0.22,-0.01,
6576,-0.235,-0.035,
6577,-0.25,-0.075,
6578,-0.245,-0.07,
6579,-0.235,-0.05,
6580,-0.235,-0.04,
6581,-0.255,-0.02,
6582,-0.27,-0.015,
6583,-0.27,-0.005,
6584,-0.27,0.01,
6585,-0.275,-0.005,
6586,-0.245,-0.045,
6587,-0.225,-0.065,
6588,-0.23,-0.06,
6589,-0.26,-0.035,
6590,-0.275,-0.02,
6591,-0.265,0.015,
6592,-0.26,0.035,
6593,-0.25,0.05,
6594,-0.235,0.04,
6595,-0.205,0.03,
6596,-0.165,0.045,
6597,-0.16,0.06,
6598,-0.185,0.085,
6599,-0.205,0.09,
6600,-0.235,0.1,
6601,-0.26,0.12,
6602,-0.265,0.15,
6603,-0.24,0.155,
6604,-0.185,0.13,
6605,-0.16,0.12,
6606,-0.155,0.135,
6607,-0.17,0.175,
6608,-0.155,0.2,
6609,-0.145,0.185,
6610,-0.125,0.15,
6611,-0.11,0.125,
6612,-0.11,0.12,
6613,-0.125,0.14,
6614,-0.125,0.17,
6615,-0.125,0.19,
6616,-0.15,0.185,
6617,-0.18,0.14,
6618,-0.23,0.12,
6619,-0.28,0.105,
6620,-0.33,0.11,
6621,-0.335,-0.02,
6622,-0.3,-0.315,
6623,-0.285,-0.705,
6624,-0.27,-1.09,
6625,-0.245,-1.535,
6626,-0.2,-2.025,
6627,-0.16,-2.44,
6628,-0.15,-2.7,
6629,-0.12,-2.8,
6630,-0.085,-2.76,
6631,0.0,-2.625,
6632,0.185,-2.22,
6633,0.415,-1.585,
