,MLII,V1,symbol
0,-0.38,-0.285,
1,-0.38,-0.285,
2,-0.38,-0.285,
3,-0.38,-0.285,
4,-0.38,-0.285,
5,-0.38,-0.285,
6,-0.38,-0.285,
7,-0.38,-0.285,
8,-0.365,-0.29,
9,-0.365,-0.295,
10,-0.35,-0.29,
11,-0.365,-0.295,
12,-0.365,-0.28,
13,-0.36,-0.27,
14,-0.335,-0.25,
15,-0.325,-0.22,
16,-0.315,-0.195,
17,-0.31,-0.21,
18,-0.305,-0.21,
19,-0.31,-0.2,
20,-0.33,-0.225,
21,-0.345,-0.235,
22,-0.34,-0.255,
23,-0.35,-0.26,
24,-0.365,-0.265,
25,-0.36,-0.28,
26,-0.38,-0.275,
27,-0.395,-0.29,
28,-0.39,-0.285,
29,-0.385,-0.295,
30,-0.395,-0.3,+
31,-0.405,-0.305,
32,-0.42,-0.3,
33,-0.425,-0.315,
34,-0.44,-0.335,
35,-0.44,-0.35,
36,-0.455,-0.35,
37,-0.455,-0.355,
38,-0.455,-0.35,
39,-0.445,-0.335,
40,-0.425,-0.335,
41,-0.425,-0.345,
42,-0.42,-0.345,
43,-0.41,-0.345,
44,-0.405,-0.36,
45,-0.41,-0.365,
46,-0.42,-0.37,
47,-0.41,-0.375,
48,-0.405,-0.375,
49,-0.4,-0.36,
50,-0.405,-0.35,
51,-0.41,-0.345,
52,-0.4,-0.34,
53,-0.405,-0.345,
54,-0.385,-0.365,
55,-0.385,-0.36,
56,-0.385,-0.375,
57,-0.385,-0.38,
58,-0.385,-0.38,
59,-0.395,-0.39,
60,-0.4,-0.385,
61,-0.39,-0.38,
62,-0.385,-0.365,
63,-0.38,-0.355,
64,-0.37,-0.325,
65,-0.35,-0.32,
66,-0.32,-0.3,
67,-0.28,-0.27,
68,-0.195,-0.23,
69,-0.09,-0.175,
70,0.055,-0.115,
71,0.235,-0.015,
72,0.44,0.09,
73,0.645,0.2,
74,0.84,0.3,
75,1.005,0.375,N
76,1.075,0.38,
77,1.055,0.29,
78,0.885,0.13,
79,0.605,-0.105,
80,0.205,-0.325,
81,-0.255,-0.535,
82,-0.735,-0.7,
83,-1.145,-0.825,
84,-1.425,-0.92,
85,-1.52,-0.985,
86,-1.435,-1.025,
87,-1.265,-1.05,
88,-1.05,-1.025,
89,-0.83,-0.985,
90,-0.67,-0.915,
91,-0.555,-0.805,
92,-0.47,-0.69,
93,-0.43,-0.57,
94,-0.415,-0.46,
95,-0.41,-0.36,
96,-0.42,-0.29,
97,-0.42,-0.245,
98,-0.43,-0.21,
99,-0.415,-0.185,
100,-0.4,-0.185,
101,-0.375,-0.17,
102,-0.37,-0.185,
103,-0.36,-0.18,
104,-0.36,-0.175,
105,-0.355,-0.175,
106,-0.36,-0.165,
107,-0.365,-0.16,
108,-0.365,-0.155,
109,-0.355,-0.15,
110,-0.35,-0.145,
111,-0.33,-0.125,
112,-0.305,-0.105,
113,-0.285,-0.1,
114,-0.28,-0.105,
115,-0.26,-0.1,
116,-0.275,-0.09,
117,-0.27,-0.09,
118,-0.28,-0.09,
119,-0.28,-0.09,
120,-0.285,-0.07,
121,-0.28,-0.065,
122,-0.28,-0.05,
123,-0.28,-0.035,
124,-0.27,-0.015,
125,-0.27,0.005,
126,-0.275,0.0,
127,-0.28,0.01,
128,-0.285,0.005,
129,-0.285,0.01,
130,-0.29,0.03,
131,-0.29,0.035,
132,-0.3,0.06,
133,-0.29,0.065,
134,-0.295,0.09,
135,-0.28,0.11,
136,-0.275,0.14,
137,-0.27,0.135,
138,-0.27,0.155,
139,-0.27,0.175,
140,-0.25,0.18,
141,-0.25,0.195,
142,-0.245,0.2,
143,-0.225,0.22,
144,-0.22,0.25,
145,-0.21,0.27,
146,-0.18,0.29,
147,-0.16,0.33,
148,-0.14,0.355,
149,-0.12,0.385,
150,-0.095,0.39,
151,-0.07,0.4,
152,-0.06,0.4,
153,-0.06,0.4,
154,-0.04,0.415,
155,-0.025,0.415,
156,-0.02,0.435,
157,-0.005,0.435,
158,0.005,0.46,
159,0.015,0.465,
160,0.03,0.475,
161,0.05,0.475,
162,0.055,0.47,
163,0.06,0.465,
164,0.05,0.46,
165,0.04,0.45,
166,0.02,0.44,
167,0.025,0.415,
168,0.015,0.41,
169,0.025,0.4,
170,0.01,0.39,
171,-0.005,0.375,
172,-0.01,0.36,
173,-0.025,0.32,
174,-0.045,0.29,
175,-0.075,0.255,
176,-0.1,0.215,
177,-0.125,0.18,
178,-0.145,0.14,
179,-0.185,0.095,
180,-0.2,0.085,
181,-0.225,0.065,
182,-0.24,0.025,
183,-0.255,0.0,
184,-0.265,-0.015,
185,-0.28,-0.035,
186,-0.29,-0.065,
187,-0.305,-0.085,
188,-0.325,-0.115,
189,-0.33,-0.14,
190,-0.35,-0.16,
191,-0.37,-0.165,
192,-0.385,-0.18,
193,-0.39,-0.2,
194,-0.385,-0.2,
195,-0.395,-0.2,
196,-0.395,-0.205,
197,-0.39,-0.2,
198,-0.39,-0.195,
199,-0.39,-0.225,
200,-0.395,-0.23,
201,-0.4,-0.225,
202,-0.4,-0.23,
203,-0.41,-0.24,
204,-0.415,-0.235,
205,-0.425,-0.23,
206,-0.415,-0.23,
207,-0.41,-0.22,
208,-0.4,-0.225,
209,-0.39,-0.205,
210,-0.38,-0.215,
211,-0.38,-0.22,
212,-0.375,-0.225,
213,-0.39,-0.235,
214,-0.385,-0.24,
215,-0.395,-0.245,
216,-0.39,-0.24,
217,-0.39,-0.24,
218,-0.38,-0.235,
219,-0.365,-0.225,
220,-0.38,-0.22,
221,-0.37,-0.22,
222,-0.36,-0.235,
223,-0.365,-0.24,
224,-0.35,-0.24,
225,-0.365,-0.26,
226,-0.375,-0.26,
227,-0.375,-0.275,
228,-0.37,-0.265,
229,-0.375,-0.26,
230,-0.365,-0.255,
231,-0.365,-0.255,
232,-0.36,-0.24,
233,-0.365,-0.245,
234,-0.37,-0.255,
235,-0.37,-0.26,
236,-0.375,-0.27,
237,-0.375,-0.285,
238,-0.375,-0.285,
239,-0.39,-0.3,
240,-0.39,-0.295,
241,-0.395,-0.29,
242,-0.395,-0.29,
243,-0.395,-0.285,
244,-0.395,-0.275,
245,-0.395,-0.29,
246,-0.395,-0.3,
247,-0.39,-0.305,
248,-0.405,-0.31,
249,-0.415,-0.305,
250,-0.43,-0.34,
251,-0.43,-0.325,
252,-0.45,-0.335,
253,-0.455,-0.335,
254,-0.435,-0.325,
255,-0.43,-0.325,
256,-0.43,-0.31,
257,-0.42,-0.315,
258,-0.415,-0.32,
259,-0.415,-0.33,
260,-0.425,-0.325,
261,-0.435,-0.34,
262,-0.45,-0.345,
263,-0.455,-0.35,
264,-0.46,-0.34,
265,-0.455,-0.34,
266,-0.46,-0.33,
267,-0.45,-0.33,
268,-0.445,-0.325,
269,-0.455,-0.335,
270,-0.445,-0.335,
271,-0.45,-0.33,
272,-0.455,-0.33,
273,-0.465,-0.335,
274,-0.45,-0.35,
275,-0.45,-0.345,
276,-0.445,-0.335,
277,-0.45,-0.32,
278,-0.43,-0.295,
279,-0.415,-0.285,
280,-0.405,-0.27,
281,-0.39,-0.255,
282,-0.385,-0.25,
283,-0.37,-0.245,
284,-0.37,-0.25,
285,-0.355,-0.245,
286,-0.35,-0.24,
287,-0.345,-0.235,
288,-0.36,-0.23,
289,-0.36,-0.21,
290,-0.37,-0.2,
291,-0.375,-0.195,
292,-0.395,-0.2,
293,-0.395,-0.2,
294,-0.39,-0.225,
295,-0.4,-0.23,
296,-0.4,-0.245,
297,-0.42,-0.27,
298,-0.43,-0.285,
299,-0.445,-0.285,
300,-0.465,-0.285,
301,-0.48,-0.305,
302,-0.485,-0.295,
303,-0.49,-0.3,
304,-0.49,-0.295,
305,-0.49,-0.3,
306,-0.495,-0.305,
307,-0.51,-0.315,
308,-0.535,-0.32,
309,-0.535,-0.33,
310,-0.55,-0.355,
311,-0.55,-0.365,
312,-0.545,-0.365,
313,-0.555,-0.355,
314,-0.525,-0.36,
315,-0.515,-0.355,
316,-0.505,-0.35,
317,-0.49,-0.335,
318,-0.495,-0.345,
319,-0.495,-0.35,
320,-0.51,-0.36,
321,-0.52,-0.365,
322,-0.53,-0.36,
323,-0.535,-0.375,
324,-0.54,-0.365,
325,-0.535,-0.36,
326,-0.53,-0.34,
327,-0.52,-0.355,
328,-0.515,-0.345,
329,-0.5,-0.325,
330,-0.5,-0.335,
331,-0.495,-0.335,
332,-0.505,-0.33,
333,-0.505,-0.34,
334,-0.51,-0.34,
335,-0.51,-0.34,
336,-0.515,-0.325,
337,-0.515,-0.31,
338,-0.5,-0.305,
339,-0.48,-0.28,
340,-0.45,-0.255,
341,-0.385,-0.215,
342,-0.295,-0.185,
343,-0.16,-0.13,
344,-0.02,-0.075,
345,0.195,-0.005,
346,0.405,0.095,
347,0.625,0.19,
348,0.835,0.3,
349,1.005,0.375,N
350,1.115,0.41,
351,1.12,0.375,
352,1.0,0.27,
353,0.74,0.095,
354,0.355,-0.1,
355,-0.125,-0.285,
356,-0.64,-0.455,
357,-1.14,-0.615,
358,-1.505,-0.73,
359,-1.7,-0.85,
360,-1.685,-0.945,
361,-1.52,-1.0,
362,-1.28,-1.04,
363,-1.02,-1.035,
364,-0.8,-0.985,
365,-0.6,-0.885,
366,-0.5,-0.795,
367,-0.415,-0.66,
368,-0.4,-0.54,
369,-0.395,-0.43,
370,-0.4,-0.355,
371,-0.415,-0.295,
372,-0.425,-0.26,
373,-0.44,-0.25,
374,-0.415,-0.23,
375,-0.39,-0.225,
376,-0.38,-0.205,
377,-0.355,-0.195,
378,-0.35,-0.19,
379,-0.335,-0.19,
380,-0.33,-0.19,
381,-0.325,-0.185,
382,-0.315,-0.19,
383,-0.29,-0.195,
384,-0.29,-0.18,
385,-0.27,-0.165,
386,-0.24,-0.155,
387,-0.23,-0.145,
388,-0.205,-0.135,
389,-0.185,-0.12,
390,-0.175,-0.135,
391,-0.155,-0.13,
392,-0.14,-0.125,
393,-0.14,-0.13,
394,-0.135,-0.125,
395,-0.14,-0.13,
396,-0.135,-0.12,
397,-0.14,-0.12,
398,-0.135,-0.105,
399,-0.13,-0.09,
400,-0.125,-0.07,
401,-0.115,-0.06,
402,-0.11,-0.05,
403,-0.11,-0.05,
404,-0.11,-0.04,
405,-0.11,-0.05,
406,-0.12,-0.04,
407,-0.12,-0.03,
408,-0.11,-0.02,
409,-0.1,0.0,
410,-0.075,0.02,
411,-0.065,0.04,
412,-0.04,0.065,
413,-0.025,0.08,
414,-0.01,0.1,
415,0.01,0.1,
416,0.015,0.125,
417,0.025,0.125,
418,0.03,0.15,
419,0.045,0.155,
420,0.055,0.18,
421,0.08,0.195,
422,0.105,0.22,
423,0.12,0.25,
424,0.135,0.265,
425,0.15,0.28,
426,0.165,0.295,
427,0.16,0.315,
428,0.155,0.32,
429,0.16,0.32,
430,0.17,0.32,
431,0.17,0.33,
432,0.16,0.34,
433,0.175,0.35,
434,0.18,0.36,
435,0.17,0.38,
436,0.17,0.38,
437,0.185,0.395,
438,0.185,0.375,
439,0.18,0.375,
440,0.18,0.375,
441,0.16,0.355,
442,0.155,0.33,
443,0.14,0.315,
444,0.13,0.31,
445,0.12,0.295,
446,0.11,0.28,
447,0.085,0.255,
448,0.08,0.235,
449,0.045,0.205,
450,0.04,0.17,
451,0.03,0.145,
452,-0.01,0.105,
453,-0.05,0.07,
454,-0.075,0.04,
455,-0.115,-0.005,
456,-0.145,-0.025,
457,-0.175,-0.05,
458,-0.2,-0.075,
459,-0.205,-0.09,
460,-0.22,-0.105,
461,-0.225,-0.125,
462,-0.24,-0.15,
463,-0.26,-0.16,
464,-0.285,-0.18,
465,-0.31,-0.21,
466,-0.335,-0.225,
467,-0.355,-0.235,
468,-0.365,-0.255,
469,-0.375,-0.245,
470,-0.38,-0.25,
471,-0.375,-0.25,
472,-0.38,-0.245,
473,-0.385,-0.245,
474,-0.385,-0.26,
475,-0.39,-0.255,
476,-0.385,-0.255,
477,-0.405,-0.275,
478,-0.415,-0.265,
479,-0.41,-0.28,
480,-0.42,-0.275,
481,-0.415,-0.275,
482,-0.41,-0.27,
483,-0.42,-0.265,
484,-0.415,-0.25,
485,-0.4,-0.25,
486,-0.39,-0.255,
487,-0.4,-0.255,
488,-0.4,-0.265,
489,-0.415,-0.27,
490,-0.41,-0.265,
491,-0.415,-0.275,
492,-0.415,-0.27,
493,-0.41,-0.27,
494,-0.405,-0.28,
495,-0.405,-0.26,
496,-0.39,-0.255,
497,-0.385,-0.245,
498,-0.375,-0.27,
499,-0.36,-0.275,
500,-0.36,-0.265,
501,-0.37,-0.275,
502,-0.375,-0.295,
503,-0.375,-0.29,
504,-0.38,-0.3,
505,-0.385,-0.295,
506,-0.38,-0.29,
507,-0.37,-0.285,
508,-0.365,-0.275,
509,-0.355,-0.275,
510,-0.36,-0.285,
511,-0.36,-0.29,
512,-0.375,-0.305,
513,-0.38,-0.315,
514,-0.39,-0.32,
515,-0.405,-0.33,
516,-0.415,-0.32,
517,-0.425,-0.33,
518,-0.42,-0.32,
519,-0.425,-0.325,
520,-0.415,-0.325,
521,-0.415,-0.315,
522,-0.425,-0.32,
523,-0.435,-0.315,
524,-0.44,-0.335,
525,-0.465,-0.345,
526,-0.465,-0.355,
527,-0.48,-0.36,
528,-0.465,-0.355,
529,-0.465,-0.345,
530,-0.46,-0.35,
531,-0.475,-0.33,
532,-0.465,-0.33,
533,-0.465,-0.325,
534,-0.46,-0.315,
535,-0.465,-0.335,
536,-0.465,-0.33,
537,-0.47,-0.35,
538,-0.455,-0.355,
539,-0.465,-0.36,
540,-0.455,-0.355,
541,-0.45,-0.34,
542,-0.445,-0.335,
543,-0.425,-0.33,
544,-0.39,-0.305,
545,-0.375,-0.29,
546,-0.345,-0.3,
547,-0.335,-0.285,
548,-0.33,-0.29,
549,-0.315,-0.275,
550,-0.31,-0.29,
551,-0.31,-0.285,
552,-0.31,-0.265,
553,-0.28,-0.265,
554,-0.265,-0.25,
555,-0.25,-0.235,
556,-0.23,-0.22,
557,-0.22,-0.22,
558,-0.215,-0.23,
559,-0.225,-0.235,
560,-0.235,-0.255,
561,-0.265,-0.265,
562,-0.275,-0.295,
563,-0.3,-0.31,
564,-0.3,-0.325,
565,-0.315,-0.32,
566,-0.335,-0.33,
567,-0.345,-0.31,
568,-0.355,-0.32,
569,-0.38,-0.32,
570,-0.405,-0.325,
571,-0.41,-0.345,
572,-0.415,-0.35,
573,-0.435,-0.355,
574,-0.44,-0.365,
575,-0.45,-0.375,
576,-0.485,-0.365,
577,-0.505,-0.395,
578,-0.52,-0.385,
579,-0.52,-0.385,
580,-0.51,-0.375,
581,-0.495,-0.38,
582,-0.5,-0.38,
583,-0.505,-0.38,
584,-0.5,-0.385,
585,-0.515,-0.395,
586,-0.52,-0.4,
587,-0.53,-0.405,
588,-0.55,-0.395,
589,-0.55,-0.395,
590,-0.55,-0.385,
591,-0.545,-0.38,
592,-0.54,-0.375,
593,-0.535,-0.36,
594,-0.55,-0.37,
595,-0.54,-0.365,
596,-0.545,-0.37,
597,-0.56,-0.38,
598,-0.57,-0.395,
599,-0.575,-0.395,
600,-0.59,-0.39,
601,-0.58,-0.375,
602,-0.545,-0.37,
603,-0.525,-0.365,
604,-0.51,-0.345,
605,-0.485,-0.335,
606,-0.465,-0.33,
607,-0.435,-0.31,
608,-0.385,-0.275,
609,-0.295,-0.24,
610,-0.17,-0.18,
611,0.005,-0.12,
612,0.195,-0.02,
613,0.41,0.08,
614,0.645,0.195,
615,0.86,0.28,
616,1.05,0.345,N
617,1.14,0.335,
618,1.125,0.225,
619,0.985,0.065,
620,0.69,-0.145,
621,0.28,-0.37,
622,-0.215,-0.56,
623,-0.745,-0.71,
624,-1.245,-0.815,
625,-1.595,-0.925,
626,-1.76,-1.015,
627,-1.71,-1.09,
628,-1.535,-1.08,
629,-1.28,-1.075,
630,-1.05,-1.055,
631,-0.85,-0.975,
632,-0.72,-0.88,
633,-0.635,-0.77,
634,-0.59,-0.66,
635,-0.59,-0.555,
636,-0.605,-0.445,
637,-0.625,-0.365,
638,-0.625,-0.315,
639,-0.615,-0.28,
640,-0.605,-0.265,
641,-0.58,-0.25,
642,-0.565,-0.25,
643,-0.555,-0.23,
644,-0.565,-0.24,
645,-0.555,-0.245,
646,-0.55,-0.235,
647,-0.55,-0.23,
648,-0.54,-0.22,
649,-0.535,-0.205,
650,-0.51,-0.185,
651,-0.495,-0.18,
652,-0.475,-0.175,
653,-0.455,-0.165,
654,-0.445,-0.165,
655,-0.445,-0.155,
656,-0.425,-0.15,
657,-0.425,-0.155,
658,-0.42,-0.155,
659,-0.405,-0.145,
660,-0.395,-0.125,
661,-0.375,-0.11,
662,-0.36,-0.1,
663,-0.355,-0.09,
664,-0.335,-0.07,
665,-0.325,-0.055,
666,-0.305,-0.05,
667,-0.295,-0.025,
668,-0.285,-0.035,
669,-0.285,-0.02,
670,-0.275,-0.005,
671,-0.265,0.005,
672,-0.245,0.015,
673,-0.24,0.03,
674,-0.23,0.045,
675,-0.22,0.06,
676,-0.19,0.09,
677,-0.175,0.115,
678,-0.16,0.135,
679,-0.145,0.145,
680,-0.13,0.155,
681,-0.125,0.18,
682,-0.125,0.185,
683,-0.105,0.21,
684,-0.095,0.215,
685,-0.085,0.245,
686,-0.06,0.275,
687,-0.03,0.315,
688,-0.005,0.33,
689,0.015,0.355,
690,0.03,0.36,
691,0.025,0.375,
692,0.025,0.37,
693,0.035,0.385,
694,0.025,0.41,
695,0.01,0.395,
696,0.025,0.41,
697,0.03,0.415,
698,0.035,0.435,
699,0.04,0.435,
700,0.05,0.44,
701,0.035,0.445,
702,0.035,0.44,
703,0.025,0.43,
704,0.015,0.415,
705,0.015,0.39,
706,0.01,0.37,
707,0.0,0.34,
708,-0.01,0.34,
709,-0.025,0.32,
710,-0.045,0.31,
711,-0.06,0.27,
712,-0.075,0.255,
713,-0.085,0.23,
714,-0.105,0.185,
715,-0.135,0.155,
716,-0.155,0.125,
717,-0.185,0.065,
718,-0.22,0.015,
719,-0.255,-0.015,
720,-0.285,-0.04,
721,-0.31,-0.06,
722,-0.345,-0.08,
723,-0.36,-0.1,
724,-0.375,-0.115,
725,-0.385,-0.135,
726,-0.385,-0.155,
727,-0.4,-0.175,
728,-0.425,-0.205,
729,-0.435,-0.225,
730,-0.455,-0.235,
731,-0.47,-0.25,
732,-0.485,-0.25,
733,-0.48,-0.26,
734,-0.48,-0.255,
735,-0.475,-0.245,
736,-0.47,-0.24,
737,-0.47,-0.25,
738,-0.485,-0.255,
739,-0.48,-0.26,
740,-0.475,-0.26,
741,-0.495,-0.27,
742,-0.495,-0.28,
743,-0.485,-0.27,
744,-0.495,-0.285,
745,-0.485,-0.285,
746,-0.485,-0.265,
747,-0.485,-0.26,
748,-0.48,-0.245,
749,-0.465,-0.24,
750,-0.47,-0.24,
751,-0.46,-0.235,
752,-0.47,-0.245,
753,-0.47,-0.245,
754,-0.465,-0.26,
755,-0.47,-0.265,
756,-0.47,-0.265,
757,-0.465,-0.26,
758,-0.475,-0.26,
759,-0.465,-0.24,
760,-0.46,-0.235,
761,-0.445,-0.225,
762,-0.43,-0.23,
763,-0.435,-0.235,
764,-0.425,-0.25,
765,-0.43,-0.24,
766,-0.435,-0.265,
767,-0.45,-0.26,
768,-0.46,-0.25,
769,-0.46,-0.25,
770,-0.46,-0.245,
771,-0.455,-0.255,
772,-0.45,-0.24,
773,-0.445,-0.25,
774,-0.435,-0.23,
775,-0.44,-0.245,
776,-0.455,-0.25,
777,-0.46,-0.26,
778,-0.48,-0.275,
779,-0.48,-0.275,
780,-0.495,-0.27,
781,-0.51,-0.28,
782,-0.49,-0.27,
783,-0.49,-0.27,
784,-0.49,-0.255,
785,-0.485,-0.27,
786,-0.495,-0.27,
787,-0.5,-0.28,
788,-0.5,-0.28,
789,-0.515,-0.29,
790,-0.53,-0.3,
791,-0.535,-0.305,
792,-0.53,-0.305,
793,-0.53,-0.315,
794,-0.52,-0.31,
795,-0.5,-0.3,
796,-0.505,-0.285,
797,-0.495,-0.285,
798,-0.485,-0.295,
799,-0.49,-0.29,
800,-0.485,-0.295,
801,-0.485,-0.3,
802,-0.475,-0.295,
803,-0.475,-0.305,
804,-0.48,-0.31,
805,-0.48,-0.295,
806,-0.485,-0.295,
807,-0.465,-0.275,
808,-0.46,-0.26,
809,-0.44,-0.26,
810,-0.42,-0.25,
811,-0.405,-0.245,
812,-0.39,-0.23,
813,-0.395,-0.25,
814,-0.4,-0.24,
815,-0.405,-0.24,
816,-0.4,-0.24,
817,-0.39,-0.22,
818,-0.375,-0.205,
819,-0.365,-0.205,
820,-0.36,-0.185,
821,-0.35,-0.175,
822,-0.365,-0.18,
823,-0.355,-0.175,
824,-0.37,-0.195,
825,-0.37,-0.215,
826,-0.385,-0.23,
827,-0.39,-0.26,
828,-0.4,-0.27,
829,-0.405,-0.27,
830,-0.41,-0.275,
831,-0.415,-0.28,
832,-0.44,-0.285,
833,-0.45,-0.295,
834,-0.445,-0.305,
835,-0.465,-0.315,
836,-0.465,-0.325,
837,-0.475,-0.34,
838,-0.485,-0.335,
839,-0.505,-0.35,
840,-0.51,-0.345,
841,-0.54,-0.36,
842,-0.54,-0.36,
843,-0.54,-0.36,
844,-0.535,-0.35,
845,-0.54,-0.345,
846,-0.54,-0.36,
847,-0.525,-0.365,
848,-0.53,-0.36,
849,-0.53,-0.37,
850,-0.535,-0.37,
851,-0.55,-0.365,
852,-0.555,-0.375,
853,-0.555,-0.37,
854,-0.54,-0.355,
855,-0.525,-0.35,
856,-0.515,-0.345,
857,-0.51,-0.335,
858,-0.49,-0.345,
859,-0.485,-0.345,
860,-0.48,-0.335,
861,-0.475,-0.355,
862,-0.465,-0.36,
863,-0.47,-0.37,
864,-0.465,-0.35,
865,-0.45,-0.355,
866,-0.435,-0.345,
867,-0.41,-0.32,
868,-0.395,-0.325,
869,-0.365,-0.305,
870,-0.355,-0.28,
871,-0.32,-0.255,
872,-0.235,-0.22,
873,-0.125,-0.175,
874,0.01,-0.125,
875,0.175,-0.07,
876,0.38,0.025,
877,0.6,0.13,
878,0.82,0.23,
879,1.04,0.305,
880,1.2,0.335,N
881,1.265,0.28,
882,1.21,0.14,
883,1.005,-0.045,
884,0.685,-0.255,
885,0.245,-0.47,
886,-0.285,-0.63,
887,-0.825,-0.79,
888,-1.31,-0.9,
889,-1.635,-1.01,
890,-1.755,-1.08,
891,-1.655,-1.13,
892,-1.42,-1.12,
893,-1.135,-1.085,
894,-0.88,-1.025,
895,-0.665,-0.945,
896,-0.52,-0.83,
897,-0.435,-0.705,
898,-0.375,-0.575,
899,-0.375,-0.455,
900,-0.38,-0.355,
901,-0.41,-0.285,
902,-0.415,-0.25,
903,-0.41,-0.23,
904,-0.405,-0.215,
905,-0.4,-0.205,
906,-0.39,-0.205,
907,-0.375,-0.19,
908,-0.38,-0.18,
909,-0.395,-0.18,
910,-0.395,-0.18,
911,-0.41,-0.16,
912,-0.39,-0.165,
913,-0.395,-0.14,
914,-0.385,-0.125,
915,-0.365,-0.115,
916,-0.36,-0.095,
917,-0.35,-0.085,
918,-0.335,-0.085,
919,-0.335,-0.075,
920,-0.33,-0.07,
921,-0.335,-0.08,
922,-0.33,-0.065,
923,-0.32,-0.065,
924,-0.325,-0.055,
925,-0.305,-0.04,
926,-0.295,-0.03,
927,-0.285,-0.03,
928,-0.26,-0.005,
929,-0.255,0.005,
930,-0.24,0.03,
931,-0.23,0.03,
932,-0.225,0.025,
933,-0.215,0.03,
934,-0.215,0.035,
935,-0.205,0.055,
936,-0.19,0.07,
937,-0.185,0.09,
938,-0.17,0.105,
939,-0.16,0.125,
940,-0.15,0.155,
941,-0.135,0.165,
942,-0.125,0.19,
943,-0.1,0.21,
944,-0.095,0.22,
945,-0.095,0.225,
946,-0.08,0.255,
947,-0.075,0.265,
948,-0.065,0.275,
949,-0.055,0.315,
950,-0.045,0.335,
951,-0.03,0.37,
952,-0.02,0.38,
953,0.01,0.415,
954,0.02,0.42,
955,0.015,0.44,
956,0.02,0.44,
957,0.01,0.45,
958,0.015,0.46,
959,0.015,0.465,
960,0.02,0.48,
961,0.025,0.495,
962,0.04,0.51,
963,0.035,0.5,
964,0.045,0.51,
965,0.05,0.515,
966,0.055,0.5,
967,0.055,0.505,
968,0.06,0.475,
969,0.055,0.465,
970,0.04,0.44,
971,0.04,0.415,
972,0.025,0.38,
973,0.015,0.37,
974,-0.01,0.34,
975,-0.02,0.33,
976,-0.045,0.3,
977,-0.07,0.265,
978,-0.085,0.235,
979,-0.105,0.19,
980,-0.13,0.155,
981,-0.165,0.115,
982,-0.21,0.065,
983,-0.24,0.025,
984,-0.27,-0.005,
985,-0.31,-0.03,
986,-0.34,-0.055,
987,-0.33,-0.075,
988,-0.345,-0.1,
989,-0.36,-0.12,
990,-0.365,-0.15,
991,-0.38,-0.165,
992,-0.395,-0.185,
993,-0.415,-0.19,
994,-0.425,-0.21,
995,-0.43,-0.235,
996,-0.44,-0.235,
997,-0.445,-0.235,
998,-0.435,-0.245,
999,-0.42,-0.23,
1000,-0.425,-0.23,
1001,-0.43,-0.25,
1002,-0.43,-0.24,
1003,-0.425,-0.25,
1004,-0.405,-0.255,
1005,-0.405,-0.255,
1006,-0.39,-0.25,
1007,-0.395,-0.26,
1008,-0.38,-0.255,
1009,-0.375,-0.235,
1010,-0.365,-0.24,
1011,-0.35,-0.235,
1012,-0.365,-0.225,
1013,-0.35,-0.23,
1014,-0.33,-0.23,
1015,-0.325,-0.235,
1016,-0.345,-0.23,
1017,-0.345,-0.245,
1018,-0.345,-0.26,
1019,-0.35,-0.255,
1020,-0.345,-0.245,
1021,-0.335,-0.245,
1022,-0.34,-0.23,
1023,-0.31,-0.22,
1024,-0.305,-0.215,
1025,-0.285,-0.23,
1026,-0.27,-0.22,
1027,-0.265,-0.24,
1028,-0.285,-0.26,
1029,-0.295,-0.255,
1030,-0.31,-0.265,
1031,-0.325,-0.265,
1032,-0.33,-0.265,
1033,-0.335,-0.26,
1034,-0.335,-0.255,
1035,-0.355,-0.255,
1036,-0.355,-0.26,
1037,-0.365,-0.245,
1038,-0.365,-0.26,
1039,-0.37,-0.25,
1040,-0.385,-0.265,
1041,-0.395,-0.27,
1042,-0.415,-0.285,
1043,-0.41,-0.275,
1044,-0.435,-0.275,
1045,-0.45,-0.28,
1046,-0.465,-0.27,
1047,-0.475,-0.295,
1048,-0.485,-0.28,
1049,-0.495,-0.3,
1050,-0.485,-0.305,
1051,-0.5,-0.315,
1052,-0.505,-0.32,
1053,-0.51,-0.33,
1054,-0.515,-0.34,
1055,-0.51,-0.34,
1056,-0.505,-0.335,
1057,-0.5,-0.335,
1058,-0.505,-0.335,
1059,-0.515,-0.32,
1060,-0.515,-0.31,
1061,-0.51,-0.32,
1062,-0.505,-0.32,
1063,-0.505,-0.325,
1064,-0.515,-0.33,
1065,-0.52,-0.345,
1066,-0.535,-0.34,
1067,-0.525,-0.335,
1068,-0.52,-0.32,
1069,-0.52,-0.305,
1070,-0.505,-0.29,
1071,-0.48,-0.28,
1072,-0.475,-0.285,
1073,-0.465,-0.25,
1074,-0.455,-0.26,
1075,-0.475,-0.26,
1076,-0.475,-0.255,
1077,-0.47,-0.25,
1078,-0.47,-0.26,
1079,-0.48,-0.25,
1080,-0.49,-0.235,
1081,-0.48,-0.235,
1082,-0.49,-0.225,
1083,-0.495,-0.22,
1084,-0.51,-0.235,
1085,-0.525,-0.235,
1086,-0.525,-0.265,
1087,-0.54,-0.28,
1088,-0.55,-0.305,
1089,-0.555,-0.3,
1090,-0.58,-0.315,
1091,-0.59,-0.32,
1092,-0.6,-0.325,
1093,-0.61,-0.33,
1094,-0.615,-0.335,
1095,-0.605,-0.33,
1096,-0.605,-0.325,
1097,-0.6,-0.335,
1098,-0.595,-0.345,
1099,-0.59,-0.35,
1100,-0.605,-0.38,
1101,-0.6,-0.375,
1102,-0.595,-0.38,
1103,-0.595,-0.395,
1104,-0.585,-0.385,
1105,-0.57,-0.38,
1106,-0.555,-0.37,
1107,-0.56,-0.355,
1108,-0.54,-0.36,
1109,-0.53,-0.36,
1110,-0.53,-0.35,
1111,-0.53,-0.36,
1112,-0.535,-0.365,
1113,-0.53,-0.38,
1114,-0.535,-0.375,
1115,-0.54,-0.37,
1116,-0.545,-0.365,
1117,-0.545,-0.36,
1118,-0.52,-0.355,
1119,-0.535,-0.34,
1120,-0.52,-0.34,
1121,-0.51,-0.34,
1122,-0.5,-0.335,
1123,-0.5,-0.335,
1124,-0.515,-0.33,
1125,-0.49,-0.33,
1126,-0.485,-0.33,
1127,-0.475,-0.32,
1128,-0.47,-0.3,
1129,-0.445,-0.28,
1130,-0.395,-0.23,
1131,-0.32,-0.19,
1132,-0.19,-0.125,
1133,-0.03,-0.05,
1134,0.16,0.02,
1135,0.385,0.13,
1136,0.6,0.22,
1137,0.82,0.31,
1138,0.995,0.36,N
1139,1.095,0.35,
1140,1.09,0.26,
1141,0.93,0.13,
1142,0.635,-0.055,
1143,0.2,-0.25,
1144,-0.31,-0.43,
1145,-0.85,-0.57,
1146,-1.335,-0.71,
1147,-1.655,-0.805,
1148,-1.78,-0.935,
1149,-1.705,-1.0,
1150,-1.465,-1.02,
1151,-1.19,-1.02,
1152,-0.925,-0.965,
1153,-0.705,-0.89,
1154,-0.57,-0.765,
1155,-0.455,-0.635,
1156,-0.41,-0.495,
1157,-0.4,-0.38,
1158,-0.4,-0.31,
1159,-0.41,-0.26,
1160,-0.435,-0.245,
1161,-0.425,-0.24,
1162,-0.415,-0.235,
1163,-0.41,-0.225,
1164,-0.395,-0.21,
1165,-0.375,-0.205,
1166,-0.37,-0.185,
1167,-0.36,-0.18,
1168,-0.355,-0.16,
1169,-0.345,-0.145,
1170,-0.335,-0.135,
1171,-0.32,-0.14,
1172,-0.32,-0.14,
1173,-0.31,-0.15,
1174,-0.33,-0.135,
1175,-0.325,-0.15,
1176,-0.315,-0.125,
1177,-0.32,-0.125,
1178,-0.315,-0.105,
1179,-0.3,-0.095,
1180,-0.27,-0.085,
1181,-0.26,-0.065,
1182,-0.25,-0.08,
1183,-0.24,-0.07,
1184,-0.24,-0.06,
1185,-0.245,-0.065,
1186,-0.24,-0.05,
1187,-0.255,-0.045,
1188,-0.235,-0.045,
1189,-0.235,-0.025,
1190,-0.22,-0.005,
1191,-0.21,0.005,
1192,-0.19,0.04,
1193,-0.17,0.045,
1194,-0.16,0.05,
1195,-0.15,0.055,
1196,-0.14,0.07,
1197,-0.13,0.07,
1198,-0.11,0.095,
1199,-0.08,0.105,
1200,-0.08,0.11,
1201,-0.075,0.13,
1202,-0.05,0.165,
1203,-0.03,0.19,
1204,-0.005,0.22,
1205,0.005,0.24,
1206,0.03,0.245,
1207,0.05,0.26,
1208,0.065,0.26,
1209,0.06,0.275,
1210,0.075,0.285,
1211,0.09,0.295,
1212,0.105,0.31,
1213,0.115,0.335,
1214,0.115,0.345,
1215,0.125,0.375,
1216,0.13,0.375,
1217,0.145,0.38,
1218,0.165,0.38,
1219,0.17,0.375,
1220,0.17,0.38,
1221,0.17,0.365,
1222,0.155,0.365,
1223,0.16,0.375,
1224,0.145,0.36,
1225,0.14,0.365,
1226,0.145,0.36,
1227,0.15,0.355,
1228,0.145,0.355,
1229,0.155,0.335,
1230,0.155,0.315,
1231,0.135,0.295,
1232,0.12,0.275,
1233,0.085,0.235,
1234,0.05,0.215,
1235,0.015,0.18,
1236,-0.005,0.16,
1237,-0.03,0.135,
1238,-0.05,0.13,
1239,-0.06,0.095,
1240,-0.07,0.065,
1241,-0.08,0.05,
1242,-0.12,0.005,
1243,-0.13,-0.01,
1244,-0.16,-0.05,
1245,-0.185,-0.075,
1246,-0.215,-0.1,
1247,-0.24,-0.115,
1248,-0.255,-0.125,
1249,-0.275,-0.14,
1250,-0.285,-0.14,
1251,-0.3,-0.16,
1252,-0.3,-0.175,
1253,-0.305,-0.165,
1254,-0.325,-0.175,
1255,-0.325,-0.18,
1256,-0.33,-0.2,
1257,-0.345,-0.21,
1258,-0.35,-0.215,
1259,-0.35,-0.205,
1260,-0.36,-0.205,
1261,-0.37,-0.215,
1262,-0.38,-0.19,
1263,-0.38,-0.195,
1264,-0.37,-0.19,
1265,-0.36,-0.19,
1266,-0.345,-0.195,
1267,-0.355,-0.205,
1268,-0.335,-0.205,
1269,-0.34,-0.205,
1270,-0.335,-0.2,
1271,-0.34,-0.215,
1272,-0.34,-0.205,
1273,-0.345,-0.21,
1274,-0.345,-0.205,
1275,-0.325,-0.18,
1276,-0.335,-0.2,
1277,-0.325,-0.185,
1278,-0.33,-0.19,
1279,-0.335,-0.2,
1280,-0.33,-0.21,
1281,-0.345,-0.225,
1282,-0.35,-0.23,
1283,-0.365,-0.23,
1284,-0.36,-0.225,
1285,-0.35,-0.22,
1286,-0.355,-0.22,
1287,-0.35,-0.215,
1288,-0.335,-0.21,
1289,-0.33,-0.21,
1290,-0.33,-0.22,
1291,-0.33,-0.215,
1292,-0.34,-0.215,
1293,-0.345,-0.215,
1294,-0.37,-0.235,
1295,-0.375,-0.235,
1296,-0.37,-0.245,
1297,-0.345,-0.24,
1298,-0.34,-0.225,
1299,-0.335,-0.23,
1300,-0.33,-0.225,
1301,-0.315,-0.23,
1302,-0.325,-0.23,
1303,-0.32,-0.225,
1304,-0.325,-0.245,
1305,-0.325,-0.255,
1306,-0.335,-0.27,
1307,-0.34,-0.265,
1308,-0.34,-0.26,
1309,-0.325,-0.275,
1310,-0.325,-0.26,
1311,-0.325,-0.265,
1312,-0.32,-0.27,
1313,-0.31,-0.265,
1314,-0.305,-0.28,
1315,-0.3,-0.28,
1316,-0.315,-0.29,
1317,-0.315,-0.305,
1318,-0.33,-0.295,
1319,-0.335,-0.305,
1320,-0.355,-0.31,
1321,-0.355,-0.3,
1322,-0.345,-0.3,
1323,-0.345,-0.29,
1324,-0.335,-0.275,
1325,-0.33,-0.28,
1326,-0.305,-0.275,
1327,-0.305,-0.29,
1328,-0.29,-0.27,
1329,-0.29,-0.285,
1330,-0.28,-0.285,
1331,-0.285,-0.27,
1332,-0.26,-0.26,
1333,-0.255,-0.235,
1334,-0.235,-0.23,
1335,-0.22,-0.22,
1336,-0.21,-0.22,
1337,-0.2,-0.21,
1338,-0.18,-0.21,
1339,-0.175,-0.21,
1340,-0.18,-0.21,
1341,-0.19,-0.215,
1342,-0.21,-0.22,
1343,-0.23,-0.225,
1344,-0.235,-0.23,
1345,-0.255,-0.25,
1346,-0.245,-0.25,
1347,-0.255,-0.255,
1348,-0.25,-0.255,
1349,-0.245,-0.25,
1350,-0.255,-0.265,
1351,-0.26,-0.27,
1352,-0.28,-0.275,
1353,-0.3,-0.285,
1354,-0.33,-0.3,
1355,-0.345,-0.31,
1356,-0.36,-0.305,
1357,-0.36,-0.295,
1358,-0.365,-0.285,
1359,-0.375,-0.3,
1360,-0.38,-0.295,
1361,-0.39,-0.3,
1362,-0.405,-0.305,
1363,-0.405,-0.315,
1364,-0.405,-0.32,
1365,-0.42,-0.32,
1366,-0.42,-0.34,
1367,-0.425,-0.355,
1368,-0.435,-0.345,
1369,-0.42,-0.335,
1370,-0.42,-0.325,
1371,-0.41,-0.315,
1372,-0.415,-0.31,
1373,-0.395,-0.315,
1374,-0.405,-0.305,
1375,-0.41,-0.315,
1376,-0.415,-0.33,
1377,-0.42,-0.325,
1378,-0.43,-0.34,
1379,-0.43,-0.32,
1380,-0.425,-0.315,
1381,-0.42,-0.32,
1382,-0.415,-0.31,
1383,-0.42,-0.295,
1384,-0.41,-0.285,
1385,-0.41,-0.28,
1386,-0.395,-0.27,
1387,-0.4,-0.275,
1388,-0.395,-0.275,
1389,-0.39,-0.275,
1390,-0.39,-0.275,
1391,-0.37,-0.255,
1392,-0.33,-0.215,
1393,-0.265,-0.155,
1394,-0.17,-0.105,
1395,-0.005,-0.02,
1396,0.165,0.065,
1397,0.385,0.175,
1398,0.585,0.265,
1399,0.795,0.37,
1400,0.96,0.42,N
1401,1.065,0.4,
1402,1.065,0.325,
1403,0.95,0.165,
1404,0.705,-0.02,
1405,0.335,-0.225,
1406,-0.095,-0.39,
1407,-0.575,-0.54,
1408,-1.02,-0.655,
1409,-1.365,-0.77,
1410,-1.53,-0.875,
1411,-1.525,-0.94,
1412,-1.38,-0.995,
1413,-1.145,-0.995,
1414,-0.915,-0.965,
1415,-0.71,-0.9,
1416,-0.565,-0.785,
1417,-0.44,-0.66,
1418,-0.38,-0.52,
1419,-0.35,-0.405,
1420,-0.34,-0.305,
1421,-0.355,-0.23,
1422,-0.355,-0.205,
1423,-0.36,-0.18,
1424,-0.365,-0.185,
1425,-0.36,-0.18,
1426,-0.35,-0.18,
1427,-0.345,-0.175,
1428,-0.35,-0.16,
1429,-0.34,-0.14,
1430,-0.325,-0.125,
1431,-0.32,-0.115,
1432,-0.315,-0.1,
1433,-0.305,-0.095,
1434,-0.285,-0.09,
1435,-0.275,-0.08,
1436,-0.265,-0.08,
1437,-0.29,-0.09,
1438,-0.275,-0.085,
1439,-0.28,-0.075,
1440,-0.27,-0.065,
1441,-0.27,-0.05,
1442,-0.255,-0.05,
1443,-0.235,-0.02,
1444,-0.22,-0.005,
1445,-0.19,0.005,
1446,-0.18,0.005,
1447,-0.155,0.025,
1448,-0.15,0.015,
1449,-0.15,0.03,
1450,-0.16,0.03,
1451,-0.145,0.04,
1452,-0.14,0.055,
1453,-0.12,0.055,
1454,-0.08,0.075,
1455,-0.06,0.11,
1456,-0.035,0.125,
1457,-0.01,0.145,
1458,0.01,0.155,
1459,0.025,0.16,
1460,0.035,0.17,
1461,0.04,0.185,
1462,0.055,0.19,
1463,0.08,0.205,
1464,0.09,0.23,
1465,0.11,0.255,
1466,0.13,0.27,
1467,0.155,0.29,
1468,0.175,0.32,
1469,0.195,0.34,
1470,0.205,0.335,
1471,0.215,0.355,
1472,0.235,0.365,
1473,0.23,0.37,
1474,0.24,0.375,
1475,0.24,0.385,
1476,0.245,0.395,
1477,0.25,0.405,
1478,0.25,0.425,
1479,0.265,0.43,
1480,0.27,0.445,
1481,0.275,0.445,
1482,0.245,0.45,
1483,0.235,0.435,
1484,0.205,0.425,
1485,0.19,0.425,
1486,0.165,0.405,
1487,0.135,0.405,
1488,0.125,0.405,
1489,0.13,0.385,
1490,0.13,0.38,
1491,0.11,0.375,
1492,0.095,0.36,
1493,0.105,0.335,
1494,0.09,0.315,
1495,0.065,0.285,
1496,0.035,0.245,
1497,0.01,0.205,
1498,-0.015,0.17,
1499,-0.045,0.145,
1500,-0.07,0.115,
1501,-0.1,0.1,
1502,-0.135,0.07,
1503,-0.145,0.03,
1504,-0.17,0.015,
1505,-0.19,-0.005,
1506,-0.215,-0.03,
1507,-0.24,-0.065,
1508,-0.255,-0.095,
1509,-0.285,-0.12,
1510,-0.3,-0.145,
1511,-0.315,-0.155,
1512,-0.325,-0.17,
1513,-0.345,-0.185,
1514,-0.35,-0.18,
1515,-0.355,-0.195,
1516,-0.35,-0.195,
1517,-0.365,-0.185,
1518,-0.37,-0.205,
1519,-0.37,-0.21,
1520,-0.385,-0.23,
1521,-0.39,-0.225,
1522,-0.39,-0.235,
1523,-0.4,-0.24,
1524,-0.405,-0.26,
1525,-0.42,-0.245,
1526,-0.415,-0.25,
1527,-0.425,-0.235,
1528,-0.42,-0.225,
1529,-0.41,-0.23,
1530,-0.415,-0.235,
1531,-0.415,-0.22,
1532,-0.425,-0.23,
1533,-0.425,-0.235,
1534,-0.435,-0.245,
1535,-0.435,-0.24,
1536,-0.44,-0.235,
1537,-0.435,-0.225,
1538,-0.45,-0.22,
1539,-0.435,-0.205,
1540,-0.43,-0.21,
1541,-0.445,-0.21,
1542,-0.43,-0.205,
1543,-0.425,-0.205,
1544,-0.43,-0.215,
1545,-0.435,-0.23,+
1546,-0.43,-0.225,
1547,-0.425,-0.23,
1548,-0.415,-0.23,
1549,-0.425,-0.22,
1550,-0.405,-0.22,
1551,-0.4,-0.225,
1552,-0.385,-0.205,
1553,-0.375,-0.195,
1554,-0.395,-0.21,
1555,-0.39,-0.21,
1556,-0.39,-0.225,
1557,-0.385,-0.23,
1558,-0.385,-0.245,
1559,-0.385,-0.245,
1560,-0.39,-0.235,
1561,-0.385,-0.235,
1562,-0.36,-0.23,
1563,-0.345,-0.22,
1564,-0.34,-0.22,
1565,-0.335,-0.22,
1566,-0.33,-0.215,
1567,-0.33,-0.215,
1568,-0.315,-0.22,
1569,-0.335,-0.235,
1570,-0.32,-0.245,
1571,-0.335,-0.235,
1572,-0.345,-0.245,
1573,-0.35,-0.24,
1574,-0.345,-0.23,
1575,-0.345,-0.225,
1576,-0.35,-0.205,
1577,-0.335,-0.205,
1578,-0.34,-0.225,
1579,-0.34,-0.215,
1580,-0.345,-0.225,
1581,-0.365,-0.23,
1582,-0.37,-0.23,
1583,-0.38,-0.235,
1584,-0.38,-0.23,
1585,-0.38,-0.22,
1586,-0.375,-0.205,
1587,-0.36,-0.22,
1588,-0.345,-0.205,
1589,-0.335,-0.195,
1590,-0.315,-0.185,
1591,-0.305,-0.18,
1592,-0.29,-0.175,
1593,-0.295,-0.17,
1594,-0.3,-0.165,
1595,-0.295,-0.165,
1596,-0.295,-0.16,
1597,-0.295,-0.15,
1598,-0.28,-0.15,
1599,-0.27,-0.145,
1600,-0.255,-0.12,
1601,-0.255,-0.12,
1602,-0.25,-0.11,
1603,-0.255,-0.125,
1604,-0.265,-0.125,
1605,-0.28,-0.135,
1606,-0.29,-0.155,
1607,-0.305,-0.17,
1608,-0.31,-0.19,
1609,-0.315,-0.195,
1610,-0.315,-0.205,
1611,-0.31,-0.195,
1612,-0.305,-0.195,
1613,-0.31,-0.19,
1614,-0.335,-0.19,
1615,-0.335,-0.205,
1616,-0.35,-0.22,
1617,-0.35,-0.245,
1618,-0.38,-0.255,
1619,-0.39,-0.255,
1620,-0.385,-0.26,
1621,-0.385,-0.255,
1622,-0.405,-0.26,
1623,-0.425,-0.255,
1624,-0.42,-0.255,
1625,-0.415,-0.27,
1626,-0.41,-0.275,
1627,-0.415,-0.285,
1628,-0.4,-0.29,
1629,-0.405,-0.29,
1630,-0.405,-0.295,
1631,-0.395,-0.295,
1632,-0.395,-0.285,
1633,-0.405,-0.28,
1634,-0.395,-0.255,
1635,-0.38,-0.25,
1636,-0.37,-0.22,
1637,-0.345,-0.205,
1638,-0.32,-0.21,
1639,-0.31,-0.195,
1640,-0.315,-0.195,
1641,-0.3,-0.18,
1642,-0.29,-0.175,
1643,-0.305,-0.16,
1644,-0.285,-0.145,
1645,-0.265,-0.12,
1646,-0.21,-0.1,
1647,-0.18,-0.07,
1648,-0.155,-0.035,
1649,-0.12,-0.03,
1650,-0.105,-0.015,
1651,-0.065,-0.005,
1652,-0.025,0.01,
1653,0.0,0.015,
1654,0.025,0.035,
1655,0.06,0.035,
1656,0.11,0.065,
1657,0.165,0.12,
1658,0.255,0.18,
1659,0.38,0.26,
1660,0.525,0.345,
1661,0.695,0.44,
1662,0.865,0.54,
1663,1.065,0.655,
1664,1.255,0.77,
1665,1.425,0.85,
1666,1.545,0.875,N
1667,1.595,0.85,
1668,1.53,0.75,
1669,1.35,0.595,
1670,1.065,0.42,
1671,0.68,0.27,
1672,0.25,0.15,
1673,-0.19,0.04,
1674,-0.615,-0.07,
1675,-0.925,-0.185,
1676,-1.09,-0.315,
1677,-1.14,-0.43,
1678,-1.065,-0.5,
1679,-0.945,-0.555,
1680,-0.81,-0.555,
1681,-0.69,-0.515,
1682,-0.605,-0.445,
1683,-0.53,-0.39,
1684,-0.51,-0.315,
1685,-0.49,-0.265,
1686,-0.505,-0.24,
1687,-0.52,-0.23,
1688,-0.53,-0.225,
1689,-0.54,-0.23,
1690,-0.535,-0.25,
1691,-0.55,-0.255,
1692,-0.545,-0.245,
1693,-0.53,-0.24,
1694,-0.52,-0.225,
1695,-0.51,-0.22,
1696,-0.505,-0.2,
1697,-0.49,-0.195,
1698,-0.48,-0.19,
1699,-0.465,-0.2,
1700,-0.475,-0.225,
1701,-0.475,-0.21,
1702,-0.485,-0.215,
1703,-0.47,-0.215,
1704,-0.485,-0.205,
1705,-0.48,-0.205,
1706,-0.475,-0.185,
1707,-0.48,-0.185,
1708,-0.485,-0.18,
1709,-0.48,-0.165,
1710,-0.48,-0.17,
1711,-0.475,-0.19,
1712,-0.475,-0.195,
1713,-0.475,-0.205,
1714,-0.465,-0.195,
1715,-0.48,-0.2,
1716,-0.475,-0.165,
1717,-0.48,-0.18,
1718,-0.47,-0.175,
1719,-0.46,-0.165,
1720,-0.46,-0.16,
1721,-0.445,-0.14,
1722,-0.435,-0.145,
1723,-0.425,-0.15,
1724,-0.42,-0.16,
1725,-0.42,-0.17,
1726,-0.42,-0.155,
1727,-0.425,-0.155,
1728,-0.42,-0.155,
1729,-0.42,-0.14,
1730,-0.405,-0.13,
1731,-0.4,-0.12,
1732,-0.38,-0.1,
1733,-0.37,-0.085,
1734,-0.355,-0.095,
1735,-0.335,-0.08,
1736,-0.33,-0.075,
1737,-0.335,-0.085,
1738,-0.34,-0.065,
1739,-0.325,-0.07,
1740,-0.32,-0.055,
1741,-0.305,-0.035,
1742,-0.29,-0.025,
1743,-0.275,0.0,
1744,-0.26,0.0,
1745,-0.25,0.025,
1746,-0.255,0.015,
1747,-0.235,0.035,
1748,-0.24,0.035,
1749,-0.24,0.035,
1750,-0.24,0.035,
1751,-0.24,0.045,
1752,-0.23,0.05,
1753,-0.205,0.07,
1754,-0.195,0.085,
1755,-0.175,0.095,
1756,-0.175,0.09,
1757,-0.15,0.095,
1758,-0.15,0.09,
1759,-0.14,0.06,
1760,-0.145,0.055,
1761,-0.145,0.04,
1762,-0.165,0.03,
1763,-0.17,0.005,
1764,-0.18,-0.01,
1765,-0.205,-0.025,
1766,-0.21,-0.035,
1767,-0.22,-0.04,
1768,-0.225,-0.05,
1769,-0.225,-0.07,
1770,-0.24,-0.09,
1771,-0.25,-0.095,
1772,-0.27,-0.11,
1773,-0.27,-0.135,
1774,-0.295,-0.16,
1775,-0.305,-0.165,
1776,-0.295,-0.17,
1777,-0.3,-0.17,
1778,-0.3,-0.18,
1779,-0.305,-0.19,
1780,-0.29,-0.17,
1781,-0.285,-0.175,
1782,-0.29,-0.18,
1783,-0.285,-0.19,
1784,-0.29,-0.2,
1785,-0.29,-0.215,
1786,-0.3,-0.22,
1787,-0.3,-0.225,
1788,-0.3,-0.225,
1789,-0.305,-0.225,
1790,-0.28,-0.21,
1791,-0.27,-0.22,
1792,-0.255,-0.2,
1793,-0.265,-0.2,
1794,-0.255,-0.215,
1795,-0.245,-0.21,
1796,-0.245,-0.21,
1797,-0.24,-0.21,
1798,-0.235,-0.235,
1799,-0.245,-0.23,
1800,-0.24,-0.225,
1801,-0.245,-0.23,
1802,-0.25,-0.215,
1803,-0.235,-0.215,
1804,-0.245,-0.205,
1805,-0.23,-0.205,
1806,-0.235,-0.2,
1807,-0.23,-0.205,
1808,-0.24,-0.2,
1809,-0.255,-0.21,
1810,-0.285,-0.22,
1811,-0.295,-0.225,
1812,-0.305,-0.225,
1813,-0.305,-0.21,
1814,-0.315,-0.205,
1815,-0.315,-0.215,
1816,-0.325,-0.215,
1817,-0.335,-0.195,
1818,-0.335,-0.195,
1819,-0.345,-0.21,
1820,-0.355,-0.215,
1821,-0.36,-0.23,
1822,-0.38,-0.225,
1823,-0.375,-0.235,
1824,-0.385,-0.23,
1825,-0.39,-0.24,
1826,-0.385,-0.235,
1827,-0.395,-0.225,
1828,-0.4,-0.225,
1829,-0.4,-0.215,
1830,-0.4,-0.22,
1831,-0.405,-0.215,
1832,-0.415,-0.23,
1833,-0.4,-0.24,
1834,-0.43,-0.25,
1835,-0.435,-0.26,
1836,-0.44,-0.255,
1837,-0.445,-0.255,
1838,-0.44,-0.255,
1839,-0.445,-0.245,
1840,-0.44,-0.235,
1841,-0.44,-0.24,
1842,-0.43,-0.235,
1843,-0.435,-0.24,
1844,-0.44,-0.26,
1845,-0.44,-0.255,
1846,-0.445,-0.27,
1847,-0.455,-0.275,
1848,-0.455,-0.27,
1849,-0.445,-0.265,
1850,-0.45,-0.26,
1851,-0.43,-0.255,
1852,-0.41,-0.24,
1853,-0.41,-0.23,
1854,-0.395,-0.22,
1855,-0.375,-0.215,
1856,-0.375,-0.23,
1857,-0.38,-0.22,
1858,-0.375,-0.22,
1859,-0.38,-0.195,
1860,-0.365,-0.19,
1861,-0.35,-0.18,
1862,-0.34,-0.185,
1863,-0.34,-0.165,
1864,-0.32,-0.15,
1865,-0.31,-0.155,
1866,-0.3,-0.135,
1867,-0.32,-0.13,
1868,-0.32,-0.135,
1869,-0.335,-0.15,
1870,-0.345,-0.15,
1871,-0.36,-0.175,
1872,-0.365,-0.175,
1873,-0.38,-0.195,
1874,-0.38,-0.2,
1875,-0.39,-0.195,
1876,-0.4,-0.2,
1877,-0.395,-0.18,
1878,-0.41,-0.195,
1879,-0.41,-0.195,
1880,-0.415,-0.215,
1881,-0.42,-0.22,
1882,-0.435,-0.245,
1883,-0.44,-0.235,
1884,-0.44,-0.23,
1885,-0.45,-0.24,
1886,-0.47,-0.24,
1887,-0.465,-0.24,
1888,-0.46,-0.24,
1889,-0.46,-0.25,
1890,-0.455,-0.26,
1891,-0.44,-0.26,
1892,-0.43,-0.27,
1893,-0.415,-0.26,
1894,-0.41,-0.27,
1895,-0.41,-0.27,
1896,-0.385,-0.265,
1897,-0.365,-0.25,
1898,-0.33,-0.215,
1899,-0.29,-0.21,
1900,-0.265,-0.2,
1901,-0.225,-0.18,
1902,-0.24,-0.165,
1903,-0.22,-0.14,
1904,-0.175,-0.14,
1905,-0.18,-0.125,
1906,-0.145,-0.115,
1907,-0.13,-0.11,
1908,-0.105,-0.08,
1909,-0.065,-0.05,
1910,-0.025,-0.02,
1911,0.005,0.0,
1912,0.03,0.03,
1913,0.08,0.035,
1914,0.125,0.065,
1915,0.17,0.075,
1916,0.21,0.08,
1917,0.245,0.11,
1918,0.28,0.15,
1919,0.355,0.205,
1920,0.44,0.285,
1921,0.54,0.37,
1922,0.685,0.49,
1923,0.835,0.615,
1924,1.025,0.74,
1925,1.205,0.86,
1926,1.355,0.93,N
1927,1.45,0.92,
1928,1.465,0.805,
1929,1.37,0.64,
1930,1.17,0.415,
1931,0.88,0.22,
1932,0.475,0.045,
1933,0.015,-0.11,
1934,-0.435,-0.205,
1935,-0.825,-0.315,
1936,-1.05,-0.41,
1937,-1.1,-0.49,
1938,-1.045,-0.545,
1939,-0.885,-0.55,
1940,-0.73,-0.545,
1941,-0.595,-0.5,
1942,-0.5,-0.445,
1943,-0.455,-0.38,
1944,-0.445,-0.305,
1945,-0.47,-0.26,
1946,-0.48,-0.235,
1947,-0.49,-0.215,
1948,-0.5,-0.215,
1949,-0.5,-0.22,
1950,-0.495,-0.225,
1951,-0.485,-0.23,
1952,-0.485,-0.23,
1953,-0.475,-0.23,
1954,-0.485,-0.225,
1955,-0.49,-0.23,
1956,-0.495,-0.22,
1957,-0.515,-0.225,
1958,-0.515,-0.22,
1959,-0.51,-0.225,
1960,-0.51,-0.205,
1961,-0.505,-0.205,
1962,-0.51,-0.205,
1963,-0.515,-0.195,
1964,-0.525,-0.2,
1965,-0.54,-0.215,
1966,-0.55,-0.205,
1967,-0.55,-0.21,
1968,-0.57,-0.205,
1969,-0.58,-0.205,
1970,-0.585,-0.19,
1971,-0.6,-0.175,
1972,-0.595,-0.155,
1973,-0.575,-0.15,
1974,-0.585,-0.14,
1975,-0.585,-0.16,
1976,-0.6,-0.16,
1977,-0.605,-0.165,
1978,-0.62,-0.175,
1979,-0.63,-0.17,
1980,-0.645,-0.16,
1981,-0.645,-0.15,
1982,-0.635,-0.145,
1983,-0.635,-0.13,
1984,-0.63,-0.125,
1985,-0.615,-0.12,
1986,-0.615,-0.115,
1987,-0.625,-0.105,
1988,-0.61,-0.12,
1989,-0.61,-0.115,
1990,-0.615,-0.11,
1991,-0.62,-0.105,
1992,-0.615,-0.09,
1993,-0.61,-0.09,
1994,-0.585,-0.07,
1995,-0.555,-0.055,
1996,-0.55,-0.035,
1997,-0.525,-0.025,
1998,-0.515,-0.02,
1999,-0.5,-0.01,
2000,-0.49,0.005,
2001,-0.475,0.015,
2002,-0.46,0.015,
2003,-0.455,0.02,
2004,-0.425,0.035,
2005,-0.415,0.055,
2006,-0.38,0.06,
2007,-0.355,0.085,
2008,-0.345,0.1,
2009,-0.325,0.13,
2010,-0.32,0.12,
2011,-0.295,0.135,
2012,-0.29,0.13,
2013,-0.285,0.13,
2014,-0.27,0.125,
2015,-0.27,0.13,
2016,-0.26,0.145,
2017,-0.26,0.145,
2018,-0.255,0.165,
2019,-0.245,0.165,
2020,-0.24,0.165,
2021,-0.235,0.16,
2022,-0.23,0.155,
2023,-0.225,0.145,
2024,-0.23,0.125,
2025,-0.245,0.1,
2026,-0.27,0.08,
2027,-0.295,0.06,
2028,-0.305,0.05,
2029,-0.315,0.035,
2030,-0.325,0.03,
2031,-0.34,0.015,
2032,-0.34,0.005,
2033,-0.34,0.005,
2034,-0.345,-0.015,
2035,-0.365,-0.03,
2036,-0.375,-0.06,
2037,-0.395,-0.07,
2038,-0.41,-0.075,
2039,-0.41,-0.105,
2040,-0.43,-0.095,
2041,-0.425,-0.095,
2042,-0.425,-0.11,
2043,-0.41,-0.105,
2044,-0.405,-0.115,
2045,-0.4,-0.095,
2046,-0.4,-0.1,
2047,-0.395,-0.115,
2048,-0.4,-0.125,
2049,-0.4,-0.13,
2050,-0.39,-0.14,
2051,-0.405,-0.14,
2052,-0.395,-0.155,
2053,-0.375,-0.145,
2054,-0.375,-0.14,
2055,-0.36,-0.135,
2056,-0.35,-0.135,
2057,-0.35,-0.13,
2058,-0.345,-0.12,
2059,-0.34,-0.14,
2060,-0.335,-0.145,
2061,-0.34,-0.145,
2062,-0.33,-0.16,
2063,-0.335,-0.16,
2064,-0.345,-0.165,
2065,-0.335,-0.165,
2066,-0.33,-0.155,
2067,-0.32,-0.15,
2068,-0.33,-0.145,
2069,-0.32,-0.135,
2070,-0.315,-0.15,
2071,-0.3,-0.145,
2072,-0.31,-0.17,
2073,-0.295,-0.165,
2074,-0.315,-0.18,
2075,-0.325,-0.18,
2076,-0.33,-0.175,
2077,-0.34,-0.18,
2078,-0.34,-0.175,
2079,-0.34,-0.175,
2080,-0.33,-0.17,
2081,-0.325,-0.165,
2082,-0.325,-0.17,
2083,-0.315,-0.17,
2084,-0.33,-0.175,
2085,-0.335,-0.18,
2086,-0.335,-0.19,
2087,-0.355,-0.195,
2088,-0.36,-0.215,
2089,-0.365,-0.2,
2090,-0.365,-0.195,
2091,-0.355,-0.19,
2092,-0.36,-0.19,
2093,-0.355,-0.18,
2094,-0.35,-0.175,
2095,-0.345,-0.19,
2096,-0.36,-0.2,
2097,-0.36,-0.215,
2098,-0.375,-0.21,
2099,-0.38,-0.225,
2100,-0.37,-0.22,
2101,-0.37,-0.22,
2102,-0.38,-0.21,
2103,-0.37,-0.2,
2104,-0.375,-0.205,
2105,-0.38,-0.19,
2106,-0.375,-0.195,
2107,-0.385,-0.2,
2108,-0.375,-0.215,
2109,-0.385,-0.2,
2110,-0.405,-0.21,
2111,-0.405,-0.215,
2112,-0.425,-0.22,
2113,-0.435,-0.21,
2114,-0.435,-0.21,
2115,-0.435,-0.2,
2116,-0.43,-0.19,
2117,-0.42,-0.19,
2118,-0.435,-0.19,
2119,-0.43,-0.18,
2120,-0.43,-0.185,
2121,-0.435,-0.19,
2122,-0.44,-0.21,
2123,-0.45,-0.215,
2124,-0.445,-0.205,
2125,-0.45,-0.205,
2126,-0.435,-0.19,
2127,-0.435,-0.19,
2128,-0.41,-0.18,
2129,-0.39,-0.165,
2130,-0.37,-0.17,
2131,-0.345,-0.15,
2132,-0.33,-0.145,
2133,-0.325,-0.145,
2134,-0.31,-0.145,
2135,-0.305,-0.135,
2136,-0.285,-0.11,
2137,-0.265,-0.105,
2138,-0.245,-0.095,
2139,-0.23,-0.065,
2140,-0.23,-0.06,
2141,-0.21,-0.05,
2142,-0.21,-0.055,
2143,-0.22,-0.04,
2144,-0.22,-0.065,
2145,-0.225,-0.09,
2146,-0.245,-0.11,
2147,-0.245,-0.145,
2148,-0.25,-0.16,
2149,-0.26,-0.165,
2150,-0.26,-0.16,
2151,-0.275,-0.155,
2152,-0.285,-0.16,
2153,-0.285,-0.15,
2154,-0.295,-0.16,
2155,-0.295,-0.165,
2156,-0.29,-0.175,
2157,-0.305,-0.19,
2158,-0.33,-0.2,
2159,-0.35,-0.215,
2160,-0.365,-0.225,
2161,-0.38,-0.235,
2162,-0.385,-0.225,
2163,-0.37,-0.23,
2164,-0.36,-0.23,
2165,-0.345,-0.22,
2166,-0.325,-0.225,
2167,-0.305,-0.225,
2168,-0.285,-0.21,
2169,-0.27,-0.22,
2170,-0.275,-0.215,
2171,-0.28,-0.215,
2172,-0.28,-0.205,
2173,-0.28,-0.19,
2174,-0.255,-0.17,
2175,-0.225,-0.145,
2176,-0.2,-0.12,
2177,-0.19,-0.105,
2178,-0.15,-0.095,
2179,-0.135,-0.07,
2180,-0.115,-0.05,
2181,-0.085,-0.04,
2182,-0.07,-0.01,
2183,-0.04,-0.01,
2184,-0.005,0.025,
2185,0.035,0.04,
2186,0.07,0.065,
2187,0.12,0.09,
2188,0.16,0.11,
2189,0.2,0.145,
2190,0.245,0.17,
2191,0.31,0.225,
2192,0.39,0.28,
2193,0.49,0.345,
2194,0.63,0.435,
2195,0.775,0.545,
2196,0.96,0.655,
2197,1.14,0.77,
2198,1.325,0.86,
2199,1.475,0.89,N
2200,1.56,0.835,
2201,1.56,0.695,
2202,1.435,0.505,
2203,1.225,0.29,
2204,0.885,0.105,
2205,0.46,-0.045,
2206,0.01,-0.15,
2207,-0.425,-0.235,
2208,-0.75,-0.34,
2209,-0.93,-0.43,
2210,-0.965,-0.495,
2211,-0.87,-0.55,
2212,-0.725,-0.565,
2213,-0.565,-0.535,
2214,-0.425,-0.515,
2215,-0.34,-0.435,
2216,-0.285,-0.37,
2217,-0.28,-0.3,
2218,-0.285,-0.255,
2219,-0.3,-0.23,
2220,-0.335,-0.22,
2221,-0.345,-0.21,
2222,-0.35,-0.21,
2223,-0.34,-0.205,
2224,-0.32,-0.21,
2225,-0.305,-0.205,
2226,-0.31,-0.205,
2227,-0.315,-0.205,
2228,-0.32,-0.205,
2229,-0.32,-0.215,
2230,-0.33,-0.21,
2231,-0.33,-0.215,
2232,-0.33,-0.22,
2233,-0.325,-0.23,
2234,-0.33,-0.21,
2235,-0.33,-0.19,
2236,-0.325,-0.19,
2237,-0.31,-0.185,
2238,-0.32,-0.195,
2239,-0.325,-0.19,
2240,-0.325,-0.18,
2241,-0.335,-0.195,
2242,-0.34,-0.205,
2243,-0.34,-0.2,
2244,-0.355,-0.205,
2245,-0.36,-0.195,
2246,-0.355,-0.18,
2247,-0.355,-0.175,
2248,-0.36,-0.16,
2249,-0.365,-0.165,
2250,-0.345,-0.16,
2251,-0.355,-0.165,
2252,-0.355,-0.16,
2253,-0.355,-0.155,
2254,-0.355,-0.155,
2255,-0.37,-0.15,
2256,-0.375,-0.14,
2257,-0.385,-0.12,
2258,-0.38,-0.115,
2259,-0.37,-0.095,
2260,-0.37,-0.085,
2261,-0.35,-0.08,
2262,-0.34,-0.075,
2263,-0.34,-0.07,
2264,-0.34,-0.06,
2265,-0.355,-0.06,
2266,-0.355,-0.06,
2267,-0.37,-0.055,
2268,-0.36,-0.04,
2269,-0.36,-0.035,
2270,-0.35,-0.02,
2271,-0.34,0.0,
2272,-0.325,0.025,
2273,-0.315,0.03,
2274,-0.32,0.035,
2275,-0.31,0.035,
2276,-0.305,0.045,
2277,-0.31,0.04,
2278,-0.315,0.045,
2279,-0.31,0.05,
2280,-0.31,0.055,
2281,-0.305,0.06,
2282,-0.305,0.07,
2283,-0.29,0.08,
2284,-0.285,0.095,
2285,-0.285,0.115,
2286,-0.28,0.105,
2287,-0.26,0.105,
2288,-0.27,0.1,
2289,-0.255,0.11,
2290,-0.245,0.1,
2291,-0.265,0.095,
2292,-0.27,0.095,
2293,-0.27,0.09,
2294,-0.275,0.085,
2295,-0.28,0.08,
2296,-0.285,0.075,
2297,-0.285,0.065,
2298,-0.275,0.045,
2299,-0.275,0.015,
2300,-0.28,0.01,
2301,-0.3,-0.02,
2302,-0.315,-0.04,
2303,-0.325,-0.06,
2304,-0.325,-0.085,
2305,-0.33,-0.09,
2306,-0.34,-0.1,
2307,-0.34,-0.11,
2308,-0.34,-0.105,
2309,-0.345,-0.12,
2310,-0.34,-0.13,
2311,-0.36,-0.14,
2312,-0.36,-0.145,
2313,-0.37,-0.16,
2314,-0.375,-0.165,
2315,-0.37,-0.165,
2316,-0.375,-0.19,
2317,-0.385,-0.195,
2318,-0.385,-0.19,
2319,-0.38,-0.18,
2320,-0.38,-0.18,
2321,-0.365,-0.17,
2322,-0.375,-0.185,
2323,-0.365,-0.185,
2324,-0.37,-0.175,
2325,-0.385,-0.185,
2326,-0.39,-0.195,
2327,-0.37,-0.195,
2328,-0.38,-0.2,
2329,-0.375,-0.2,
2330,-0.375,-0.19,
2331,-0.365,-0.175,
2332,-0.36,-0.17,
2333,-0.355,-0.17,
2334,-0.345,-0.175,
2335,-0.335,-0.185,
2336,-0.34,-0.18,
2337,-0.32,-0.175,
2338,-0.33,-0.175,
2339,-0.335,-0.18,
2340,-0.325,-0.18,
2341,-0.32,-0.175,
2342,-0.315,-0.18,
2343,-0.31,-0.18,
2344,-0.305,-0.175,
2345,-0.285,-0.17,
2346,-0.27,-0.175,
2347,-0.26,-0.18,
2348,-0.26,-0.185,
2349,-0.25,-0.19,
2350,-0.265,-0.2,
2351,-0.265,-0.215,
2352,-0.28,-0.22,
2353,-0.29,-0.225,
2354,-0.28,-0.22,
2355,-0.27,-0.21,
2356,-0.24,-0.21,
2357,-0.23,-0.2,
2358,-0.22,-0.21,
2359,-0.23,-0.23,
2360,-0.225,-0.22,
2361,-0.23,-0.23,
2362,-0.23,-0.245,
2363,-0.25,-0.24,
2364,-0.26,-0.245,
2365,-0.26,-0.24,
2366,-0.265,-0.23,
2367,-0.27,-0.23,
2368,-0.285,-0.225,
2369,-0.295,-0.24,
2370,-0.29,-0.225,
2371,-0.305,-0.24,
2372,-0.32,-0.26,
2373,-0.335,-0.26,
2374,-0.34,-0.265,
2375,-0.345,-0.27,
2376,-0.35,-0.275,
2377,-0.365,-0.27,
2378,-0.365,-0.265,
2379,-0.37,-0.255,
2380,-0.37,-0.235,
2381,-0.38,-0.25,
2382,-0.39,-0.24,
2383,-0.385,-0.255,
2384,-0.39,-0.265,
2385,-0.395,-0.265,
2386,-0.405,-0.275,
2387,-0.41,-0.28,
2388,-0.42,-0.295,
2389,-0.425,-0.27,
2390,-0.42,-0.265,
2391,-0.42,-0.265,
2392,-0.405,-0.25,
2393,-0.38,-0.25,
2394,-0.375,-0.24,
2395,-0.35,-0.24,
2396,-0.33,-0.225,
2397,-0.325,-0.215,
2398,-0.33,-0.225,
2399,-0.325,-0.225,
2400,-0.325,-0.22,
2401,-0.325,-0.205,
2402,-0.32,-0.2,
2403,-0.31,-0.2,
2404,-0.3,-0.165,
2405,-0.3,-0.165,
2406,-0.295,-0.17,
2407,-0.295,-0.175,
2408,-0.31,-0.195,
2409,-0.325,-0.205,
2410,-0.355,-0.215,
2411,-0.385,-0.225,
2412,-0.39,-0.24,
2413,-0.405,-0.24,
2414,-0.42,-0.255,
2415,-0.425,-0.245,
2416,-0.425,-0.255,
2417,-0.445,-0.255,
2418,-0.445,-0.26,
2419,-0.465,-0.27,
2420,-0.49,-0.27,
2421,-0.505,-0.29,
2422,-0.52,-0.3,
2423,-0.535,-0.3,
2424,-0.555,-0.315,
2425,-0.56,-0.325,
2426,-0.565,-0.325,
2427,-0.56,-0.325,
2428,-0.56,-0.33,
2429,-0.555,-0.32,
2430,-0.54,-0.32,
2431,-0.51,-0.31,
2432,-0.515,-0.32,
2433,-0.495,-0.315,
2434,-0.48,-0.315,
2435,-0.48,-0.315,
2436,-0.455,-0.315,
2437,-0.45,-0.295,
2438,-0.425,-0.28,
2439,-0.405,-0.255,
2440,-0.375,-0.23,
2441,-0.35,-0.21,
2442,-0.325,-0.19,
2443,-0.295,-0.175,
2444,-0.265,-0.165,
2445,-0.245,-0.155,
2446,-0.22,-0.14,
2447,-0.21,-0.13,
2448,-0.175,-0.11,
2449,-0.16,-0.085,
2450,-0.13,-0.065,
2451,-0.08,-0.045,
2452,-0.04,-0.015,
2453,0.015,0.01,
2454,0.06,0.025,
2455,0.1,0.04,
2456,0.125,0.06,
2457,0.165,0.095,
2458,0.225,0.14,
2459,0.3,0.195,
2460,0.425,0.265,
2461,0.57,0.36,
2462,0.76,0.485,
2463,0.97,0.61,
2464,1.2,0.745,
2465,1.405,0.89,
2466,1.56,0.945,
2467,1.675,0.905,N
2468,1.7,0.815,
2469,1.61,0.65,
2470,1.385,0.455,
2471,1.03,0.27,
2472,0.58,0.125,
2473,0.08,-0.015,
2474,-0.42,-0.105,
2475,-0.825,-0.225,
2476,-1.1,-0.33,
2477,-1.175,-0.435,
2478,-1.125,-0.52,
2479,-0.985,-0.58,
2480,-0.81,-0.585,
2481,-0.66,-0.57,
2482,-0.545,-0.52,
2483,-0.47,-0.445,
2484,-0.425,-0.37,
2485,-0.425,-0.3,
2486,-0.435,-0.26,
2487,-0.455,-0.235,
2488,-0.47,-0.22,
2489,-0.485,-0.215,
2490,-0.47,-0.225,
2491,-0.455,-0.235,
2492,-0.44,-0.235,
2493,-0.43,-0.235,
2494,-0.435,-0.24,
2495,-0.445,-0.24,
2496,-0.45,-0.24,
2497,-0.445,-0.24,
2498,-0.45,-0.23,
2499,-0.43,-0.23,
2500,-0.415,-0.225,
2501,-0.41,-0.22,
2502,-0.405,-0.225,
2503,-0.39,-0.225,
2504,-0.4,-0.22,
2505,-0.41,-0.23,
2506,-0.42,-0.24,
2507,-0.405,-0.255,
2508,-0.41,-0.25,
2509,-0.41,-0.245,
2510,-0.405,-0.245,
2511,-0.4,-0.235,
2512,-0.395,-0.23,
2513,-0.39,-0.22,
2514,-0.385,-0.23,
2515,-0.39,-0.225,
2516,-0.395,-0.215,
2517,-0.4,-0.235,
2518,-0.41,-0.24,
2519,-0.435,-0.235,
2520,-0.42,-0.235,
2521,-0.415,-0.225,
2522,-0.42,-0.23,
2523,-0.415,-0.215,
2524,-0.42,-0.195,
2525,-0.405,-0.19,
2526,-0.4,-0.19,
2527,-0.405,-0.195,
2528,-0.405,-0.185,
2529,-0.41,-0.19,
2530,-0.42,-0.195,
2531,-0.405,-0.195,
2532,-0.41,-0.18,
2533,-0.41,-0.18,
2534,-0.395,-0.16,
2535,-0.395,-0.145,
2536,-0.39,-0.12,
2537,-0.37,-0.11,
2538,-0.355,-0.105,
2539,-0.345,-0.1,
2540,-0.325,-0.08,
2541,-0.33,-0.085,
2542,-0.33,-0.08,
2543,-0.32,-0.08,
2544,-0.33,-0.06,
2545,-0.325,-0.04,
2546,-0.32,-0.04,
2547,-0.3,-0.02,
2548,-0.29,-0.015,
2549,-0.275,-0.005,
2550,-0.26,0.005,
2551,-0.26,0.015,
2552,-0.255,0.02,
2553,-0.26,0.005,
2554,-0.27,0.02,
2555,-0.265,0.02,
2556,-0.27,0.02,
2557,-0.27,0.03,
2558,-0.265,0.035,
2559,-0.26,0.035,
2560,-0.25,0.04,
2561,-0.26,0.045,
2562,-0.255,0.045,
2563,-0.255,0.025,
2564,-0.265,0.015,
2565,-0.28,-0.01,
2566,-0.295,-0.035,
2567,-0.305,-0.045,
2568,-0.31,-0.055,
2569,-0.315,-0.065,
2570,-0.33,-0.07,
2571,-0.33,-0.08,
2572,-0.345,-0.09,
2573,-0.34,-0.09,
2574,-0.34,-0.105,
2575,-0.34,-0.11,
2576,-0.34,-0.12,
2577,-0.335,-0.145,
2578,-0.35,-0.155,
2579,-0.36,-0.17,
2580,-0.385,-0.175,
2581,-0.395,-0.175,
2582,-0.395,-0.175,
2583,-0.38,-0.18,
2584,-0.36,-0.175,
2585,-0.35,-0.175,
2586,-0.35,-0.175,
2587,-0.325,-0.175,
2588,-0.33,-0.19,
2589,-0.33,-0.19,
2590,-0.37,-0.205,
2591,-0.37,-0.205,
2592,-0.395,-0.215,
2593,-0.38,-0.205,
2594,-0.375,-0.215,
2595,-0.375,-0.2,
2596,-0.385,-0.195,
2597,-0.355,-0.19,
2598,-0.34,-0.205,
2599,-0.32,-0.205,
2600,-0.315,-0.21,
2601,-0.32,-0.215,
2602,-0.3,-0.215,
2603,-0.31,-0.215,
2604,-0.3,-0.23,
2605,-0.285,-0.215,
2606,-0.275,-0.22,
2607,-0.275,-0.22,
2608,-0.275,-0.215,
2609,-0.285,-0.22,
2610,-0.295,-0.215,
2611,-0.285,-0.22,
2612,-0.285,-0.235,
2613,-0.3,-0.235,
2614,-0.275,-0.245,
2615,-0.29,-0.255,
2616,-0.285,-0.26,
2617,-0.285,-0.24,
2618,-0.29,-0.245,
2619,-0.27,-0.235,
2620,-0.255,-0.225,
2621,-0.27,-0.23,
2622,-0.27,-0.22,
2623,-0.265,-0.24,
2624,-0.26,-0.24,
2625,-0.265,-0.25,
2626,-0.28,-0.265,
2627,-0.295,-0.27,
2628,-0.295,-0.265,
2629,-0.295,-0.25,
2630,-0.3,-0.27,
2631,-0.29,-0.25,
2632,-0.28,-0.25,
2633,-0.265,-0.245,
2634,-0.255,-0.245,
2635,-0.27,-0.255,
2636,-0.26,-0.265,
2637,-0.26,-0.275,
2638,-0.275,-0.29,
2639,-0.28,-0.285,
2640,-0.275,-0.29,
2641,-0.27,-0.285,
2642,-0.265,-0.295,
2643,-0.27,-0.275,
2644,-0.265,-0.285,
2645,-0.265,-0.27,
2646,-0.255,-0.265,
2647,-0.255,-0.265,
2648,-0.255,-0.275,
2649,-0.255,-0.28,
2650,-0.26,-0.275,
2651,-0.25,-0.26,
2652,-0.25,-0.265,
2653,-0.235,-0.25,
2654,-0.22,-0.235,
2655,-0.195,-0.22,
2656,-0.185,-0.205,
2657,-0.18,-0.195,
2658,-0.17,-0.185,
2659,-0.18,-0.195,
2660,-0.155,-0.185,
2661,-0.135,-0.19,
2662,-0.13,-0.19,
2663,-0.115,-0.185,
2664,-0.12,-0.19,
2665,-0.125,-0.18,
2666,-0.13,-0.17,
2667,-0.135,-0.175,
2668,-0.15,-0.18,
2669,-0.155,-0.195,
2670,-0.165,-0.2,
2671,-0.165,-0.225,
2672,-0.17,-0.23,
2673,-0.185,-0.235,
2674,-0.19,-0.245,
2675,-0.22,-0.245,
2676,-0.225,-0.245,
2677,-0.25,-0.25,
2678,-0.275,-0.255,
2679,-0.295,-0.255,
2680,-0.295,-0.25,
2681,-0.29,-0.245,
2682,-0.295,-0.26,
2683,-0.275,-0.245,
2684,-0.28,-0.255,
2685,-0.315,-0.27,
2686,-0.32,-0.28,
2687,-0.335,-0.3,
2688,-0.35,-0.31,
2689,-0.355,-0.31,
2690,-0.335,-0.285,
2691,-0.33,-0.28,
2692,-0.31,-0.26,
2693,-0.295,-0.245,
2694,-0.29,-0.245,
2695,-0.29,-0.235,
2696,-0.28,-0.225,
2697,-0.27,-0.225,
2698,-0.28,-0.22,
2699,-0.265,-0.225,
2700,-0.255,-0.2,
2701,-0.26,-0.18,
2702,-0.255,-0.17,
2703,-0.245,-0.145,
2704,-0.235,-0.12,
2705,-0.22,-0.1,
2706,-0.195,-0.065,
2707,-0.18,-0.06,
2708,-0.155,-0.04,
2709,-0.135,-0.035,
2710,-0.12,-0.02,
2711,-0.09,-0.005,
2712,-0.06,0.005,
2713,-0.035,0.02,
2714,0.005,0.035,
2715,0.035,0.08,
2716,0.08,0.1,
2717,0.15,0.155,
2718,0.22,0.235,
2719,0.35,0.3,
2720,0.51,0.39,
2721,0.69,0.505,
2722,0.905,0.615,
2723,1.115,0.735,
2724,1.355,0.85,
2725,1.545,0.905,
2726,1.7,0.9,N
2727,1.755,0.8,
2728,1.695,0.62,
2729,1.52,0.43,
2730,1.195,0.225,
2731,0.755,0.055,
2732,0.215,-0.09,
2733,-0.37,-0.21,
2734,-0.895,-0.325,
2735,-1.27,-0.425,
2736,-1.42,-0.525,
2737,-1.38,-0.56,
2738,-1.195,-0.58,
2739,-0.945,-0.56,
2740,-0.72,-0.52,
2741,-0.545,-0.455,
2742,-0.455,-0.4,
2743,-0.415,-0.335,
2744,-0.41,-0.29,
2745,-0.45,-0.255,
2746,-0.475,-0.25,
2747,-0.495,-0.25,
2748,-0.505,-0.25,
2749,-0.505,-0.255,
2750,-0.495,-0.245,
2751,-0.48,-0.24,
2752,-0.475,-0.225,
2753,-0.47,-0.23,
2754,-0.465,-0.22,
2755,-0.46,-0.225,
2756,-0.445,-0.22,
2757,-0.455,-0.225,
2758,-0.445,-0.23,
2759,-0.455,-0.23,
2760,-0.45,-0.235,
2761,-0.445,-0.23,
2762,-0.45,-0.215,
2763,-0.435,-0.2,
2764,-0.44,-0.2,
2765,-0.43,-0.195,
2766,-0.42,-0.19,
2767,-0.415,-0.2,
2768,-0.415,-0.195,
2769,-0.425,-0.205,
2770,-0.415,-0.2,
2771,-0.425,-0.215,
2772,-0.43,-0.2,
2773,-0.42,-0.2,
2774,-0.415,-0.195,
2775,-0.405,-0.18,
2776,-0.395,-0.18,
2777,-0.38,-0.17,
2778,-0.38,-0.17,
2779,-0.37,-0.175,
2780,-0.37,-0.17,
2781,-0.37,-0.165,
2782,-0.36,-0.17,
2783,-0.365,-0.17,
2784,-0.355,-0.155,
2785,-0.34,-0.145,
2786,-0.33,-0.125,
2787,-0.315,-0.11,
2788,-0.3,-0.095,
2789,-0.295,-0.09,
2790,-0.28,-0.06,
2791,-0.27,-0.055,
2792,-0.255,-0.07,
2793,-0.255,-0.05,
2794,-0.245,-0.04,
2795,-0.245,-0.04,
2796,-0.225,-0.045,
2797,-0.21,-0.03,
2798,-0.2,-0.015,
2799,-0.2,0.015,
2800,-0.195,0.01,
2801,-0.18,0.035,
2802,-0.16,0.035,
2803,-0.15,0.04,
2804,-0.155,0.035,
2805,-0.16,0.04,
2806,-0.16,0.055,
2807,-0.145,0.05,
2808,-0.15,0.055,
2809,-0.165,0.08,
2810,-0.175,0.09,
2811,-0.185,0.1,
2812,-0.18,0.11,
2813,-0.19,0.105,
2814,-0.19,0.12,
2815,-0.205,0.12,
2816,-0.21,0.115,
2817,-0.22,0.095,
2818,-0.24,0.09,
2819,-0.245,0.075,
2820,-0.25,0.065,
2821,-0.25,0.06,
2822,-0.25,0.04,
2823,-0.265,0.035,
2824,-0.26,0.025,
2825,-0.28,0.01,
2826,-0.285,0.005,
2827,-0.295,-0.02,
2828,-0.32,-0.05,
2829,-0.32,-0.055,
2830,-0.335,-0.09,
2831,-0.345,-0.095,
2832,-0.35,-0.125,
2833,-0.36,-0.14,
2834,-0.37,-0.14,
2835,-0.375,-0.145,
2836,-0.38,-0.155,
2837,-0.38,-0.155,
2838,-0.385,-0.16,
2839,-0.395,-0.17,
2840,-0.4,-0.185,
2841,-0.41,-0.205,
2842,-0.41,-0.205,
2843,-0.425,-0.225,
2844,-0.43,-0.22,
2845,-0.435,-0.205,
2846,-0.43,-0.215,
2847,-0.43,-0.215,
2848,-0.43,-0.205,
2849,-0.425,-0.205,
2850,-0.41,-0.205,
2851,-0.385,-0.2,
2852,-0.385,-0.21,
2853,-0.38,-0.215,
2854,-0.39,-0.21,
2855,-0.395,-0.22,
2856,-0.405,-0.23,
2857,-0.425,-0.21,
2858,-0.43,-0.215,
2859,-0.425,-0.21,
2860,-0.42,-0.195,
2861,-0.41,-0.2,
2862,-0.405,-0.19,
2863,-0.415,-0.21,
2864,-0.41,-0.2,
2865,-0.425,-0.215,
2866,-0.445,-0.215,
2867,-0.45,-0.23,
2868,-0.475,-0.235,
2869,-0.49,-0.23,
2870,-0.5,-0.235,
2871,-0.475,-0.225,
2872,-0.485,-0.225,
2873,-0.475,-0.21,
2874,-0.46,-0.215,
2875,-0.47,-0.23,
2876,-0.47,-0.23,
2877,-0.47,-0.25,
2878,-0.465,-0.25,
2879,-0.475,-0.27,
2880,-0.45,-0.265,
2881,-0.45,-0.265,
2882,-0.445,-0.27,
2883,-0.45,-0.255,
2884,-0.45,-0.26,
2885,-0.43,-0.25,
2886,-0.43,-0.255,
2887,-0.415,-0.265,
2888,-0.42,-0.26,
2889,-0.4,-0.26,
2890,-0.395,-0.27,
2891,-0.405,-0.275,
2892,-0.4,-0.28,
2893,-0.39,-0.28,
2894,-0.4,-0.27,
2895,-0.38,-0.28,
2896,-0.375,-0.275,
2897,-0.375,-0.265,
2898,-0.365,-0.27,
2899,-0.355,-0.27,
2900,-0.36,-0.27,
2901,-0.365,-0.28,
2902,-0.365,-0.28,
2903,-0.38,-0.29,
2904,-0.39,-0.29,
2905,-0.39,-0.27,
2906,-0.4,-0.27,
2907,-0.375,-0.255,
2908,-0.355,-0.245,
2909,-0.37,-0.23,
2910,-0.33,-0.23,
2911,-0.33,-0.225,
2912,-0.315,-0.22,
2913,-0.33,-0.215,
2914,-0.325,-0.21,
2915,-0.33,-0.2,
2916,-0.32,-0.2,
2917,-0.325,-0.195,
2918,-0.31,-0.175,
2919,-0.29,-0.17,
2920,-0.28,-0.165,
2921,-0.26,-0.14,
2922,-0.255,-0.145,
2923,-0.255,-0.13,
2924,-0.255,-0.135,
2925,-0.265,-0.135,
2926,-0.27,-0.15,
2927,-0.28,-0.165,
2928,-0.29,-0.18,
2929,-0.3,-0.2,
2930,-0.3,-0.195,
2931,-0.305,-0.195,
2932,-0.305,-0.185,
2933,-0.305,-0.18,
2934,-0.31,-0.185,
2935,-0.34,-0.21,
2936,-0.355,-0.205,
2937,-0.345,-0.215,
2938,-0.365,-0.24,
2939,-0.37,-0.25,
2940,-0.385,-0.24,
2941,-0.405,-0.245,
2942,-0.41,-0.24,
2943,-0.43,-0.25,
2944,-0.445,-0.255,
2945,-0.45,-0.26,
2946,-0.44,-0.28,
2947,-0.45,-0.275,
2948,-0.445,-0.275,
2949,-0.43,-0.29,
2950,-0.43,-0.29,
2951,-0.43,-0.295,
2952,-0.425,-0.295,
2953,-0.425,-0.285,
2954,-0.4,-0.28,
2955,-0.385,-0.255,
2956,-0.355,-0.24,
2957,-0.335,-0.225,
2958,-0.31,-0.205,
2959,-0.29,-0.205,
2960,-0.265,-0.185,
2961,-0.26,-0.17,
2962,-0.245,-0.17,
2963,-0.23,-0.155,
2964,-0.21,-0.13,
2965,-0.19,-0.12,
2966,-0.17,-0.08,
2967,-0.125,-0.06,
2968,-0.09,-0.035,
2969,-0.065,-0.02,
2970,-0.02,0.01,
2971,0.025,0.015,
2972,0.06,0.035,
2973,0.08,0.05,
2974,0.105,0.06,
2975,0.145,0.1,
2976,0.21,0.14,
2977,0.28,0.21,
2978,0.4,0.29,
2979,0.545,0.39,
2980,0.73,0.51,
2981,0.935,0.63,
2982,1.155,0.76,
2983,1.375,0.855,
2984,1.57,0.91,
2985,1.71,0.875,N
2986,1.77,0.775,
2987,1.72,0.58,
2988,1.545,0.365,
2989,1.215,0.17,
2990,0.755,0.015,
2991,0.225,-0.1,
2992,-0.335,-0.195,
2993,-0.84,-0.295,
2994,-1.185,-0.385,
2995,-1.305,-0.485,
2996,-1.255,-0.55,
2997,-1.1,-0.59,
2998,-0.895,-0.59,
2999,-0.71,-0.55,
3000,-0.57,-0.47,
3001,-0.475,-0.405,
3002,-0.46,-0.33,
3003,-0.44,-0.27,
3004,-0.46,-0.235,
3005,-0.475,-0.21,
3006,-0.505,-0.2,
3007,-0.505,-0.21,
3008,-0.52,-0.205,
3009,-0.515,-0.215,
3010,-0.51,-0.22,
3011,-0.505,-0.225,
3012,-0.5,-0.22,
3013,-0.485,-0.215,
3014,-0.49,-0.205,
3015,-0.49,-0.195,
3016,-0.48,-0.2,
3017,-0.47,-0.185,
3018,-0.475,-0.165,
3019,-0.465,-0.18,
3020,-0.475,-0.18,
3021,-0.47,-0.18,
3022,-0.475,-0.19,
3023,-0.465,-0.195,
3024,-0.465,-0.195,
3025,-0.46,-0.175,
3026,-0.47,-0.185,
3027,-0.46,-0.17,
3028,-0.445,-0.155,
3029,-0.44,-0.16,
3030,-0.425,-0.16,
3031,-0.41,-0.15,
3032,-0.415,-0.145,
3033,-0.395,-0.14,
3034,-0.41,-0.145,
3035,-0.42,-0.14,
3036,-0.425,-0.145,
3037,-0.435,-0.14,
3038,-0.44,-0.135,
3039,-0.425,-0.14,
3040,-0.415,-0.11,
3041,-0.4,-0.1,
3042,-0.38,-0.09,
3043,-0.37,-0.095,
3044,-0.37,-0.085,
3045,-0.385,-0.09,
3046,-0.385,-0.075,
3047,-0.39,-0.07,
3048,-0.395,-0.075,
3049,-0.395,-0.075,
3050,-0.395,-0.065,
3051,-0.39,-0.055,
3052,-0.38,-0.025,
3053,-0.365,-0.015,
3054,-0.355,0.0,
3055,-0.35,0.0,
3056,-0.33,0.025,
3057,-0.32,0.025,
3058,-0.305,0.035,
3059,-0.29,0.04,
3060,-0.29,0.035,
3061,-0.275,0.05,
3062,-0.285,0.065,
3063,-0.27,0.085,
3064,-0.265,0.1,
3065,-0.26,0.1,
3066,-0.26,0.12,
3067,-0.265,0.11,
3068,-0.26,0.12,
3069,-0.255,0.11,
3070,-0.26,0.11,
3071,-0.235,0.12,
3072,-0.24,0.115,
3073,-0.24,0.12,
3074,-0.245,0.105,
3075,-0.23,0.125,
3076,-0.22,0.125,
3077,-0.21,0.13,
3078,-0.195,0.12,
3079,-0.195,0.11,
3080,-0.2,0.1,
3081,-0.215,0.085,
3082,-0.225,0.06,
3083,-0.24,0.035,
3084,-0.255,0.02,
3085,-0.29,0.01,
3086,-0.295,-0.015,
3087,-0.295,-0.03,
3088,-0.285,-0.045,
3089,-0.295,-0.045,
3090,-0.265,-0.06,
3091,-0.28,-0.085,
3092,-0.295,-0.095,
3093,-0.315,-0.125,
3094,-0.335,-0.125,
3095,-0.34,-0.145,
3096,-0.34,-0.16,
3097,-0.33,-0.155,
3098,-0.325,-0.17,
3099,-0.31,-0.165,
3100,-0.31,-0.15,
3101,-0.29,-0.155,
3102,-0.29,-0.16,
3103,-0.305,-0.17,
3104,-0.295,-0.17,
3105,-0.3,-0.17,
3106,-0.3,-0.18,
3107,-0.29,-0.18,
3108,-0.285,-0.195,
3109,-0.3,-0.18,
3110,-0.3,-0.185,
3111,-0.28,-0.18,
3112,-0.28,-0.17,
3113,-0.275,-0.175,
3114,-0.265,-0.165,
3115,-0.255,-0.165,
3116,-0.25,-0.17,
3117,-0.225,-0.185,
3118,-0.23,-0.175,
3119,-0.235,-0.195,
3120,-0.245,-0.205,
3121,-0.235,-0.195,
3122,-0.23,-0.185,
3123,-0.22,-0.175,
3124,-0.225,-0.185,
3125,-0.22,-0.17,
3126,-0.2,-0.16,
3127,-0.195,-0.175,
3128,-0.195,-0.175,
3129,-0.205,-0.205,
3130,-0.22,-0.21,
3131,-0.23,-0.215,
3132,-0.25,-0.215,
3133,-0.265,-0.22,
3134,-0.27,-0.22,
3135,-0.26,-0.205,
3136,-0.26,-0.205,
3137,-0.27,-0.2,
3138,-0.255,-0.195,
3139,-0.27,-0.195,
3140,-0.26,-0.21,
3141,-0.28,-0.215,
3142,-0.29,-0.22,
3143,-0.31,-0.225,
3144,-0.31,-0.23,
3145,-0.32,-0.23,
3146,-0.32,-0.23,
3147,-0.315,-0.225,
3148,-0.32,-0.215,
3149,-0.305,-0.2,
3150,-0.31,-0.205,
3151,-0.305,-0.215,
3152,-0.315,-0.21,
3153,-0.33,-0.23,
3154,-0.33,-0.22,
3155,-0.335,-0.235,
3156,-0.35,-0.235,
3157,-0.35,-0.235,
3158,-0.355,-0.22,
3159,-0.345,-0.205,
3160,-0.35,-0.215,
3161,-0.35,-0.205,
3162,-0.34,-0.2,
3163,-0.345,-0.215,
3164,-0.335,-0.21,
3165,-0.355,-0.215,
3166,-0.355,-0.215,
3167,-0.35,-0.21,
3168,-0.35,-0.205,
3169,-0.365,-0.2,
3170,-0.36,-0.185,
3171,-0.35,-0.18,
3172,-0.34,-0.15,
3173,-0.325,-0.125,
3174,-0.32,-0.12,
3175,-0.31,-0.12,
3176,-0.305,-0.115,
3177,-0.31,-0.115,
3178,-0.31,-0.13,
3179,-0.305,-0.13,
3180,-0.31,-0.12,
3181,-0.305,-0.12,
3182,-0.3,-0.1,
3183,-0.29,-0.1,
3184,-0.295,-0.095,
3185,-0.295,-0.11,
3186,-0.3,-0.11,
3187,-0.315,-0.13,
3188,-0.335,-0.155,
3189,-0.34,-0.165,
3190,-0.36,-0.19,
3191,-0.365,-0.19,
3192,-0.375,-0.2,
3193,-0.38,-0.21,
3194,-0.39,-0.21,
3195,-0.41,-0.215,
3196,-0.415,-0.225,
3197,-0.415,-0.215,
3198,-0.415,-0.215,
3199,-0.42,-0.21,
3200,-0.41,-0.23,
3201,-0.44,-0.225,
3202,-0.44,-0.245,
3203,-0.47,-0.265,
3204,-0.48,-0.28,
3205,-0.48,-0.285,
3206,-0.485,-0.275,
3207,-0.485,-0.275,
3208,-0.48,-0.28,
3209,-0.475,-0.26,
3210,-0.46,-0.245,
3211,-0.44,-0.25,
3212,-0.435,-0.245,
3213,-0.425,-0.25,
3214,-0.42,-0.25,
3215,-0.415,-0.23,
3216,-0.41,-0.22,
3217,-0.395,-0.205,
3218,-0.395,-0.185,
3219,-0.375,-0.165,
3220,-0.35,-0.135,
3221,-0.33,-0.115,
3222,-0.305,-0.095,
3223,-0.27,-0.08,
3224,-0.25,-0.055,
3225,-0.235,-0.04,
3226,-0.21,-0.025,
3227,-0.18,0.0,
3228,-0.145,0.015,
3229,-0.115,0.035,
3230,-0.07,0.065,
3231,-0.015,0.09,
3232,0.035,0.125,
3233,0.075,0.16,
3234,0.12,0.225,
3235,0.195,0.27,
3236,0.3,0.35,
3237,0.44,0.44,
3238,0.605,0.535,
3239,0.81,0.66,
3240,1.04,0.8,
3241,1.28,0.92,
3242,1.48,0.995,
3243,1.64,0.975,N
3244,1.7,0.85,
3245,1.665,0.655,
3246,1.485,0.43,
3247,1.16,0.19,
3248,0.705,0.01,
3249,0.155,-0.145,
3250,-0.415,-0.255,
3251,-0.915,-0.37,
3252,-1.25,-0.455,
3253,-1.35,-0.53,
3254,-1.27,-0.565,
3255,-1.05,-0.58,
3256,-0.815,-0.555,
3257,-0.585,-0.5,
3258,-0.39,-0.43,
3259,-0.295,-0.35,
3260,-0.235,-0.29,
3261,-0.245,-0.225,
3262,-0.28,-0.22,
3263,-0.31,-0.22,
3264,-0.355,-0.21,
3265,-0.37,-0.215,
3266,-0.38,-0.225,
3267,-0.355,-0.215,
3268,-0.345,-0.21,
3269,-0.34,-0.185,
3270,-0.33,-0.185,
3271,-0.34,-0.185,
3272,-0.34,-0.19,
3273,-0.355,-0.2,
3274,-0.37,-0.21,
3275,-0.38,-0.23,
3276,-0.4,-0.225,
3277,-0.41,-0.205,
3278,-0.395,-0.22,
3279,-0.405,-0.195,
3280,-0.405,-0.2,
3281,-0.41,-0.185,
3282,-0.42,-0.175,
3283,-0.43,-0.185,
3284,-0.445,-0.185,
3285,-0.455,-0.18,
3286,-0.47,-0.185,
3287,-0.485,-0.19,
3288,-0.49,-0.195,
3289,-0.485,-0.185,
3290,-0.475,-0.185,
3291,-0.48,-0.19,
3292,-0.48,-0.17,
3293,-0.48,-0.165,
3294,-0.47,-0.165,
3295,-0.475,-0.16,
3296,-0.475,-0.165,
3297,-0.475,-0.165,
3298,-0.495,-0.175,
3299,-0.5,-0.17,
3300,-0.505,-0.175,
3301,-0.505,-0.175,
3302,-0.51,-0.16,
3303,-0.5,-0.15,
3304,-0.48,-0.135,
3305,-0.46,-0.115,
3306,-0.445,-0.1,
3307,-0.435,-0.105,
3308,-0.425,-0.095,
3309,-0.425,-0.09,
3310,-0.435,-0.09,
3311,-0.445,-0.095,
3312,-0.45,-0.09,
3313,-0.445,-0.08,
3314,-0.455,-0.07,
3315,-0.445,-0.05,
3316,-0.435,-0.04,
3317,-0.425,-0.025,
3318,-0.42,-0.01,
3319,-0.405,0.0,
3320,-0.405,0.0,
3321,-0.395,0.015,
3322,-0.415,0.01,
3323,-0.415,0.015,
3324,-0.415,0.02,
3325,-0.425,0.035,
3326,-0.425,0.035,
3327,-0.415,0.045,
3328,-0.415,0.05,
3329,-0.4,0.065,
3330,-0.4,0.065,
3331,-0.395,0.07,
3332,-0.39,0.08,
3333,-0.395,0.055,
3334,-0.39,0.05,
3335,-0.39,0.04,
3336,-0.4,0.045,
3337,-0.385,0.04,
3338,-0.39,0.035,
3339,-0.385,0.035,
3340,-0.385,0.025,
3341,-0.385,0.005,
3342,-0.375,0.0,
3343,-0.385,-0.015,
3344,-0.39,-0.03,
3345,-0.375,-0.055,
3346,-0.385,-0.085,
3347,-0.395,-0.11,
3348,-0.385,-0.12,
3349,-0.4,-0.135,
3350,-0.4,-0.145,
3351,-0.38,-0.15,
3352,-0.38,-0.14,
3353,-0.385,-0.155,
3354,-0.365,-0.155,
3355,-0.365,-0.155,
3356,-0.37,-0.165,
3357,-0.36,-0.18,
3358,-0.365,-0.19,
3359,-0.365,-0.2,
3360,-0.37,-0.2,
3361,-0.38,-0.19,
3362,-0.385,-0.2,
3363,-0.395,-0.175,
3364,-0.385,-0.19,
3365,-0.385,-0.17,
3366,-0.365,-0.175,
3367,-0.355,-0.175,
3368,-0.365,-0.175,
3369,-0.375,-0.185,
3370,-0.36,-0.19,
3371,-0.36,-0.2,
3372,-0.375,-0.2,
3373,-0.37,-0.205,
3374,-0.365,-0.195,
3375,-0.365,-0.195,
3376,-0.35,-0.18,
3377,-0.35,-0.175,
3378,-0.355,-0.18,
3379,-0.345,-0.18,
3380,-0.34,-0.185,
3381,-0.34,-0.185,
3382,-0.335,-0.195,
3383,-0.345,-0.2,
3384,-0.345,-0.21,
3385,-0.36,-0.205,
3386,-0.365,-0.21,
3387,-0.36,-0.2,
3388,-0.37,-0.21,
3389,-0.37,-0.185,
3390,-0.37,-0.185,
3391,-0.36,-0.195,
3392,-0.355,-0.195,
3393,-0.37,-0.21,
3394,-0.37,-0.215,
3395,-0.385,-0.21,
3396,-0.395,-0.24,
3397,-0.385,-0.235,
3398,-0.405,-0.24,
3399,-0.4,-0.22,
3400,-0.39,-0.225,
3401,-0.39,-0.225,
3402,-0.38,-0.225,
3403,-0.38,-0.23,
3404,-0.385,-0.235,
3405,-0.385,-0.255,
3406,-0.395,-0.25,
3407,-0.405,-0.265,
3408,-0.41,-0.27,
3409,-0.425,-0.27,
3410,-0.435,-0.275,
3411,-0.435,-0.26,
3412,-0.42,-0.26,
3413,-0.41,-0.255,
3414,-0.395,-0.26,
3415,-0.39,-0.25,
3416,-0.38,-0.26,
3417,-0.4,-0.275,
3418,-0.41,-0.275,
3419,-0.4,-0.28,
3420,-0.415,-0.29,
3421,-0.4,-0.285,
3422,-0.42,-0.275,
3423,-0.4,-0.27,
3424,-0.39,-0.265,
3425,-0.37,-0.25,
3426,-0.36,-0.235,
3427,-0.36,-0.225,
3428,-0.35,-0.23,
3429,-0.335,-0.225,
3430,-0.335,-0.215,
3431,-0.325,-0.22,
3432,-0.335,-0.21,
3433,-0.315,-0.21,
3434,-0.315,-0.2,
3435,-0.295,-0.19,
3436,-0.275,-0.175,
3437,-0.275,-0.17,
3438,-0.25,-0.16,
3439,-0.245,-0.16,
3440,-0.245,-0.15,
3441,-0.245,-0.175,
3442,-0.275,-0.2,
3443,-0.295,-0.215,
3444,-0.31,-0.23,
3445,-0.32,-0.245,
3446,-0.33,-0.245,
3447,-0.33,-0.235,
3448,-0.325,-0.24,
3449,-0.345,-0.215,
3450,-0.345,-0.22,
3451,-0.355,-0.245,
3452,-0.37,-0.24,
3453,-0.385,-0.26,
3454,-0.395,-0.28,
3455,-0.41,-0.275,
3456,-0.415,-0.28,
3457,-0.435,-0.275,
3458,-0.44,-0.285,
3459,-0.45,-0.285,
3460,-0.48,-0.285,
3461,-0.485,-0.29,
3462,-0.495,-0.295,
3463,-0.495,-0.3,
3464,-0.5,-0.31,
3465,-0.505,-0.3,
3466,-0.495,-0.305,
3467,-0.495,-0.305,
3468,-0.485,-0.3,
3469,-0.49,-0.285,
3470,-0.495,-0.28,
3471,-0.475,-0.245,
3472,-0.46,-0.25,
3473,-0.44,-0.225,
3474,-0.435,-0.205,
3475,-0.425,-0.19,
3476,-0.4,-0.175,
3477,-0.4,-0.18,
3478,-0.38,-0.16,
3479,-0.365,-0.155,
3480,-0.35,-0.14,
3481,-0.325,-0.115,
3482,-0.295,-0.09,
3483,-0.26,-0.06,
3484,-0.23,-0.04,
3485,-0.175,-0.015,
3486,-0.135,0.0,
3487,-0.085,0.005,
3488,-0.045,0.005,
3489,-0.005,0.025,
3490,0.04,0.035,
3491,0.08,0.055,
3492,0.12,0.095,
3493,0.185,0.13,
3494,0.26,0.19,
3495,0.395,0.26,
3496,0.55,0.375,
3497,0.76,0.48,
3498,0.98,0.62,
3499,1.225,0.75,
3500,1.465,0.875,
3501,1.68,0.975,
3502,1.84,0.995,N
3503,1.92,0.94,
3504,1.91,0.82,
3505,1.765,0.655,
3506,1.46,0.47,
3507,1.04,0.3,
3508,0.535,0.17,
3509,-0.03,0.045,
3510,-0.565,-0.07,
3511,-0.985,-0.195,
3512,-1.235,-0.33,
3513,-1.305,-0.46,
3514,-1.22,-0.55,
3515,-1.045,-0.59,
3516,-0.87,-0.59,
3517,-0.685,-0.545,
3518,-0.555,-0.49,
3519,-0.48,-0.395,
3520,-0.43,-0.33,
3521,-0.425,-0.265,
3522,-0.435,-0.225,
3523,-0.45,-0.22,
3524,-0.465,-0.225,
3525,-0.475,-0.23,
3526,-0.48,-0.25,
3527,-0.485,-0.265,
3528,-0.49,-0.26,
3529,-0.49,-0.27,
3530,-0.495,-0.265,
3531,-0.505,-0.255,
3532,-0.51,-0.26,
3533,-0.49,-0.245,
3534,-0.49,-0.245,
3535,-0.48,-0.24,
3536,-0.48,-0.25,
3537,-0.475,-0.23,
3538,-0.48,-0.24,
3539,-0.48,-0.26,
3540,-0.495,-0.25,
3541,-0.495,-0.255,
3542,-0.49,-0.24,
3543,-0.495,-0.25,
3544,-0.485,-0.23,
3545,-0.475,-0.225,
3546,-0.475,-0.22,
3547,-0.465,-0.215,
3548,-0.46,-0.23,
3549,-0.46,-0.24,
3550,-0.465,-0.24,
3551,-0.465,-0.255,
3552,-0.475,-0.26,
3553,-0.48,-0.265,
3554,-0.485,-0.25,
3555,-0.475,-0.25,
3556,-0.475,-0.245,
3557,-0.47,-0.23,
3558,-0.445,-0.235,
3559,-0.45,-0.23,
3560,-0.425,-0.235,
3561,-0.43,-0.235,
3562,-0.44,-0.255,
3563,-0.43,-0.265,
3564,-0.42,-0.255,
3565,-0.42,-0.25,
3566,-0.42,-0.24,
3567,-0.41,-0.23,
3568,-0.395,-0.225,
3569,-0.38,-0.21,
3570,-0.365,-0.19,
3571,-0.35,-0.195,
3572,-0.345,-0.19,
3573,-0.335,-0.19,
3574,-0.34,-0.2,
3575,-0.35,-0.185,
3576,-0.335,-0.185,
3577,-0.325,-0.175,
3578,-0.32,-0.16,
3579,-0.32,-0.145,
3580,-0.31,-0.135,
3581,-0.305,-0.115,
3582,-0.3,-0.11,
3583,-0.285,-0.105,
3584,-0.28,-0.1,
3585,-0.27,-0.1,
3586,-0.275,-0.1,
3587,-0.28,-0.11,
3588,-0.27,-0.1,
3589,-0.26,-0.09,
3590,-0.26,-0.075,
3591,-0.25,-0.07,
3592,-0.24,-0.055,
3593,-0.225,-0.05,
3594,-0.215,-0.03,
3595,-0.215,-0.03,
3596,-0.205,-0.035,
3597,-0.2,-0.035,
3598,-0.2,-0.04,
3599,-0.21,-0.06,
3600,-0.215,-0.06,
3601,-0.23,-0.075,
3602,-0.25,-0.08,
3603,-0.25,-0.075,
3604,-0.255,-0.095,
3605,-0.26,-0.085,
3606,-0.27,-0.08,
3607,-0.27,-0.105,
3608,-0.27,-0.125,
3609,-0.29,-0.135,
3610,-0.31,-0.155,
3611,-0.32,-0.17,
3612,-0.335,-0.19,
3613,-0.35,-0.18,
3614,-0.36,-0.18,
3615,-0.36,-0.2,
3616,-0.355,-0.195,
3617,-0.355,-0.195,
3618,-0.35,-0.195,
3619,-0.35,-0.195,
3620,-0.355,-0.21,
3621,-0.355,-0.2,
3622,-0.36,-0.22,
3623,-0.37,-0.22,
3624,-0.385,-0.235,
3625,-0.4,-0.24,
3626,-0.405,-0.23,
3627,-0.395,-0.215,
3628,-0.39,-0.225,
3629,-0.39,-0.205,
3630,-0.38,-0.21,
3631,-0.38,-0.205,
3632,-0.38,-0.215,
3633,-0.38,-0.215,
3634,-0.385,-0.215,
3635,-0.4,-0.22,
3636,-0.41,-0.235,
3637,-0.41,-0.23,
3638,-0.405,-0.225,
3639,-0.41,-0.225,
3640,-0.405,-0.215,
3641,-0.4,-0.21,
3642,-0.39,-0.205,
3643,-0.375,-0.21,
3644,-0.38,-0.215,
3645,-0.385,-0.215,
3646,-0.385,-0.225,
3647,-0.39,-0.235,
3648,-0.395,-0.24,
3649,-0.395,-0.24,
3650,-0.41,-0.24,
3651,-0.4,-0.225,
3652,-0.415,-0.23,
3653,-0.39,-0.225,
3654,-0.385,-0.225,
3655,-0.375,-0.235,
3656,-0.37,-0.235,
3657,-0.365,-0.245,
3658,-0.375,-0.255,
3659,-0.39,-0.27,
3660,-0.385,-0.285,
3661,-0.395,-0.27,
3662,-0.4,-0.27,
3663,-0.4,-0.27,
3664,-0.395,-0.275,
3665,-0.385,-0.265,
3666,-0.38,-0.265,
3667,-0.385,-0.27,
3668,-0.38,-0.28,
3669,-0.39,-0.28,
3670,-0.39,-0.28,
3671,-0.4,-0.29,
3672,-0.415,-0.305,
3673,-0.415,-0.285,
3674,-0.41,-0.295,
3675,-0.415,-0.29,
3676,-0.405,-0.28,
3677,-0.405,-0.275,
3678,-0.395,-0.275,
3679,-0.405,-0.275,
3680,-0.405,-0.28,
3681,-0.405,-0.28,
3682,-0.415,-0.29,
3683,-0.415,-0.28,
3684,-0.42,-0.28,
3685,-0.41,-0.29,
3686,-0.405,-0.27,
3687,-0.395,-0.26,
3688,-0.38,-0.25,
3689,-0.365,-0.23,
3690,-0.34,-0.21,
3691,-0.325,-0.22,
3692,-0.32,-0.205,
3693,-0.3,-0.205,
3694,-0.295,-0.205,
3695,-0.29,-0.21,
3696,-0.295,-0.21,
3697,-0.27,-0.21,
3698,-0.26,-0.21,
3699,-0.235,-0.195,
3700,-0.215,-0.18,
3701,-0.2,-0.17,
3702,-0.19,-0.17,
3703,-0.18,-0.175,
3704,-0.19,-0.185,
3705,-0.185,-0.21,
3706,-0.2,-0.24,
3707,-0.21,-0.25,
3708,-0.22,-0.255,
3709,-0.23,-0.265,
3710,-0.24,-0.26,
3711,-0.225,-0.25,
3712,-0.235,-0.26,
3713,-0.24,-0.26,
3714,-0.25,-0.255,
3715,-0.26,-0.27,
3716,-0.265,-0.27,
3717,-0.28,-0.28,
3718,-0.28,-0.29,
3719,-0.305,-0.315,
3720,-0.31,-0.31,
3721,-0.325,-0.32,
3722,-0.345,-0.325,
3723,-0.34,-0.325,
3724,-0.34,-0.335,
3725,-0.34,-0.32,
3726,-0.34,-0.325,
3727,-0.34,-0.32,
3728,-0.34,-0.3,
3729,-0.35,-0.325,
3730,-0.355,-0.305,
3731,-0.35,-0.3,
3732,-0.35,-0.305,
3733,-0.345,-0.285,
3734,-0.34,-0.27,
3735,-0.325,-0.25,
3736,-0.325,-0.235,
3737,-0.305,-0.225,
3738,-0.295,-0.205,
3739,-0.285,-0.195,
3740,-0.28,-0.17,
3741,-0.27,-0.155,
3742,-0.255,-0.13,
3743,-0.24,-0.12,
3744,-0.235,-0.1,
3745,-0.21,-0.08,
3746,-0.175,-0.07,
3747,-0.145,-0.05,
3748,-0.1,-0.025,
3749,-0.05,0.005,
3750,-0.005,0.025,
3751,0.04,0.04,
3752,0.07,0.06,
3753,0.105,0.09,
3754,0.16,0.15,
3755,0.22,0.195,
3756,0.325,0.28,
3757,0.475,0.385,
3758,0.645,0.515,
3759,0.85,0.645,
3760,1.075,0.785,
3761,1.27,0.895,
3762,1.46,0.945,
3763,1.595,0.905,N
3764,1.655,0.805,
3765,1.605,0.635,
3766,1.43,0.43,
3767,1.12,0.23,
3768,0.725,0.055,
3769,0.265,-0.08,
3770,-0.24,-0.185,
3771,-0.705,-0.28,
3772,-1.045,-0.385,
3773,-1.215,-0.48,
3774,-1.23,-0.545,
3775,-1.13,-0.595,
3776,-0.96,-0.595,
3777,-0.81,-0.57,
3778,-0.67,-0.535,
3779,-0.58,-0.48,
3780,-0.53,-0.415,
3781,-0.52,-0.37,
3782,-0.535,-0.33,
3783,-0.55,-0.305,
3784,-0.575,-0.285,
3785,-0.585,-0.28,
3786,-0.58,-0.27,
3787,-0.58,-0.275,
3788,-0.57,-0.27,
3789,-0.58,-0.27,
3790,-0.575,-0.275,
3791,-0.59,-0.275,
3792,-0.59,-0.29,
3793,-0.59,-0.285,
3794,-0.595,-0.27,
3795,-0.59,-0.265,
3796,-0.575,-0.275,
3797,-0.57,-0.265,
3798,-0.545,-0.25,
3799,-0.55,-0.245,
3800,-0.525,-0.26,
3801,-0.525,-0.27,
3802,-0.515,-0.28,
3803,-0.525,-0.285,
3804,-0.535,-0.295,
3805,-0.52,-0.29,
3806,-0.52,-0.285,
3807,-0.51,-0.275,
3808,-0.505,-0.25,
3809,-0.49,-0.24,
3810,-0.47,-0.245,
3811,-0.455,-0.235,
3812,-0.44,-0.24,
3813,-0.43,-0.24,
3814,-0.445,-0.235,
3815,-0.435,-0.25,
3816,-0.435,-0.245,
3817,-0.435,-0.25,
3818,-0.44,-0.235,
3819,-0.435,-0.22,
3820,-0.42,-0.205,
3821,-0.41,-0.195,
3822,-0.405,-0.18,
3823,-0.405,-0.16,
3824,-0.4,-0.175,
3825,-0.39,-0.155,
3826,-0.39,-0.165,
3827,-0.395,-0.165,
3828,-0.395,-0.15,
3829,-0.405,-0.155,
3830,-0.405,-0.135,
3831,-0.405,-0.12,
3832,-0.385,-0.115,
3833,-0.375,-0.09,
3834,-0.36,-0.075,
3835,-0.355,-0.07,
3836,-0.345,-0.07,
3837,-0.335,-0.06,
3838,-0.34,-0.065,
3839,-0.335,-0.055,
3840,-0.355,-0.05,
3841,-0.35,-0.035,
3842,-0.345,-0.025,
3843,-0.335,0.0,
3844,-0.325,0.0,
3845,-0.3,0.02,
3846,-0.27,0.04,
3847,-0.25,0.04,
3848,-0.25,0.04,
3849,-0.235,0.035,
3850,-0.225,0.045,
3851,-0.23,0.035,
3852,-0.255,0.03,
3853,-0.255,0.015,
3854,-0.23,0.025,
3855,-0.235,0.035,
3856,-0.23,0.025,
3857,-0.225,0.02,
3858,-0.225,0.02,
3859,-0.235,0.005,
3860,-0.24,-0.015,
3861,-0.25,-0.03,
3862,-0.26,-0.045,
3863,-0.285,-0.065,
3864,-0.29,-0.08,
3865,-0.305,-0.095,
3866,-0.315,-0.1,
3867,-0.305,-0.115,
3868,-0.315,-0.12,
3869,-0.32,-0.125,
3870,-0.315,-0.135,
3871,-0.31,-0.125,
3872,-0.315,-0.15,
3873,-0.32,-0.165,
3874,-0.32,-0.16,
3875,-0.33,-0.185,
3876,-0.335,-0.2,
3877,-0.34,-0.21,
3878,-0.335,-0.2,
3879,-0.345,-0.19,
3880,-0.335,-0.18,
3881,-0.325,-0.19,
3882,-0.31,-0.19,
3883,-0.305,-0.18,
3884,-0.31,-0.185,
3885,-0.3,-0.2,
3886,-0.295,-0.205,
3887,-0.305,-0.21,
3888,-0.305,-0.22,
3889,-0.3,-0.21,
3890,-0.31,-0.215,
3891,-0.305,-0.21,
3892,-0.31,-0.215,
3893,-0.29,-0.205,
3894,-0.275,-0.19,
3895,-0.27,-0.195,
3896,-0.27,-0.195,
3897,-0.27,-0.2,
3898,-0.285,-0.215,
3899,-0.28,-0.215,
3900,-0.305,-0.23,
3901,-0.31,-0.23,
3902,-0.305,-0.23,
3903,-0.31,-0.225,
3904,-0.315,-0.215,
3905,-0.305,-0.21,
3906,-0.3,-0.205,
3907,-0.29,-0.21,
3908,-0.295,-0.215,
3909,-0.305,-0.22,
3910,-0.31,-0.225,
3911,-0.32,-0.235,
3912,-0.32,-0.245,
3913,-0.325,-0.24,
3914,-0.33,-0.245,
3915,-0.335,-0.24,
3916,-0.345,-0.235,
3917,-0.345,-0.235,
3918,-0.35,-0.22,
3919,-0.34,-0.22,
3920,-0.35,-0.235,
3921,-0.35,-0.225,
3922,-0.35,-0.245,
3923,-0.37,-0.235,
3924,-0.39,-0.25,
3925,-0.39,-0.255,
3926,-0.405,-0.255,
3927,-0.405,-0.245,
3928,-0.405,-0.245,
3929,-0.39,-0.24,
3930,-0.395,-0.235,
3931,-0.38,-0.235,
3932,-0.395,-0.245,
3933,-0.4,-0.23,
3934,-0.415,-0.24,
3935,-0.415,-0.255,
3936,-0.425,-0.255,
3937,-0.43,-0.26,
3938,-0.43,-0.255,
3939,-0.435,-0.255,
3940,-0.45,-0.25,
3941,-0.42,-0.245,
3942,-0.42,-0.24,
3943,-0.415,-0.235,
3944,-0.425,-0.24,
3945,-0.42,-0.245,
3946,-0.41,-0.235,
3947,-0.42,-0.245,
3948,-0.425,-0.255,
3949,-0.42,-0.25,
3950,-0.41,-0.235,
3951,-0.4,-0.22,
3952,-0.38,-0.21,
3953,-0.365,-0.195,
3954,-0.35,-0.185,
3955,-0.31,-0.16,
3956,-0.3,-0.155,
3957,-0.29,-0.155,
3958,-0.285,-0.15,
3959,-0.285,-0.155,
3960,-0.275,-0.155,
3961,-0.275,-0.16,
3962,-0.275,-0.135,
3963,-0.275,-0.125,
3964,-0.27,-0.125,
3965,-0.28,-0.125,
3966,-0.29,-0.125,
3967,-0.295,-0.145,
3968,-0.315,-0.165,
3969,-0.325,-0.175,
3970,-0.34,-0.2,
3971,-0.345,-0.215,
3972,-0.355,-0.235,
3973,-0.35,-0.23,
3974,-0.36,-0.225,
3975,-0.38,-0.22,
3976,-0.395,-0.245,
3977,-0.4,-0.225,
3978,-0.38,-0.235,
3979,-0.36,-0.235,
3980,-0.355,-0.245,
3981,-0.36,-0.245,
3982,-0.355,-0.255,
3983,-0.375,-0.27,
3984,-0.39,-0.295,
3985,-0.41,-0.285,
3986,-0.41,-0.285,
3987,-0.4,-0.3,
3988,-0.385,-0.29,
3989,-0.355,-0.29,
3990,-0.335,-0.275,
3991,-0.325,-0.275,
3992,-0.32,-0.28,
3993,-0.31,-0.27,
3994,-0.295,-0.265,
3995,-0.3,-0.26,
3996,-0.285,-0.265,
3997,-0.27,-0.245,
3998,-0.265,-0.22,
3999,-0.245,-0.2,
4000,-0.225,-0.19,
4001,-0.215,-0.16,
4002,-0.195,-0.14,
4003,-0.165,-0.11,
4004,-0.135,-0.095,
4005,-0.115,-0.085,
4006,-0.095,-0.06,
4007,-0.08,-0.05,
4008,-0.055,-0.035,
4009,-0.02,-0.02,
4010,0.015,-0.005,
4011,0.06,0.005,
4012,0.09,0.025,
4013,0.13,0.045,
4014,0.17,0.07,
4015,0.205,0.1,
4016,0.23,0.12,
4017,0.295,0.17,
4018,0.375,0.24,
4019,0.49,0.31,
4020,0.635,0.41,
4021,0.8,0.515,
4022,0.99,0.64,
4023,1.2,0.755,
4024,1.415,0.855,
4025,1.61,0.905,
4026,1.775,0.86,N
4027,1.84,0.74,
4028,1.78,0.55,
4029,1.61,0.345,
4030,1.31,0.145,
4031,0.88,-0.01,
4032,0.395,-0.13,
4033,-0.11,-0.23,
4034,-0.595,-0.325,
4035,-0.955,-0.42,
4036,-1.13,-0.5,
4037,-1.12,-0.555,
4038,-0.98,-0.58,
4039,-0.8,-0.58,
4040,-0.6,-0.55,
4041,-0.45,-0.495,
4042,-0.33,-0.44,
4043,-0.285,-0.38,
4044,-0.28,-0.35,
4045,-0.295,-0.295,
4046,-0.335,-0.275,
4047,-0.355,-0.275,
4048,-0.365,-0.265,
4049,-0.365,-0.27,
4050,-0.355,-0.26,
4051,-0.345,-0.255,
4052,-0.345,-0.255,
4053,-0.345,-0.25,
4054,-0.345,-0.255,
4055,-0.35,-0.26,
4056,-0.37,-0.27,
4057,-0.38,-0.285,
4058,-0.385,-0.265,
4059,-0.385,-0.26,
4060,-0.39,-0.245,
4061,-0.385,-0.24,
4062,-0.375,-0.23,
4063,-0.36,-0.22,
4064,-0.365,-0.235,
4065,-0.365,-0.23,
4066,-0.375,-0.23,
4067,-0.385,-0.215,
4068,-0.385,-0.23,
4069,-0.39,-0.235,
4070,-0.39,-0.235,
4071,-0.38,-0.22,
4072,-0.385,-0.21,
4073,-0.37,-0.19,
4074,-0.365,-0.195,
4075,-0.355,-0.19,
4076,-0.345,-0.18,
4077,-0.335,-0.18,
4078,-0.345,-0.18,
4079,-0.355,-0.19,
4080,-0.35,-0.19,
4081,-0.365,-0.195,
4082,-0.365,-0.18,
4083,-0.365,-0.175,
4084,-0.355,-0.165,
4085,-0.35,-0.15,
4086,-0.355,-0.14,
4087,-0.34,-0.14,
4088,-0.35,-0.135,
4089,-0.35,-0.125,
4090,-0.36,-0.12,
4091,-0.365,-0.135,
4092,-0.37,-0.13,
4093,-0.37,-0.115,
4094,-0.36,-0.105,
4095,-0.355,-0.095,
4096,-0.36,-0.075,
4097,-0.34,-0.055,
4098,-0.34,-0.045,
4099,-0.325,-0.025,
4100,-0.33,-0.025,
4101,-0.32,-0.015,
4102,-0.3,-0.015,
4103,-0.3,-0.015,
4104,-0.32,-0.02,
4105,-0.31,-0.02,
4106,-0.3,0.0,
4107,-0.3,0.01,
4108,-0.295,0.025,
4109,-0.29,0.035,
4110,-0.275,0.045,
4111,-0.255,0.055,
4112,-0.25,0.055,
4113,-0.245,0.06,
4114,-0.23,0.05,
4115,-0.23,0.045,
4116,-0.225,0.055,
4117,-0.21,0.025,
4118,-0.215,0.05,
4119,-0.215,0.06,
4120,-0.21,0.04,
4121,-0.195,0.045,
4122,-0.19,0.045,
4123,-0.19,0.045,
4124,-0.2,0.02,
4125,-0.22,0.005,
4126,-0.23,-0.02,
4127,-0.235,-0.035,
4128,-0.265,-0.06,
4129,-0.285,-0.08,
4130,-0.32,-0.08,
4131,-0.305,-0.095,
4132,-0.3,-0.105,
4133,-0.295,-0.115,
4134,-0.285,-0.11,
4135,-0.3,-0.12,
4136,-0.295,-0.14,
4137,-0.315,-0.155,
4138,-0.33,-0.165,
4139,-0.345,-0.17,
4140,-0.35,-0.19,
4141,-0.365,-0.2,
4142,-0.37,-0.195,
4143,-0.35,-0.195,
4144,-0.345,-0.185,
4145,-0.34,-0.18,
4146,-0.335,-0.185,
4147,-0.33,-0.175,
4148,-0.33,-0.185,
4149,-0.315,-0.2,
4150,-0.315,-0.21,
4151,-0.32,-0.2,
4152,-0.335,-0.205,
4153,-0.32,-0.215,
4154,-0.33,-0.21,
4155,-0.32,-0.215,
4156,-0.31,-0.21,
4157,-0.3,-0.195,
4158,-0.29,-0.18,
4159,-0.26,-0.18,
4160,-0.265,-0.2,
4161,-0.25,-0.2,
4162,-0.235,-0.205,
4163,-0.245,-0.2,
4164,-0.245,-0.2,
4165,-0.245,-0.215,
4166,-0.23,-0.22,
4167,-0.23,-0.21,
4168,-0.225,-0.2,
4169,-0.22,-0.2,
4170,-0.215,-0.205,
4171,-0.205,-0.2,
4172,-0.195,-0.21,
4173,-0.185,-0.205,
4174,-0.205,-0.22,
4175,-0.195,-0.235,
4176,-0.205,-0.23,
4177,-0.21,-0.25,
4178,-0.21,-0.24,
4179,-0.22,-0.23,
4180,-0.21,-0.24,
4181,-0.205,-0.235,
4182,-0.205,-0.24,
4183,-0.2,-0.24,
4184,-0.2,-0.245,
4185,-0.215,-0.25,
4186,-0.22,-0.26,
4187,-0.23,-0.275,
4188,-0.22,-0.28,
4189,-0.24,-0.285,
4190,-0.255,-0.29,
4191,-0.27,-0.28,
4192,-0.28,-0.275,
4193,-0.29,-0.275,
4194,-0.29,-0.275,
4195,-0.295,-0.275,
4196,-0.315,-0.275,
4197,-0.33,-0.275,
4198,-0.33,-0.28,
4199,-0.35,-0.29,
4200,-0.36,-0.305,
4201,-0.375,-0.3,
4202,-0.37,-0.295,
4203,-0.38,-0.3,
4204,-0.39,-0.29,
4205,-0.385,-0.275,
4206,-0.38,-0.275,
4207,-0.385,-0.28,
4208,-0.395,-0.295,
4209,-0.39,-0.285,
4210,-0.39,-0.295,
4211,-0.41,-0.31,
4212,-0.405,-0.305,
4213,-0.42,-0.32,
4214,-0.425,-0.32,
4215,-0.425,-0.32,
4216,-0.415,-0.32,
4217,-0.415,-0.315,
4218,-0.4,-0.31,
4219,-0.4,-0.305,
4220,-0.39,-0.325,
4221,-0.385,-0.31,
4222,-0.385,-0.325,
4223,-0.39,-0.33,
4224,-0.39,-0.335,
4225,-0.385,-0.34,
4226,-0.38,-0.33,
4227,-0.365,-0.325,
4228,-0.34,-0.305,
4229,-0.32,-0.29,
4230,-0.305,-0.275,
4231,-0.285,-0.27,
4232,-0.275,-0.26,
4233,-0.26,-0.24,
4234,-0.255,-0.245,
4235,-0.26,-0.25,
4236,-0.25,-0.25,
4237,-0.25,-0.23,
4238,-0.255,-0.22,
4239,-0.26,-0.2,
4240,-0.265,-0.2,
4241,-0.275,-0.19,
4242,-0.285,-0.175,
4243,-0.295,-0.195,
4244,-0.305,-0.185,
4245,-0.32,-0.21,
4246,-0.335,-0.225,
4247,-0.375,-0.245,
4248,-0.39,-0.255,
4249,-0.41,-0.27,
4250,-0.43,-0.275,
4251,-0.455,-0.285,
4252,-0.465,-0.285,
4253,-0.47,-0.29,
4254,-0.49,-0.285,
4255,-0.475,-0.28,
4256,-0.47,-0.28,
4257,-0.465,-0.305,
4258,-0.47,-0.295,
4259,-0.49,-0.315,
4260,-0.5,-0.335,
4261,-0.515,-0.35,
4262,-0.53,-0.35,
4263,-0.525,-0.35,
4264,-0.51,-0.34,
4265,-0.475,-0.335,
4266,-0.46,-0.32,
4267,-0.435,-0.325,
4268,-0.415,-0.315,
4269,-0.4,-0.305,
4270,-0.375,-0.3,
4271,-0.38,-0.29,
4272,-0.365,-0.29,
4273,-0.345,-0.285,
4274,-0.325,-0.255,
4275,-0.3,-0.245,
4276,-0.275,-0.22,
4277,-0.26,-0.185,
4278,-0.225,-0.165,
4279,-0.21,-0.14,
4280,-0.175,-0.115,
4281,-0.155,-0.09,
4282,-0.125,-0.08,
4283,-0.1,-0.06,
4284,-0.065,-0.055,
4285,-0.035,-0.04,
4286,0.005,-0.015,
4287,0.045,0.01,
4288,0.085,0.03,
4289,0.125,0.08,
4290,0.175,0.12,
4291,0.235,0.17,
4292,0.325,0.25,
4293,0.445,0.33,
4294,0.595,0.415,
4295,0.755,0.525,
4296,0.95,0.64,
4297,1.16,0.755,
4298,1.38,0.83,
4299,1.58,0.84,
4300,1.74,0.745,N
4301,1.805,0.57,
4302,1.735,0.365,
4303,1.51,0.16,
4304,1.145,-0.01,
4305,0.64,-0.145,
4306,0.055,-0.255,
4307,-0.52,-0.365,
4308,-0.965,-0.47,
4309,-1.2,-0.555,
4310,-1.235,-0.585,
4311,-1.11,-0.62,
4312,-0.91,-0.605,
4313,-0.69,-0.56,
4314,-0.515,-0.475,
4315,-0.4,-0.4,
4316,-0.35,-0.335,
4317,-0.33,-0.285,
4318,-0.36,-0.26,
4319,-0.395,-0.255,
4320,-0.415,-0.26,
4321,-0.445,-0.275,
4322,-0.435,-0.27,
4323,-0.435,-0.275,
4324,-0.425,-0.25,
4325,-0.405,-0.265,
4326,-0.39,-0.25,
4327,-0.39,-0.245,
4328,-0.385,-0.25,
4329,-0.375,-0.24,
4330,-0.365,-0.25,
4331,-0.39,-0.26,
4332,-0.39,-0.275,
4333,-0.39,-0.27,
4334,-0.395,-0.255,
4335,-0.405,-0.265,
4336,-0.4,-0.24,
4337,-0.395,-0.245,
4338,-0.385,-0.235,
4339,-0.375,-0.225,
4340,-0.375,-0.235,
4341,-0.38,-0.24,
4342,-0.385,-0.245,
4343,-0.39,-0.24,
4344,-0.405,-0.245,
4345,-0.405,-0.25,
4346,-0.405,-0.245,
4347,-0.405,-0.24,
4348,-0.4,-0.23,
4349,-0.385,-0.225,
4350,-0.385,-0.22,
4351,-0.385,-0.22,
4352,-0.38,-0.2,
4353,-0.39,-0.205,
4354,-0.4,-0.205,
4355,-0.41,-0.195,
4356,-0.405,-0.2,
4357,-0.41,-0.195,
4358,-0.39,-0.195,
4359,-0.385,-0.18,
4360,-0.375,-0.17,
4361,-0.37,-0.16,
4362,-0.355,-0.15,
4363,-0.35,-0.13,
4364,-0.34,-0.13,
4365,-0.325,-0.125,
4366,-0.34,-0.115,
4367,-0.32,-0.115,
4368,-0.31,-0.105,
4369,-0.315,-0.1,
4370,-0.31,-0.09,
4371,-0.31,-0.075,
4372,-0.295,-0.07,
4373,-0.29,-0.05,
4374,-0.28,-0.035,
4375,-0.265,-0.025,
4376,-0.27,-0.025,
4377,-0.265,-0.01,
4378,-0.265,-0.025,
4379,-0.255,-0.015,
4380,-0.255,-0.02,
4381,-0.255,-0.01,
4382,-0.26,-0.01,
4383,-0.26,0.0,
4384,-0.25,0.01,
4385,-0.235,0.03,
4386,-0.23,0.03,
4387,-0.235,0.02,
4388,-0.23,0.02,
4389,-0.23,0.005,
4390,-0.24,-0.015,
4391,-0.255,-0.025,
4392,-0.265,-0.045,
4393,-0.285,-0.055,
4394,-0.3,-0.08,
4395,-0.3,-0.085,
4396,-0.31,-0.085,
4397,-0.32,-0.095,
4398,-0.335,-0.105,
4399,-0.33,-0.115,
4400,-0.325,-0.12,
4401,-0.325,-0.14,
4402,-0.33,-0.155,
4403,-0.33,-0.165,
4404,-0.335,-0.18,
4405,-0.345,-0.195,
4406,-0.355,-0.2,
4407,-0.355,-0.215,
4408,-0.35,-0.205,
4409,-0.345,-0.19,
4410,-0.345,-0.19,
4411,-0.345,-0.18,
4412,-0.355,-0.205,
4413,-0.35,-0.21,
4414,-0.36,-0.205,
4415,-0.365,-0.22,
4416,-0.375,-0.235,
4417,-0.37,-0.235,
4418,-0.37,-0.23,
4419,-0.375,-0.22,
4420,-0.36,-0.215,
4421,-0.36,-0.215,
4422,-0.355,-0.21,
4423,-0.345,-0.205,
4424,-0.345,-0.21,
4425,-0.345,-0.205,
4426,-0.36,-0.205,
4427,-0.35,-0.22,
4428,-0.355,-0.225,
4429,-0.355,-0.225,
4430,-0.34,-0.23,
4431,-0.35,-0.22,
4432,-0.34,-0.215,
4433,-0.32,-0.2,
4434,-0.32,-0.205,
4435,-0.3,-0.185,
4436,-0.3,-0.195,
4437,-0.305,-0.195,
4438,-0.31,-0.21,
4439,-0.325,-0.22,
4440,-0.325,-0.225,
4441,-0.325,-0.235,
4442,-0.33,-0.225,
4443,-0.32,-0.235,
4444,-0.315,-0.24,
4445,-0.3,-0.24,
4446,-0.295,-0.225,
4447,-0.295,-0.23,
4448,-0.295,-0.245,
4449,-0.285,-0.245,
4450,-0.285,-0.265,
4451,-0.295,-0.275,
4452,-0.29,-0.29,
4453,-0.305,-0.29,
4454,-0.305,-0.29,
4455,-0.31,-0.29,
4456,-0.305,-0.285,
4457,-0.305,-0.28,
4458,-0.305,-0.285,
4459,-0.29,-0.27,
4460,-0.295,-0.29,
4461,-0.3,-0.29,
4462,-0.31,-0.29,
4463,-0.31,-0.305,
4464,-0.32,-0.31,
4465,-0.33,-0.315,
4466,-0.325,-0.315,
4467,-0.32,-0.31,
4468,-0.315,-0.305,
4469,-0.295,-0.295,
4470,-0.295,-0.285,
4471,-0.265,-0.29,
4472,-0.27,-0.295,
4473,-0.265,-0.29,
4474,-0.265,-0.3,
4475,-0.27,-0.31,
4476,-0.275,-0.34,
4477,-0.27,-0.32,
4478,-0.27,-0.325,
4479,-0.28,-0.33,
4480,-0.27,-0.32,
4481,-0.27,-0.315,
4482,-0.25,-0.31,
4483,-0.245,-0.31,
4484,-0.23,-0.31,
4485,-0.24,-0.315,
4486,-0.245,-0.315,
4487,-0.255,-0.325,
4488,-0.26,-0.33,
4489,-0.27,-0.34,
4490,-0.27,-0.335,
4491,-0.285,-0.325,
4492,-0.265,-0.32,
4493,-0.25,-0.325,
4494,-0.24,-0.315,
4495,-0.225,-0.295,
4496,-0.23,-0.3,
4497,-0.22,-0.3,
4498,-0.22,-0.295,
4499,-0.215,-0.29,
4500,-0.21,-0.295,
4501,-0.21,-0.3,
4502,-0.22,-0.275,
4503,-0.215,-0.28,
4504,-0.205,-0.25,
4505,-0.175,-0.245,
4506,-0.16,-0.23,
4507,-0.145,-0.215,
4508,-0.14,-0.22,
4509,-0.145,-0.2,
4510,-0.17,-0.215,
4511,-0.18,-0.225,
4512,-0.185,-0.235,
4513,-0.195,-0.24,
4514,-0.2,-0.24,
4515,-0.215,-0.245,
4516,-0.225,-0.245,
4517,-0.2,-0.255,
4518,-0.215,-0.25,
4519,-0.215,-0.265,
4520,-0.22,-0.27,
4521,-0.235,-0.28,
4522,-0.25,-0.29,
4523,-0.265,-0.295,
4524,-0.28,-0.305,
4525,-0.275,-0.305,
4526,-0.285,-0.31,
4527,-0.295,-0.305,
4528,-0.305,-0.31,
4529,-0.315,-0.31,
4530,-0.325,-0.305,
4531,-0.325,-0.31,
4532,-0.32,-0.315,
4533,-0.32,-0.31,
4534,-0.31,-0.32,
4535,-0.315,-0.315,
4536,-0.315,-0.325,
4537,-0.305,-0.325,
4538,-0.305,-0.31,
4539,-0.31,-0.305,
4540,-0.29,-0.28,
4541,-0.28,-0.255,
4542,-0.27,-0.24,
4543,-0.26,-0.22,
4544,-0.255,-0.22,
4545,-0.24,-0.205,
4546,-0.225,-0.19,
4547,-0.225,-0.18,
4548,-0.215,-0.17,
4549,-0.21,-0.155,
4550,-0.185,-0.135,
4551,-0.18,-0.11,
4552,-0.14,-0.08,
4553,-0.115,-0.06,
4554,-0.085,-0.04,
4555,-0.04,-0.025,
4556,-0.005,-0.02,
4557,0.04,0.005,
4558,0.07,0.01,
4559,0.1,0.045,
4560,0.135,0.075,
4561,0.195,0.115,
4562,0.29,0.18,
4563,0.415,0.27,
4564,0.58,0.37,
4565,0.77,0.475,
4566,0.985,0.59,
4567,1.23,0.7,
4568,1.46,0.77,
4569,1.66,0.79,
4570,1.8,0.72,N
4571,1.835,0.59,
4572,1.745,0.425,
4573,1.49,0.25,
4574,1.105,0.1,
4575,0.58,-0.035,
4576,-0.005,-0.15,
4577,-0.575,-0.28,
4578,-1.005,-0.375,
4579,-1.25,-0.47,
4580,-1.28,-0.535,
4581,-1.165,-0.565,
4582,-0.97,-0.6,
4583,-0.765,-0.57,
4584,-0.61,-0.54,
4585,-0.485,-0.485,
4586,-0.425,-0.42,
4587,-0.4,-0.36,
4588,-0.395,-0.315,
4589,-0.41,-0.28,
4590,-0.44,-0.265,
4591,-0.435,-0.265,
4592,-0.445,-0.27,
4593,-0.435,-0.28,
4594,-0.445,-0.285,
4595,-0.42,-0.28,
4596,-0.425,-0.285,
4597,-0.425,-0.29,
4598,-0.42,-0.285,
4599,-0.43,-0.285,
4600,-0.42,-0.265,
4601,-0.415,-0.26,
4602,-0.405,-0.26,
4603,-0.39,-0.25,
4604,-0.39,-0.255,
4605,-0.385,-0.255,
4606,-0.39,-0.255,
4607,-0.385,-0.265,
4608,-0.41,-0.27,
4609,-0.42,-0.28,
4610,-0.405,-0.27,
4611,-0.415,-0.26,
4612,-0.41,-0.255,
4613,-0.395,-0.25,
4614,-0.39,-0.245,
4615,-0.38,-0.245,
4616,-0.38,-0.25,
4617,-0.37,-0.245,
4618,-0.38,-0.245,
4619,-0.37,-0.255,
4620,-0.37,-0.265,
4621,-0.375,-0.27,
4622,-0.365,-0.25,
4623,-0.35,-0.245,
4624,-0.345,-0.235,
4625,-0.34,-0.225,
4626,-0.33,-0.22,
4627,-0.315,-0.21,
4628,-0.31,-0.21,
4629,-0.3,-0.21,
4630,-0.295,-0.205,
4631,-0.285,-0.205,
4632,-0.295,-0.205,
4633,-0.28,-0.19,
4634,-0.28,-0.18,
4635,-0.265,-0.165,
4636,-0.255,-0.145,
4637,-0.245,-0.14,
4638,-0.235,-0.12,
4639,-0.22,-0.11,
4640,-0.205,-0.105,
4641,-0.2,-0.11,
4642,-0.19,-0.105,
4643,-0.19,-0.105,
4644,-0.185,-0.1,
4645,-0.185,-0.105,
4646,-0.19,-0.09,
4647,-0.185,-0.1,
4648,-0.175,-0.065,
4649,-0.165,-0.05,
4650,-0.16,-0.05,
4651,-0.16,-0.03,
4652,-0.16,-0.03,
4653,-0.165,-0.02,
4654,-0.175,-0.015,
4655,-0.19,-0.02,
4656,-0.19,-0.035,
4657,-0.215,-0.03,
4658,-0.225,-0.035,
4659,-0.235,-0.035,
4660,-0.235,-0.03,
4661,-0.22,-0.025,
4662,-0.23,-0.025,
4663,-0.215,-0.035,
4664,-0.215,-0.055,
4665,-0.21,-0.065,
4666,-0.215,-0.085,
4667,-0.23,-0.105,
4668,-0.235,-0.135,
4669,-0.255,-0.135,
4670,-0.275,-0.155,
4671,-0.28,-0.165,
4672,-0.285,-0.17,
4673,-0.29,-0.175,
4674,-0.29,-0.18,
4675,-0.295,-0.195,
4676,-0.315,-0.205,
4677,-0.325,-0.21,
4678,-0.315,-0.23,
4679,-0.32,-0.23,
4680,-0.335,-0.255,
4681,-0.35,-0.26,
4682,-0.345,-0.255,
4683,-0.355,-0.27,
4684,-0.37,-0.255,
4685,-0.355,-0.25,
4686,-0.35,-0.265,
4687,-0.365,-0.26,
4688,-0.345,-0.255,
4689,-0.35,-0.26,
4690,-0.345,-0.275,
4691,-0.35,-0.275,
4692,-0.35,-0.29,
4693,-0.345,-0.285,
4694,-0.36,-0.28,
4695,-0.35,-0.265,
4696,-0.345,-0.26,
4697,-0.34,-0.265,
4698,-0.32,-0.255,
4699,-0.325,-0.245,
4700,-0.33,-0.25,
4701,-0.32,-0.245,
4702,-0.33,-0.265,
4703,-0.325,-0.275,
4704,-0.335,-0.28,
4705,-0.355,-0.29,
4706,-0.36,-0.29,
4707,-0.37,-0.29,
4708,-0.365,-0.275,
4709,-0.375,-0.265,
4710,-0.375,-0.275,
4711,-0.37,-0.26,
4712,-0.37,-0.275,
4713,-0.37,-0.285,
4714,-0.375,-0.275,
4715,-0.395,-0.295,
4716,-0.39,-0.31,
4717,-0.39,-0.305,
4718,-0.39,-0.305,
4719,-0.39,-0.305,
4720,-0.38,-0.31,
4721,-0.37,-0.295,
4722,-0.365,-0.305,
4723,-0.355,-0.29,
4724,-0.35,-0.3,
4725,-0.335,-0.31,
4726,-0.335,-0.315,
4727,-0.34,-0.32,
4728,-0.345,-0.32,
4729,-0.345,-0.335,
4730,-0.355,-0.335,
4731,-0.35,-0.33,
4732,-0.34,-0.32,
4733,-0.34,-0.31,
4734,-0.335,-0.315,
4735,-0.32,-0.305,
4736,-0.32,-0.31,
4737,-0.34,-0.315,
4738,-0.32,-0.315,
4739,-0.335,-0.32,
4740,-0.33,-0.33,
4741,-0.335,-0.335,
4742,-0.34,-0.335,
4743,-0.345,-0.335,
4744,-0.34,-0.335,
4745,-0.32,-0.325,
4746,-0.335,-0.32,
4747,-0.34,-0.31,
4748,-0.335,-0.32,
4749,-0.33,-0.315,
4750,-0.34,-0.33,
4751,-0.325,-0.32,
4752,-0.345,-0.34,
4753,-0.345,-0.33,
4754,-0.34,-0.345,
4755,-0.345,-0.335,
4756,-0.345,-0.325,
4757,-0.335,-0.33,
4758,-0.335,-0.315,
4759,-0.33,-0.31,
4760,-0.33,-0.31,
4761,-0.325,-0.31,
4762,-0.315,-0.31,
4763,-0.32,-0.335,
4764,-0.32,-0.325,
4765,-0.345,-0.325,
4766,-0.34,-0.325,
4767,-0.335,-0.31,
4768,-0.33,-0.31,
4769,-0.3,-0.295,
4770,-0.3,-0.28,
4771,-0.275,-0.265,
4772,-0.25,-0.26,
4773,-0.245,-0.25,
4774,-0.23,-0.245,
4775,-0.22,-0.25,
4776,-0.215,-0.245,
4777,-0.22,-0.235,
4778,-0.21,-0.23,
4779,-0.195,-0.2,
4780,-0.185,-0.185,
4781,-0.19,-0.185,
4782,-0.175,-0.175,
4783,-0.175,-0.18,
4784,-0.175,-0.185,
4785,-0.185,-0.195,
4786,-0.195,-0.22,
4787,-0.205,-0.245,
4788,-0.215,-0.265,
4789,-0.235,-0.275,
4790,-0.245,-0.285,
4791,-0.255,-0.285,
4792,-0.255,-0.275,
4793,-0.26,-0.29,
4794,-0.275,-0.275,
4795,-0.28,-0.28,
4796,-0.27,-0.29,
4797,-0.275,-0.285,
4798,-0.275,-0.3,
4799,-0.28,-0.315,
4800,-0.305,-0.335,
4801,-0.32,-0.35,
4802,-0.36,-0.345,
4803,-0.36,-0.365,
4804,-0.365,-0.35,
4805,-0.36,-0.345,
4806,-0.33,-0.335,
4807,-0.32,-0.33,
4808,-0.305,-0.31,
4809,-0.3,-0.32,
4810,-0.29,-0.32,
4811,-0.295,-0.315,
4812,-0.295,-0.3,
4813,-0.28,-0.3,
4814,-0.265,-0.285,
4815,-0.265,-0.26,
4816,-0.245,-0.245,
4817,-0.23,-0.22,
4818,-0.215,-0.215,
4819,-0.18,-0.175,
4820,-0.135,-0.16,
4821,-0.125,-0.14,
4822,-0.115,-0.125,
4823,-0.09,-0.11,
4824,-0.045,-0.095,
4825,-0.01,-0.075,
4826,0.015,-0.06,
4827,0.06,-0.04,
4828,0.1,-0.01,
4829,0.15,0.025,
4830,0.195,0.075,
4831,0.255,0.11,
4832,0.325,0.185,
4833,0.42,0.25,
4834,0.545,0.325,
4835,0.685,0.425,
4836,0.87,0.525,
4837,1.05,0.61,
4838,1.255,0.695,
4839,1.44,0.74,
4840,1.585,0.73,
4841,1.68,0.67,N
4842,1.69,0.535,
4843,1.61,0.38,
4844,1.41,0.215,
4845,1.105,0.065,
4846,0.705,-0.06,
4847,0.25,-0.175,
4848,-0.23,-0.28,
4849,-0.65,-0.365,
4850,-0.95,-0.455,
4851,-1.085,-0.53,
4852,-1.065,-0.565,
4853,-0.945,-0.57,
4854,-0.785,-0.545,
4855,-0.615,-0.49,
4856,-0.48,-0.45,
4857,-0.405,-0.39,
4858,-0.36,-0.35,
4859,-0.345,-0.32,
4860,-0.36,-0.295,
4861,-0.39,-0.285,
4862,-0.41,-0.28,
4863,-0.42,-0.27,
4864,-0.42,-0.26,
4865,-0.395,-0.265,
4866,-0.385,-0.255,
4867,-0.37,-0.24,
4868,-0.355,-0.24,
4869,-0.345,-0.25,
4870,-0.355,-0.245,
4871,-0.35,-0.25,
4872,-0.36,-0.255,
4873,-0.37,-0.265,
4874,-0.375,-0.255,
4875,-0.385,-0.25,
4876,-0.38,-0.24,
4877,-0.38,-0.245,
4878,-0.375,-0.23,
4879,-0.37,-0.225,
4880,-0.355,-0.24,
4881,-0.355,-0.225,
4882,-0.35,-0.24,
4883,-0.36,-0.235,
4884,-0.355,-0.23,
4885,-0.35,-0.235,
4886,-0.355,-0.23,
4887,-0.34,-0.225,
4888,-0.33,-0.22,
4889,-0.32,-0.205,
4890,-0.315,-0.185,
4891,-0.31,-0.195,
4892,-0.305,-0.18,
4893,-0.295,-0.19,
4894,-0.29,-0.195,
4895,-0.285,-0.195,
4896,-0.285,-0.18,
4897,-0.285,-0.185,
4898,-0.285,-0.19,
4899,-0.275,-0.175,
4900,-0.265,-0.175,
4901,-0.255,-0.15,
4902,-0.245,-0.13,
4903,-0.225,-0.12,
4904,-0.225,-0.12,
4905,-0.23,-0.12,
4906,-0.225,-0.11,
4907,-0.23,-0.105,
4908,-0.23,-0.105,
4909,-0.24,-0.105,
4910,-0.24,-0.075,
4911,-0.24,-0.075,
4912,-0.225,-0.065,
4913,-0.215,-0.045,
4914,-0.2,-0.03,
4915,-0.19,-0.02,
4916,-0.175,-0.01,
4917,-0.165,0.0,
4918,-0.16,-0.005,
4919,-0.16,0.0,
4920,-0.145,0.005,
4921,-0.145,0.005,
4922,-0.145,0.01,
4923,-0.145,0.02,
4924,-0.115,0.04,
4925,-0.11,0.04,
4926,-0.1,0.055,
4927,-0.085,0.065,
4928,-0.065,0.055,
4929,-0.07,0.055,
4930,-0.07,0.05,
4931,-0.065,0.04,
4932,-0.075,0.025,
4933,-0.075,0.03,
4934,-0.07,0.03,
4935,-0.055,0.03,
4936,-0.05,0.015,
4937,-0.045,0.01,
4938,-0.04,0.01,
4939,-0.045,-0.01,
4940,-0.065,-0.025,
4941,-0.065,-0.04,
4942,-0.09,-0.06,
4943,-0.1,-0.075,
4944,-0.1,-0.1,
4945,-0.12,-0.125,
4946,-0.135,-0.15,
4947,-0.15,-0.15,
4948,-0.16,-0.17,
4949,-0.175,-0.17,
4950,-0.18,-0.175,
4951,-0.185,-0.19,
4952,-0.2,-0.19,
4953,-0.205,-0.21,
4954,-0.215,-0.21,
4955,-0.235,-0.21,
4956,-0.24,-0.23,
4957,-0.255,-0.245,
4958,-0.26,-0.25,
4959,-0.27,-0.23,
4960,-0.275,-0.23,
4961,-0.265,-0.245,
4962,-0.26,-0.235,
4963,-0.265,-0.225,
4964,-0.255,-0.23,
4965,-0.25,-0.23,
4966,-0.255,-0.235,
4967,-0.26,-0.25,
4968,-0.27,-0.25,
4969,-0.28,-0.25,
4970,-0.29,-0.245,
4971,-0.29,-0.245,
4972,-0.285,-0.235,
4973,-0.28,-0.22,
4974,-0.28,-0.22,
4975,-0.26,-0.215,
4976,-0.265,-0.22,
4977,-0.26,-0.22,
4978,-0.26,-0.215,
4979,-0.26,-0.225,
4980,-0.26,-0.225,
4981,-0.28,-0.22,
4982,-0.285,-0.23,
4983,-0.275,-0.235,
4984,-0.27,-0.225,
4985,-0.285,-0.225,
4986,-0.29,-0.225,
4987,-0.28,-0.215,
4988,-0.26,-0.23,
4989,-0.265,-0.22,
4990,-0.27,-0.225,
4991,-0.29,-0.23,
4992,-0.29,-0.25,
4993,-0.3,-0.25,
4994,-0.305,-0.245,
4995,-0.315,-0.245,
4996,-0.32,-0.25,
4997,-0.31,-0.25,
4998,-0.295,-0.235,
4999,-0.295,-0.23,
5000,-0.3,-0.245,
5001,-0.305,-0.26,
5002,-0.3,-0.255,
5003,-0.31,-0.27,
5004,-0.315,-0.265,
5005,-0.325,-0.28,
5006,-0.325,-0.28,
5007,-0.325,-0.285,
5008,-0.325,-0.29,
5009,-0.31,-0.28,
5010,-0.305,-0.28,
5011,-0.305,-0.28,
5012,-0.295,-0.275,
5013,-0.305,-0.285,
5014,-0.305,-0.305,
5015,-0.32,-0.305,
5016,-0.32,-0.31,
5017,-0.32,-0.305,
5018,-0.335,-0.31,
5019,-0.34,-0.31,
5020,-0.325,-0.31,
5021,-0.33,-0.3,
5022,-0.325,-0.295,
5023,-0.315,-0.295,
5024,-0.315,-0.295,
5025,-0.31,-0.3,
5026,-0.31,-0.305,
5027,-0.32,-0.305,
5028,-0.325,-0.315,
5029,-0.33,-0.325,
5030,-0.33,-0.325,
5031,-0.335,-0.32,
5032,-0.335,-0.325,
5033,-0.325,-0.325,
5034,-0.315,-0.315,
5035,-0.32,-0.305,
5036,-0.31,-0.315,
5037,-0.31,-0.305,
5038,-0.31,-0.315,
5039,-0.3,-0.315,
5040,-0.315,-0.325,
5041,-0.325,-0.325,
5042,-0.325,-0.305,
5043,-0.305,-0.305,
5044,-0.305,-0.285,
5045,-0.285,-0.27,
5046,-0.28,-0.265,
5047,-0.26,-0.25,
5048,-0.26,-0.24,
5049,-0.23,-0.24,
5050,-0.23,-0.245,
5051,-0.21,-0.23,
5052,-0.21,-0.215,
5053,-0.21,-0.215,
5054,-0.21,-0.205,
5055,-0.205,-0.19,
5056,-0.205,-0.18,
5057,-0.21,-0.175,
5058,-0.225,-0.16,
5059,-0.22,-0.17,
5060,-0.21,-0.165,
5061,-0.22,-0.185,
5062,-0.225,-0.2,
5063,-0.235,-0.225,
5064,-0.235,-0.235,
5065,-0.26,-0.265,
5066,-0.275,-0.265,
5067,-0.285,-0.265,
5068,-0.3,-0.275,
5069,-0.305,-0.27,
5070,-0.3,-0.275,
5071,-0.3,-0.255,
5072,-0.305,-0.26,
5073,-0.3,-0.265,
5074,-0.315,-0.265,
5075,-0.34,-0.29,
5076,-0.345,-0.315,
5077,-0.36,-0.325,
5078,-0.365,-0.335,
5079,-0.375,-0.325,
5080,-0.35,-0.305,
5081,-0.335,-0.305,
5082,-0.325,-0.29,
5083,-0.305,-0.285,
5084,-0.285,-0.275,
5085,-0.285,-0.26,
5086,-0.275,-0.265,
5087,-0.26,-0.26,
5088,-0.255,-0.255,
5089,-0.245,-0.25,
5090,-0.225,-0.225,
5091,-0.22,-0.205,
5092,-0.2,-0.185,
5093,-0.175,-0.155,
5094,-0.15,-0.125,
5095,-0.125,-0.1,
5096,-0.1,-0.08,
5097,-0.07,-0.065,
5098,-0.045,-0.055,
5099,-0.015,-0.04,
5100,0.01,-0.03,
5101,0.035,-0.02,
5102,0.075,0.0,
5103,0.11,0.025,
5104,0.155,0.05,
5105,0.19,0.1,
5106,0.22,0.155,
5107,0.305,0.215,
5108,0.39,0.295,
5109,0.505,0.375,
5110,0.665,0.485,
5111,0.825,0.58,
5112,1.015,0.69,
5113,1.215,0.745,
5114,1.385,0.745,
5115,1.51,0.665,N
5116,1.575,0.505,
5117,1.535,0.29,
5118,1.375,0.09,
5119,1.1,-0.09,
5120,0.695,-0.24,
5121,0.185,-0.365,
5122,-0.33,-0.445,
5123,-0.785,-0.53,
5124,-1.055,-0.595,
5125,-1.14,-0.635,
5126,-1.075,-0.62,
5127,-0.9,-0.59,
5128,-0.705,-0.54,
5129,-0.54,-0.475,
5130,-0.42,-0.41,
5131,-0.35,-0.35,
5132,-0.32,-0.3,
5133,-0.335,-0.285,
5134,-0.365,-0.275,
5135,-0.375,-0.285,
5136,-0.39,-0.28,
5137,-0.39,-0.28,
5138,-0.385,-0.29,
5139,-0.37,-0.28,
5140,-0.355,-0.27,
5141,-0.34,-0.26,
5142,-0.325,-0.25,
5143,-0.315,-0.24,
5144,-0.305,-0.245,
5145,-0.315,-0.24,
5146,-0.32,-0.255,
5147,-0.32,-0.245,
5148,-0.31,-0.265,
5149,-0.315,-0.27,
5150,-0.33,-0.26,
5151,-0.33,-0.255,
5152,-0.315,-0.255,
5153,-0.315,-0.245,
5154,-0.315,-0.235,
5155,-0.305,-0.235,
5156,-0.315,-0.235,
5157,-0.31,-0.235,
5158,-0.315,-0.23,
5159,-0.32,-0.225,
5160,-0.335,-0.235,
5161,-0.35,-0.235,
5162,-0.355,-0.22,
5163,-0.365,-0.215,
5164,-0.375,-0.195,
5165,-0.38,-0.185,
5166,-0.38,-0.175,
5167,-0.375,-0.165,
5168,-0.39,-0.155,
5169,-0.385,-0.15,
5170,-0.395,-0.145,
5171,-0.4,-0.15,
5172,-0.42,-0.145,
5173,-0.43,-0.135,
5174,-0.44,-0.13,
5175,-0.435,-0.125,
5176,-0.43,-0.115,
5177,-0.42,-0.08,
5178,-0.4,-0.065,
5179,-0.385,-0.06,
5180,-0.375,-0.05,
5181,-0.38,-0.055,
5182,-0.37,-0.04,
5183,-0.355,-0.045,
5184,-0.35,-0.04,
5185,-0.345,-0.035,
5186,-0.335,-0.03,
5187,-0.33,-0.02,
5188,-0.31,-0.005,
5189,-0.28,0.01,
5190,-0.265,0.01,
5191,-0.25,0.03,
5192,-0.22,0.035,
5193,-0.2,0.025,
5194,-0.185,0.035,
5195,-0.165,0.025,
5196,-0.17,0.03,
5197,-0.165,0.035,
5198,-0.16,0.03,
5199,-0.145,0.045,
5200,-0.135,0.04,
5201,-0.125,0.035,
5202,-0.12,0.055,
5203,-0.09,0.07,
5204,-0.085,0.065,
5205,-0.08,0.04,
5206,-0.08,0.03,
5207,-0.08,0.015,
5208,-0.08,0.0,
5209,-0.095,-0.005,
5210,-0.1,-0.03,
5211,-0.11,-0.035,
5212,-0.13,-0.05,
5213,-0.14,-0.06,
5214,-0.15,-0.07,
5215,-0.15,-0.09,
5216,-0.175,-0.09,
5217,-0.185,-0.12,
5218,-0.185,-0.115,
5219,-0.205,-0.15,
5220,-0.215,-0.155,
5221,-0.24,-0.17,
5222,-0.255,-0.19,
5223,-0.255,-0.19,
5224,-0.27,-0.19,
5225,-0.265,-0.19,
5226,-0.285,-0.19,
5227,-0.29,-0.19,
5228,-0.29,-0.19,
5229,-0.28,-0.205,
5230,-0.295,-0.2,
5231,-0.31,-0.225,
5232,-0.315,-0.23,
5233,-0.32,-0.24,
5234,-0.33,-0.24,
5235,-0.33,-0.235,
5236,-0.325,-0.235,
5237,-0.32,-0.235,
5238,-0.32,-0.235,
5239,-0.305,-0.22,
5240,-0.305,-0.235,
5241,-0.3,-0.23,
5242,-0.305,-0.23,
5243,-0.295,-0.245,
5244,-0.31,-0.255,
5245,-0.29,-0.255,
5246,-0.29,-0.255,
5247,-0.275,-0.245,
5248,-0.28,-0.25,
5249,-0.275,-0.245,
5250,-0.26,-0.235,
5251,-0.25,-0.23,
5252,-0.245,-0.245,
5253,-0.24,-0.245,
5254,-0.235,-0.235,
5255,-0.245,-0.255,
5256,-0.25,-0.265,
5257,-0.255,-0.28,
5258,-0.25,-0.275,
5259,-0.26,-0.265,
5260,-0.24,-0.26,
5261,-0.235,-0.25,
5262,-0.225,-0.245,
5263,-0.225,-0.26,
5264,-0.225,-0.25,
5265,-0.22,-0.26,
5266,-0.22,-0.27,
5267,-0.22,-0.275,
5268,-0.23,-0.27,
5269,-0.23,-0.285,
5270,-0.23,-0.295,
5271,-0.24,-0.295,
5272,-0.235,-0.285,
5273,-0.235,-0.285,
5274,-0.235,-0.285,
5275,-0.225,-0.28,
5276,-0.22,-0.285,
5277,-0.22,-0.285,
5278,-0.21,-0.295,
5279,-0.225,-0.29,
5280,-0.235,-0.31,
5281,-0.245,-0.315,
5282,-0.245,-0.335,
5283,-0.26,-0.33,
5284,-0.255,-0.32,
5285,-0.265,-0.32,
5286,-0.26,-0.33,
5287,-0.265,-0.315,
5288,-0.265,-0.325,
5289,-0.25,-0.33,
5290,-0.25,-0.32,
5291,-0.255,-0.32,
5292,-0.26,-0.35,
5293,-0.28,-0.36,
5294,-0.28,-0.345,
5295,-0.295,-0.35,
5296,-0.285,-0.34,
5297,-0.275,-0.345,
5298,-0.285,-0.335,
5299,-0.275,-0.325,
5300,-0.265,-0.325,
5301,-0.255,-0.335,
5302,-0.26,-0.34,
5303,-0.275,-0.335,
5304,-0.28,-0.355,
5305,-0.285,-0.355,
5306,-0.29,-0.35,
5307,-0.295,-0.355,
5308,-0.305,-0.345,
5309,-0.3,-0.34,
5310,-0.295,-0.33,
5311,-0.29,-0.33,
5312,-0.275,-0.325,
5313,-0.27,-0.315,
5314,-0.255,-0.325,
5315,-0.255,-0.32,
5316,-0.25,-0.335,
5317,-0.245,-0.32,
5318,-0.24,-0.31,
5319,-0.225,-0.29,
5320,-0.215,-0.28,
5321,-0.205,-0.27,
5322,-0.185,-0.25,
5323,-0.165,-0.24,
5324,-0.145,-0.235,
5325,-0.14,-0.225,
5326,-0.13,-0.21,
5327,-0.125,-0.225,
5328,-0.125,-0.22,
5329,-0.13,-0.22,
5330,-0.135,-0.225,
5331,-0.135,-0.22,
5332,-0.14,-0.215,
5333,-0.14,-0.22,
5334,-0.15,-0.225,
5335,-0.15,-0.24,
5336,-0.16,-0.245,
5337,-0.17,-0.28,
5338,-0.19,-0.275,
5339,-0.195,-0.3,
5340,-0.225,-0.31,
5341,-0.245,-0.32,
5342,-0.26,-0.335,
5343,-0.27,-0.32,
5344,-0.27,-0.325,
5345,-0.285,-0.32,
5346,-0.29,-0.315,
5347,-0.305,-0.33,
5348,-0.31,-0.34,
5349,-0.315,-0.355,
5350,-0.325,-0.36,
5351,-0.335,-0.36,
5352,-0.33,-0.365,
5353,-0.32,-0.36,
5354,-0.315,-0.365,
5355,-0.31,-0.35,
5356,-0.295,-0.33,
5357,-0.275,-0.33,
5358,-0.245,-0.305,
5359,-0.23,-0.295,
5360,-0.205,-0.27,
5361,-0.18,-0.255,
5362,-0.145,-0.24,
5363,-0.135,-0.235,
5364,-0.125,-0.215,
5365,-0.095,-0.21,
5366,-0.08,-0.185,
5367,-0.065,-0.16,
5368,-0.045,-0.14,
5369,-0.015,-0.11,
5370,0.02,-0.08,
5371,0.055,-0.065,
5372,0.09,-0.04,
5373,0.12,-0.035,
5374,0.155,-0.01,
5375,0.195,0.0,
5376,0.23,0.025,
5377,0.245,0.03,
5378,0.3,0.085,
5379,0.35,0.155,
5380,0.45,0.225,
5381,0.59,0.32,
5382,0.76,0.435,
5383,0.97,0.55,
5384,1.215,0.675,
5385,1.465,0.78,
5386,1.695,0.835,
5387,1.905,0.815,N
5388,2.03,0.71,
5389,2.035,0.55,
5390,1.885,0.36,
5391,1.58,0.17,
5392,1.145,0.005,
5393,0.57,-0.13,
5394,-0.06,-0.255,
5395,-0.615,-0.36,
5396,-1.01,-0.475,
5397,-1.165,-0.565,
5398,-1.125,-0.615,
5399,-0.93,-0.625,
5400,-0.705,-0.6,
5401,-0.495,-0.535,
5402,-0.315,-0.475,
5403,-0.22,-0.405,
5404,-0.16,-0.35,
5405,-0.175,-0.295,
5406,-0.215,-0.265,
5407,-0.245,-0.255,
5408,-0.265,-0.26,
5409,-0.275,-0.27,
5410,-0.265,-0.265,
5411,-0.255,-0.285,
5412,-0.245,-0.29,
5413,-0.245,-0.295,
5414,-0.24,-0.285,
5415,-0.225,-0.285,
5416,-0.225,-0.28,
5417,-0.21,-0.27,
5418,-0.2,-0.27,
5419,-0.2,-0.265,
5420,-0.2,-0.255,
5421,-0.215,-0.265,
5422,-0.225,-0.265,
5423,-0.245,-0.27,
5424,-0.25,-0.27,
5425,-0.25,-0.27,
5426,-0.23,-0.26,
5427,-0.21,-0.27,
5428,-0.205,-0.265,
5429,-0.2,-0.265,
5430,-0.205,-0.255,
5431,-0.205,-0.245,
5432,-0.2,-0.245,
5433,-0.19,-0.255,
5434,-0.2,-0.245,
5435,-0.205,-0.255,
5436,-0.255,-0.255,
5437,-0.26,-0.26,
5438,-0.285,-0.255,
5439,-0.285,-0.245,
5440,-0.28,-0.235,
5441,-0.25,-0.235,
5442,-0.23,-0.225,
5443,-0.21,-0.215,
5444,-0.205,-0.22,
5445,-0.19,-0.205,
5446,-0.185,-0.205,
5447,-0.195,-0.205,
5448,-0.2,-0.215,
5449,-0.195,-0.205,
5450,-0.195,-0.195,
5451,-0.18,-0.18,
5452,-0.18,-0.175,
5453,-0.17,-0.155,
5454,-0.15,-0.135,
5455,-0.13,-0.125,
5456,-0.11,-0.11,
5457,-0.1,-0.105,
5458,-0.11,-0.095,
5459,-0.1,-0.09,
5460,-0.095,-0.075,
5461,-0.095,-0.08,
5462,-0.1,-0.08,
5463,-0.1,-0.055,
5464,-0.085,-0.055,
5465,-0.08,-0.035,
5466,-0.065,-0.01,
5467,-0.06,-0.005,
5468,-0.045,0.0,
5469,-0.04,0.005,
5470,-0.04,0.005,
5471,-0.03,0.02,
5472,-0.04,0.015,
5473,-0.045,0.015,
5474,-0.055,0.015,
5475,-0.06,0.01,
5476,-0.055,0.025,
5477,-0.04,0.025,
5478,-0.03,0.03,
5479,-0.015,0.02,
5480,-0.01,0.02,
5481,-0.015,0.0,
5482,-0.005,-0.01,
5483,-0.025,-0.04,
5484,-0.04,-0.05,
5485,-0.06,-0.06,
5486,-0.075,-0.08,
5487,-0.085,-0.105,
5488,-0.09,-0.105,
5489,-0.1,-0.115,
5490,-0.1,-0.12,
5491,-0.095,-0.13,
5492,-0.1,-0.155,
5493,-0.11,-0.16,
5494,-0.125,-0.17,
5495,-0.135,-0.19,
5496,-0.14,-0.195,
5497,-0.16,-0.21,
5498,-0.165,-0.21,
5499,-0.175,-0.215,
5500,-0.17,-0.215,
5501,-0.16,-0.21,
5502,-0.16,-0.21,
5503,-0.175,-0.21,
5504,-0.165,-0.21,
5505,-0.17,-0.205,
5506,-0.175,-0.21,
5507,-0.175,-0.205,
5508,-0.185,-0.22,
5509,-0.185,-0.23,
5510,-0.19,-0.225,
5511,-0.195,-0.23,
5512,-0.2,-0.235,
5513,-0.195,-0.215,
5514,-0.18,-0.21,
5515,-0.17,-0.205,
5516,-0.17,-0.2,
5517,-0.155,-0.2,
5518,-0.16,-0.205,
5519,-0.16,-0.21,
5520,-0.165,-0.215,
5521,-0.175,-0.22,
5522,-0.175,-0.22,
5523,-0.18,-0.2,
5524,-0.17,-0.2,
5525,-0.165,-0.195,
5526,-0.155,-0.185,
5527,-0.145,-0.175,
5528,-0.15,-0.18,
5529,-0.14,-0.19,
5530,-0.155,-0.2,
5531,-0.15,-0.205,
5532,-0.16,-0.21,
5533,-0.16,-0.22,
5534,-0.16,-0.215,
5535,-0.17,-0.23,
5536,-0.175,-0.22,
5537,-0.165,-0.22,
5538,-0.16,-0.21,
5539,-0.165,-0.215,
5540,-0.145,-0.21,
5541,-0.15,-0.215,
5542,-0.16,-0.23,
5543,-0.17,-0.23,
5544,-0.185,-0.24,
5545,-0.19,-0.245,
5546,-0.205,-0.255,
5547,-0.215,-0.26,
5548,-0.205,-0.26,
5549,-0.195,-0.25,
5550,-0.2,-0.24,
5551,-0.2,-0.23,
5552,-0.195,-0.245,
5553,-0.2,-0.245,
5554,-0.195,-0.25,
5555,-0.2,-0.255,
5556,-0.195,-0.26,
5557,-0.205,-0.275,
5558,-0.22,-0.28,
5559,-0.225,-0.27,
5560,-0.235,-0.28,
5561,-0.225,-0.27,
5562,-0.235,-0.26,
5563,-0.225,-0.255,
5564,-0.22,-0.255,
5565,-0.225,-0.265,
5566,-0.235,-0.265,+
5567,-0.24,-0.27,
5568,-0.265,-0.275,
5569,-0.26,-0.285,
5570,-0.265,-0.29,
5571,-0.27,-0.285,
5572,-0.28,-0.275,
5573,-0.28,-0.275,
5574,-0.255,-0.265,
5575,-0.24,-0.25,
5576,-0.245,-0.26,
5577,-0.245,-0.255,
5578,-0.25,-0.27,
5579,-0.25,-0.28,
5580,-0.26,-0.27,
5581,-0.265,-0.285,
5582,-0.275,-0.275,
5583,-0.27,-0.285,
5584,-0.275,-0.28,
5585,-0.27,-0.27,
5586,-0.27,-0.265,
5587,-0.255,-0.265,
5588,-0.245,-0.255,
5589,-0.245,-0.25,
5590,-0.23,-0.245,
5591,-0.225,-0.245,
5592,-0.23,-0.245,
5593,-0.215,-0.23,
5594,-0.205,-0.24,
5595,-0.2,-0.225,
5596,-0.19,-0.21,
5597,-0.175,-0.205,
5598,-0.155,-0.18,
5599,-0.145,-0.165,
5600,-0.12,-0.145,
5601,-0.11,-0.155,
5602,-0.105,-0.145,
5603,-0.115,-0.155,
5604,-0.12,-0.155,
5605,-0.13,-0.17,
5606,-0.155,-0.19,
5607,-0.145,-0.185,
5608,-0.16,-0.2,
5609,-0.16,-0.195,
5610,-0.155,-0.195,
5611,-0.15,-0.205,
5612,-0.16,-0.215,
5613,-0.18,-0.23,
5614,-0.2,-0.23,
5615,-0.215,-0.25,
5616,-0.23,-0.255,
5617,-0.24,-0.27,
5618,-0.255,-0.275,
5619,-0.255,-0.275,
5620,-0.26,-0.26,
5621,-0.28,-0.27,
5622,-0.285,-0.285,
5623,-0.3,-0.29,
5624,-0.3,-0.28,
5625,-0.3,-0.285,
5626,-0.295,-0.3,
5627,-0.305,-0.29,
5628,-0.315,-0.305,
5629,-0.325,-0.305,
5630,-0.335,-0.32,
5631,-0.345,-0.32,
5632,-0.35,-0.32,
5633,-0.35,-0.305,
5634,-0.35,-0.31,
5635,-0.355,-0.305,
5636,-0.355,-0.305,
5637,-0.36,-0.295,
5638,-0.36,-0.29,
5639,-0.37,-0.295,
5640,-0.345,-0.295,
5641,-0.35,-0.3,
5642,-0.34,-0.305,
5643,-0.335,-0.29,
5644,-0.335,-0.29,
5645,-0.315,-0.275,
5646,-0.305,-0.265,
5647,-0.285,-0.27,
5648,-0.265,-0.24,
5649,-0.26,-0.235,
5650,-0.24,-0.22,
5651,-0.225,-0.2,
5652,-0.205,-0.175,
5653,-0.16,-0.135,
5654,-0.08,-0.085,
5655,0.04,-0.01,
5656,0.195,0.075,
5657,0.4,0.185,
5658,0.64,0.29,
5659,0.89,0.38,
5660,1.125,0.405,
5661,1.31,0.355,
5662,1.445,0.225,N
5663,1.47,0.015,
5664,1.375,-0.215,
5665,1.16,-0.44,
5666,0.815,-0.64,
5667,0.39,-0.785,
5668,-0.105,-0.885,
5669,-0.62,-0.955,
5670,-1.065,-1.0,
5671,-1.355,-1.05,
5672,-1.46,-1.05,
5673,-1.355,-1.02,
5674,-1.13,-0.96,
5675,-0.86,-0.88,
5676,-0.61,-0.78,
5677,-0.415,-0.66,
5678,-0.285,-0.545,
5679,-0.21,-0.41,
5680,-0.18,-0.31,
5681,-0.175,-0.225,
5682,-0.165,-0.175,
5683,-0.175,-0.14,
5684,-0.165,-0.13,
5685,-0.16,-0.125,
5686,-0.16,-0.115,
5687,-0.135,-0.115,
5688,-0.135,-0.11,
5689,-0.125,-0.115,
5690,-0.12,-0.095,
5691,-0.1,-0.095,
5692,-0.095,-0.07,
5693,-0.075,-0.07,
5694,-0.055,-0.055,
5695,-0.05,-0.045,
5696,-0.04,-0.04,
5697,-0.05,-0.045,
5698,-0.04,-0.045,
5699,-0.05,-0.055,
5700,-0.035,-0.055,
5701,-0.025,-0.06,
5702,-0.02,-0.075,
5703,-0.02,-0.055,
5704,-0.01,-0.035,
5705,0.01,-0.02,
5706,0.02,-0.005,
5707,0.035,0.015,
5708,0.045,0.03,
5709,0.055,0.02,
5710,0.06,0.02,
5711,0.055,0.025,
5712,0.055,0.015,
5713,0.06,0.025,
5714,0.055,0.03,
5715,0.06,0.05,
5716,0.065,0.055,
5717,0.085,0.08,
5718,0.075,0.115,
5719,0.095,0.13,
5720,0.105,0.14,
5721,0.115,0.16,
5722,0.13,0.175,
5723,0.125,0.19,
5724,0.125,0.2,
5725,0.125,0.21,
5726,0.13,0.23,
5727,0.15,0.25,
5728,0.165,0.28,
5729,0.185,0.315,
5730,0.195,0.34,
5731,0.22,0.355,
5732,0.245,0.375,
5733,0.255,0.395,
5734,0.27,0.41,
5735,0.265,0.415,
5736,0.26,0.435,
5737,0.26,0.435,
5738,0.275,0.46,
5739,0.28,0.465,
5740,0.295,0.485,
5741,0.32,0.505,
5742,0.345,0.515,
5743,0.36,0.515,
5744,0.38,0.52,
5745,0.39,0.52,
5746,0.395,0.52,
5747,0.395,0.51,
5748,0.375,0.5,
5749,0.37,0.49,
5750,0.36,0.48,
5751,0.355,0.48,
5752,0.345,0.475,
5753,0.34,0.465,
5754,0.34,0.445,
5755,0.345,0.445,
5756,0.34,0.435,
5757,0.34,0.405,
5758,0.335,0.375,
5759,0.32,0.34,
5760,0.305,0.305,
5761,0.285,0.26,
5762,0.265,0.215,
5763,0.245,0.18,
5764,0.215,0.15,
5765,0.195,0.12,
5766,0.19,0.095,
5767,0.18,0.065,
5768,0.16,0.035,
5769,0.125,0.0,
5770,0.11,-0.04,
5771,0.065,-0.06,
5772,0.025,-0.1,
5773,-0.01,-0.115,
5774,-0.035,-0.145,
5775,-0.07,-0.15,
5776,-0.095,-0.155,
5777,-0.1,-0.175,
5778,-0.115,-0.17,
5779,-0.125,-0.18,
5780,-0.12,-0.185,
5781,-0.13,-0.195,
5782,-0.135,-0.195,
5783,-0.13,-0.205,
5784,-0.14,-0.205,
5785,-0.14,-0.215,
5786,-0.16,-0.215,
5787,-0.16,-0.22,
5788,-0.155,-0.22,
5789,-0.16,-0.19,
5790,-0.155,-0.175,
5791,-0.135,-0.19,
5792,-0.135,-0.185,
5793,-0.14,-0.175,
5794,-0.16,-0.175,
5795,-0.16,-0.18,
5796,-0.175,-0.18,
5797,-0.195,-0.2,
5798,-0.2,-0.195,
5799,-0.21,-0.2,
5800,-0.23,-0.185,
5801,-0.22,-0.175,
5802,-0.22,-0.165,
5803,-0.22,-0.16,
5804,-0.225,-0.165,
5805,-0.22,-0.165,
5806,-0.22,-0.155,
5807,-0.23,-0.175,
5808,-0.235,-0.175,
5809,-0.245,-0.19,
5810,-0.26,-0.195,
5811,-0.26,-0.195,
5812,-0.24,-0.19,
5813,-0.22,-0.19,
5814,-0.2,-0.185,
5815,-0.2,-0.17,
5816,-0.185,-0.17,
5817,-0.175,-0.175,
5818,-0.17,-0.18,
5819,-0.17,-0.195,
5820,-0.175,-0.195,
5821,-0.185,-0.195,
5822,-0.185,-0.21,
5823,-0.19,-0.21,
5824,-0.19,-0.21,
5825,-0.18,-0.21,
5826,-0.195,-0.205,
5827,-0.21,-0.205,
5828,-0.195,-0.2,
5829,-0.21,-0.195,
5830,-0.21,-0.2,
5831,-0.225,-0.215,
5832,-0.225,-0.22,
5833,-0.23,-0.225,
5834,-0.23,-0.23,
5835,-0.225,-0.23,
5836,-0.23,-0.23,
5837,-0.225,-0.22,
5838,-0.22,-0.21,
5839,-0.195,-0.22,
5840,-0.2,-0.215,
5841,-0.19,-0.225,
5842,-0.185,-0.225,
5843,-0.195,-0.23,
5844,-0.205,-0.245,
5845,-0.2,-0.25,
5846,-0.195,-0.25,
5847,-0.205,-0.245,
5848,-0.185,-0.245,
5849,-0.19,-0.23,
5850,-0.185,-0.23,
5851,-0.18,-0.21,
5852,-0.16,-0.2,
5853,-0.165,-0.2,
5854,-0.155,-0.195,
5855,-0.15,-0.2,
5856,-0.14,-0.215,
5857,-0.14,-0.195,
5858,-0.13,-0.19,
5859,-0.135,-0.175,
5860,-0.125,-0.175,
5861,-0.115,-0.15,
5862,-0.1,-0.135,
5863,-0.085,-0.12,
5864,-0.07,-0.095,
5865,-0.055,-0.095,
5866,-0.055,-0.09,
5867,-0.06,-0.095,
5868,-0.08,-0.105,
5869,-0.085,-0.12,
5870,-0.1,-0.115,
5871,-0.13,-0.125,
5872,-0.145,-0.125,
5873,-0.15,-0.135,
5874,-0.145,-0.14,
5875,-0.14,-0.145,
5876,-0.14,-0.145,
5877,-0.155,-0.16,
5878,-0.18,-0.18,
5879,-0.195,-0.185,
5880,-0.21,-0.185,
5881,-0.215,-0.195,
5882,-0.225,-0.2,
5883,-0.23,-0.2,
5884,-0.235,-0.205,
5885,-0.245,-0.205,
5886,-0.26,-0.21,
5887,-0.265,-0.215,
5888,-0.27,-0.215,
5889,-0.275,-0.23,
5890,-0.26,-0.22,
5891,-0.255,-0.235,
5892,-0.265,-0.24,
5893,-0.275,-0.25,
5894,-0.265,-0.255,
5895,-0.27,-0.255,
5896,-0.28,-0.25,
5897,-0.285,-0.24,
5898,-0.28,-0.24,
5899,-0.27,-0.225,
5900,-0.255,-0.23,
5901,-0.26,-0.23,
5902,-0.26,-0.235,
5903,-0.27,-0.23,
5904,-0.28,-0.235,
5905,-0.28,-0.245,
5906,-0.28,-0.235,
5907,-0.285,-0.235,
5908,-0.28,-0.22,
5909,-0.28,-0.225,
5910,-0.26,-0.22,
5911,-0.25,-0.19,
5912,-0.25,-0.19,
5913,-0.245,-0.18,
5914,-0.25,-0.17,
5915,-0.235,-0.165,
5916,-0.23,-0.15,
5917,-0.2,-0.12,
5918,-0.155,-0.075,
5919,-0.065,-0.005,
5920,0.055,0.07,
5921,0.215,0.165,
5922,0.43,0.255,
5923,0.675,0.37,
5924,0.905,0.41,
5925,1.12,0.415,
5926,1.275,0.335,N
5927,1.37,0.175,
5928,1.34,-0.035,
5929,1.18,-0.255,
5930,0.885,-0.445,
5931,0.47,-0.605,
5932,-0.02,-0.735,
5933,-0.555,-0.82,
5934,-1.045,-0.895,
5935,-1.39,-0.94,
5936,-1.53,-0.95,
5937,-1.435,-0.915,
5938,-1.18,-0.87,
5939,-0.89,-0.78,
5940,-0.595,-0.685,
5941,-0.37,-0.575,
5942,-0.215,-0.435,
5943,-0.135,-0.32,
5944,-0.105,-0.215,
5945,-0.115,-0.135,
5946,-0.12,-0.085,
5947,-0.15,-0.05,
5948,-0.16,-0.04,
5949,-0.165,-0.025,
5950,-0.17,-0.02,
5951,-0.17,-0.025,
5952,-0.185,-0.025,
5953,-0.205,-0.025,
5954,-0.205,-0.02,
5955,-0.2,0.015,
5956,-0.195,0.015,
5957,-0.2,0.03,
5958,-0.2,0.05,
5959,-0.2,0.065,
5960,-0.185,0.08,
5961,-0.19,0.065,
5962,-0.185,0.07,
5963,-0.19,0.06,
5964,-0.2,0.065,
5965,-0.21,0.065,
5966,-0.205,0.065,
5967,-0.21,0.075,
5968,-0.205,0.075,
5969,-0.205,0.095,
5970,-0.195,0.105,
5971,-0.19,0.12,
5972,-0.185,0.135,
5973,-0.17,0.135,
5974,-0.165,0.14,
5975,-0.16,0.135,
5976,-0.175,0.145,
5977,-0.18,0.155,
5978,-0.175,0.155,
5979,-0.165,0.175,
5980,-0.165,0.2,
5981,-0.18,0.215,
5982,-0.175,0.25,
5983,-0.15,0.26,
5984,-0.13,0.285,
5985,-0.125,0.3,
5986,-0.1,0.32,
5987,-0.095,0.32,
5988,-0.085,0.34,
5989,-0.085,0.36,
5990,-0.07,0.365,
5991,-0.05,0.395,
5992,-0.04,0.43,
5993,-0.005,0.435,
5994,0.025,0.46,
5995,0.055,0.485,
5996,0.07,0.515,
5997,0.095,0.515,
5998,0.11,0.54,
5999,0.115,0.54,
6000,0.12,0.56,
6001,0.13,0.565,
6002,0.14,0.575,
6003,0.17,0.59,
6004,0.185,0.595,
6005,0.21,0.61,
6006,0.23,0.61,
6007,0.23,0.635,
6008,0.27,0.65,
6009,0.265,0.635,
6010,0.28,0.63,
6011,0.28,0.625,
6012,0.29,0.6,
6013,0.29,0.595,
6014,0.285,0.585,
6015,0.28,0.57,
6016,0.265,0.56,
6017,0.27,0.54,
6018,0.27,0.525,
6019,0.255,0.495,
6020,0.255,0.485,
6021,0.23,0.43,
6022,0.21,0.4,
6023,0.19,0.35,
6024,0.155,0.305,
6025,0.11,0.27,
6026,0.065,0.245,
6027,0.04,0.21,
6028,0.01,0.185,
6029,-0.005,0.155,
6030,-0.025,0.14,
6031,-0.055,0.125,
6032,-0.08,0.09,
6033,-0.105,0.055,
6034,-0.12,0.035,
6035,-0.13,0.005,
6036,-0.15,-0.01,
6037,-0.18,-0.035,
6038,-0.19,-0.05,
6039,-0.2,-0.055,
6040,-0.21,-0.065,
6041,-0.215,-0.065,
6042,-0.225,-0.06,
6043,-0.21,-0.055,
6044,-0.22,-0.065,
6045,-0.225,-0.065,
6046,-0.215,-0.075,
6047,-0.215,-0.095,
6048,-0.215,-0.095,
6049,-0.23,-0.095,
6050,-0.22,-0.1,
6051,-0.225,-0.09,
6052,-0.215,-0.08,
6053,-0.21,-0.09,
6054,-0.205,-0.075,
6055,-0.205,-0.085,
6056,-0.205,-0.07,
6057,-0.21,-0.075,
6058,-0.2,-0.085,
6059,-0.195,-0.085,
6060,-0.21,-0.09,
6061,-0.215,-0.095,
6062,-0.21,-0.095,
6063,-0.2,-0.095,
6064,-0.21,-0.1,
6065,-0.205,-0.085,
6066,-0.2,-0.085,
6067,-0.2,-0.08,
6068,-0.195,-0.085,
6069,-0.2,-0.09,
6070,-0.195,-0.085,
6071,-0.2,-0.09,
6072,-0.2,-0.11,
6073,-0.19,-0.1,
6074,-0.215,-0.105,
6075,-0.215,-0.1,
6076,-0.225,-0.115,
6077,-0.225,-0.11,
6078,-0.22,-0.11,
6079,-0.225,-0.11,
6080,-0.23,-0.095,
6081,-0.225,-0.11,
6082,-0.215,-0.12,
6083,-0.22,-0.13,
6084,-0.24,-0.135,
6085,-0.24,-0.15,
6086,-0.255,-0.16,
6087,-0.25,-0.155,
6088,-0.26,-0.165,
6089,-0.275,-0.155,
6090,-0.255,-0.15,
6091,-0.25,-0.15,
6092,-0.245,-0.14,
6093,-0.25,-0.145,
6094,-0.245,-0.16,
6095,-0.255,-0.155,
6096,-0.25,-0.19,
6097,-0.255,-0.185,
6098,-0.27,-0.18,
6099,-0.26,-0.18,
6100,-0.255,-0.185,
6101,-0.255,-0.18,
6102,-0.255,-0.175,
6103,-0.255,-0.17,
6104,-0.245,-0.165,
6105,-0.245,-0.18,
6106,-0.255,-0.19,
6107,-0.265,-0.19,
6108,-0.265,-0.195,
6109,-0.265,-0.205,
6110,-0.28,-0.21,
6111,-0.285,-0.215,
6112,-0.28,-0.21,
6113,-0.295,-0.205,
6114,-0.29,-0.2,
6115,-0.305,-0.2,
6116,-0.285,-0.195,
6117,-0.285,-0.195,
6118,-0.285,-0.205,
6119,-0.285,-0.215,
6120,-0.295,-0.215,
6121,-0.295,-0.215,
6122,-0.29,-0.21,
6123,-0.29,-0.21,
6124,-0.28,-0.195,
6125,-0.26,-0.185,
6126,-0.24,-0.16,
6127,-0.23,-0.15,
6128,-0.215,-0.145,
6129,-0.195,-0.145,
6130,-0.18,-0.14,
6131,-0.18,-0.135,
6132,-0.17,-0.145,
6133,-0.16,-0.125,
6134,-0.16,-0.12,
6135,-0.15,-0.11,
6136,-0.155,-0.11,
6137,-0.17,-0.12,
6138,-0.175,-0.115,
6139,-0.19,-0.13,
6140,-0.195,-0.13,
6141,-0.19,-0.145,
6142,-0.18,-0.16,
6143,-0.205,-0.175,
6144,-0.235,-0.19,
6145,-0.24,-0.205,
6146,-0.255,-0.21,
6147,-0.275,-0.22,
6148,-0.295,-0.22,
6149,-0.3,-0.215,
6150,-0.3,-0.21,
6151,-0.31,-0.205,
6152,-0.31,-0.21,
6153,-0.305,-0.22,
6154,-0.32,-0.225,
6155,-0.325,-0.24,
6156,-0.34,-0.265,
6157,-0.345,-0.27,
6158,-0.36,-0.285,
6159,-0.36,-0.28,
6160,-0.36,-0.27,
6161,-0.355,-0.27,
6162,-0.355,-0.265,
6163,-0.355,-0.265,
6164,-0.355,-0.26,
6165,-0.34,-0.265,
6166,-0.34,-0.27,
6167,-0.325,-0.26,
6168,-0.335,-0.27,
6169,-0.33,-0.285,
6170,-0.335,-0.275,
6171,-0.325,-0.28,
6172,-0.315,-0.265,
6173,-0.31,-0.265,
6174,-0.32,-0.25,
6175,-0.29,-0.235,
6176,-0.27,-0.215,
6177,-0.275,-0.215,
6178,-0.275,-0.215,
6179,-0.265,-0.22,
6180,-0.275,-0.215,
6181,-0.28,-0.22,
6182,-0.28,-0.19,
6183,-0.27,-0.16,
6184,-0.24,-0.125,
6185,-0.175,-0.05,
6186,-0.08,0.01,
6187,0.055,0.09,
6188,0.225,0.175,
6189,0.435,0.27,
6190,0.67,0.345,
6191,0.905,0.37,
6192,1.12,0.345,
6193,1.27,0.235,N
6194,1.345,0.06,
6195,1.31,-0.155,
6196,1.15,-0.375,
6197,0.84,-0.58,
6198,0.425,-0.74,
6199,-0.095,-0.855,
6200,-0.665,-0.93,
6201,-1.2,-1.015,
6202,-1.6,-1.09,
6203,-1.76,-1.1,
6204,-1.645,-1.04,
6205,-1.345,-0.94,
6206,-1.01,-0.83,
6207,-0.7,-0.695,
6208,-0.455,-0.55,
6209,-0.3,-0.41,
6210,-0.235,-0.29,
6211,-0.225,-0.205,
6212,-0.235,-0.145,
6213,-0.27,-0.12,
6214,-0.285,-0.115,
6215,-0.29,-0.1,
6216,-0.285,-0.105,
6217,-0.275,-0.11,
6218,-0.27,-0.09,
6219,-0.255,-0.08,
6220,-0.245,-0.07,
6221,-0.235,-0.07,
6222,-0.215,-0.04,
6223,-0.215,-0.02,
6224,-0.21,-0.02,
6225,-0.205,-0.015,
6226,-0.21,-0.02,
6227,-0.215,-0.01,
6228,-0.225,-0.03,
6229,-0.23,-0.035,
6230,-0.235,-0.02,
6231,-0.23,-0.015,
6232,-0.225,0.005,
6233,-0.225,0.025,
6234,-0.21,0.03,
6235,-0.2,0.05,
6236,-0.195,0.05,
6237,-0.185,0.065,
6238,-0.18,0.075,
6239,-0.175,0.07,
6240,-0.18,0.08,
6241,-0.17,0.085,
6242,-0.165,0.09,
6243,-0.15,0.1,
6244,-0.16,0.115,
6245,-0.15,0.145,
6246,-0.13,0.155,
6247,-0.125,0.18,
6248,-0.105,0.215,
6249,-0.08,0.22,
6250,-0.07,0.24,
6251,-0.06,0.26,
6252,-0.04,0.275,
6253,-0.035,0.285,
6254,-0.03,0.3,
6255,-0.03,0.31,
6256,-0.015,0.34,
6257,0.0,0.365,
6258,0.01,0.395,
6259,0.045,0.42,
6260,0.065,0.445,
6261,0.075,0.465,
6262,0.085,0.47,
6263,0.105,0.485,
6264,0.105,0.49,
6265,0.115,0.505,
6266,0.1,0.515,
6267,0.11,0.525,
6268,0.125,0.53,
6269,0.13,0.54,
6270,0.13,0.56,
6271,0.14,0.57,
6272,0.13,0.585,
6273,0.135,0.57,
6274,0.135,0.57,
6275,0.13,0.555,
6276,0.135,0.55,
6277,0.13,0.53,
6278,0.105,0.525,
6279,0.115,0.5,
6280,0.1,0.48,
6281,0.095,0.465,
6282,0.085,0.45,
6283,0.085,0.435,
6284,0.075,0.405,
6285,0.06,0.375,
6286,0.045,0.34,
6287,0.025,0.31,
6288,-0.005,0.26,
6289,-0.035,0.215,
6290,-0.065,0.175,
6291,-0.09,0.13,
6292,-0.135,0.115,
6293,-0.15,0.08,
6294,-0.165,0.055,
6295,-0.185,0.035,
6296,-0.185,0.02,
6297,-0.195,-0.005,
6298,-0.21,-0.03,
6299,-0.225,-0.055,
6300,-0.235,-0.08,
6301,-0.26,-0.09,
6302,-0.28,-0.115,
6303,-0.29,-0.125,
6304,-0.295,-0.14,
6305,-0.3,-0.125,
6306,-0.31,-0.135,
6307,-0.295,-0.125,
6308,-0.295,-0.115,
6309,-0.285,-0.14,
6310,-0.27,-0.15,
6311,-0.28,-0.14,
6312,-0.275,-0.15,
6313,-0.295,-0.16,
6314,-0.29,-0.155,
6315,-0.3,-0.16,
6316,-0.3,-0.15,
6317,-0.295,-0.145,
6318,-0.295,-0.13,
6319,-0.285,-0.125,
6320,-0.29,-0.12,
6321,-0.28,-0.125,
6322,-0.28,-0.125,
6323,-0.285,-0.12,
6324,-0.29,-0.13,
6325,-0.305,-0.145,
6326,-0.305,-0.145,
6327,-0.305,-0.145,
6328,-0.31,-0.15,
6329,-0.3,-0.14,
6330,-0.3,-0.16,
6331,-0.295,-0.13,
6332,-0.295,-0.14,
6333,-0.29,-0.125,
6334,-0.29,-0.135,
6335,-0.285,-0.14,
6336,-0.305,-0.15,
6337,-0.31,-0.16,
6338,-0.33,-0.175,
6339,-0.34,-0.18,
6340,-0.35,-0.17,
6341,-0.33,-0.165,
6342,-0.32,-0.18,
6343,-0.315,-0.165,
6344,-0.315,-0.16,
6345,-0.31,-0.165,
6346,-0.305,-0.17,
6347,-0.305,-0.17,
6348,-0.305,-0.19,
6349,-0.32,-0.19,
6350,-0.325,-0.195,
6351,-0.325,-0.21,
6352,-0.33,-0.19,
6353,-0.33,-0.205,
6354,-0.32,-0.185,
6355,-0.325,-0.185,
6356,-0.32,-0.19,
6357,-0.335,-0.19,
6358,-0.32,-0.21,
6359,-0.325,-0.205,
6360,-0.33,-0.22,
6361,-0.35,-0.225,
6362,-0.355,-0.235,
6363,-0.36,-0.23,
6364,-0.355,-0.23,
6365,-0.36,-0.235,
6366,-0.35,-0.24,
6367,-0.34,-0.22,
6368,-0.335,-0.215,
6369,-0.335,-0.22,
6370,-0.345,-0.235,
6371,-0.355,-0.24,
6372,-0.345,-0.235,
6373,-0.355,-0.25,
6374,-0.36,-0.235,
6375,-0.37,-0.255,
6376,-0.365,-0.235,
6377,-0.36,-0.23,
6378,-0.36,-0.225,
6379,-0.355,-0.23,
6380,-0.35,-0.215,
6381,-0.35,-0.22,
6382,-0.36,-0.225,
6383,-0.355,-0.225,
6384,-0.37,-0.24,
6385,-0.37,-0.245,
6386,-0.37,-0.24,
6387,-0.36,-0.23,
6388,-0.355,-0.225,
6389,-0.35,-0.21,
6390,-0.335,-0.2,
6391,-0.305,-0.19,
6392,-0.29,-0.175,
6393,-0.275,-0.165,
6394,-0.27,-0.165,
6395,-0.265,-0.155,
6396,-0.255,-0.16,
6397,-0.25,-0.15,
6398,-0.235,-0.125,
6399,-0.23,-0.14,
6400,-0.22,-0.11,
6401,-0.22,-0.11,
6402,-0.21,-0.1,
6403,-0.225,-0.1,
6404,-0.225,-0.1,
6405,-0.23,-0.125,
6406,-0.245,-0.14,
6407,-0.25,-0.14,
6408,-0.25,-0.165,
6409,-0.265,-0.175,
6410,-0.295,-0.195,
6411,-0.3,-0.215,
6412,-0.32,-0.215,
6413,-0.35,-0.22,
6414,-0.35,-0.22,
6415,-0.35,-0.21,
6416,-0.345,-0.215,
6417,-0.35,-0.22,
6418,-0.36,-0.225,
6419,-0.375,-0.24,
6420,-0.41,-0.255,
6421,-0.43,-0.265,
6422,-0.455,-0.285,
6423,-0.455,-0.285,
6424,-0.45,-0.275,
6425,-0.45,-0.28,
6426,-0.44,-0.28,
6427,-0.425,-0.275,
6428,-0.41,-0.26,
6429,-0.41,-0.265,
6430,-0.41,-0.28,
6431,-0.415,-0.27,
6432,-0.415,-0.29,
6433,-0.43,-0.28,
6434,-0.435,-0.295,
6435,-0.43,-0.285,
6436,-0.44,-0.27,
6437,-0.43,-0.28,
6438,-0.425,-0.27,
6439,-0.42,-0.26,
6440,-0.405,-0.255,
6441,-0.395,-0.245,
6442,-0.4,-0.25,
6443,-0.395,-0.255,
6444,-0.385,-0.255,
6445,-0.405,-0.245,
6446,-0.415,-0.245,
6447,-0.415,-0.24,
6448,-0.4,-0.195,
6449,-0.39,-0.155,
6450,-0.34,-0.1,
6451,-0.245,-0.035,
6452,-0.125,0.045,
6453,0.04,0.12,
6454,0.26,0.205,
6455,0.48,0.295,
6456,0.72,0.35,
6457,0.935,0.35,
6458,1.105,0.28,N
6459,1.195,0.12,
6460,1.19,-0.08,
6461,1.055,-0.295,
6462,0.805,-0.505,
6463,0.415,-0.67,
6464,-0.055,-0.795,
6465,-0.61,-0.89,
6466,-1.135,-0.99,
6467,-1.545,-1.08,
6468,-1.755,-1.09,
6469,-1.695,-1.06,
6470,-1.425,-0.97,
6471,-1.095,-0.855,
6472,-0.77,-0.71,
6473,-0.51,-0.585,
6474,-0.325,-0.445,
6475,-0.26,-0.325,
6476,-0.235,-0.245,
6477,-0.255,-0.19,
6478,-0.285,-0.155,
6479,-0.305,-0.14,
6480,-0.33,-0.14,
6481,-0.32,-0.145,
6482,-0.33,-0.135,
6483,-0.295,-0.115,
6484,-0.285,-0.1,
6485,-0.265,-0.085,
6486,-0.26,-0.09,
6487,-0.25,-0.065,
6488,-0.245,-0.065,
6489,-0.23,-0.05,
6490,-0.245,-0.055,
6491,-0.235,-0.055,
6492,-0.23,-0.055,
6493,-0.235,-0.055,
6494,-0.235,-0.035,
6495,-0.245,-0.035,
6496,-0.245,-0.03,
6497,-0.255,-0.02,
6498,-0.25,-0.005,
6499,-0.245,0.01,
6500,-0.24,0.03,
6501,-0.23,0.04,
6502,-0.225,0.04,
6503,-0.215,0.04,
