,MLII,V1,symbol
0,-0.2,0.075,
1,-0.2,0.075,
2,-0.2,0.075,
3,-0.2,0.075,
4,-0.2,0.075,
5,-0.2,0.075,
6,-0.2,0.075,
7,-0.2,0.075,
8,-0.185,0.075,
9,-0.185,0.08,
10,-0.19,0.075,
11,-0.195,0.06,
12,-0.21,0.06,
13,-0.21,0.06,
14,-0.195,0.065,
15,-0.19,0.065,
16,-0.18,0.075,
17,-0.18,0.08,
18,-0.175,0.09,
19,-0.165,0.085,
20,-0.17,0.085,
21,-0.175,0.065,
22,-0.185,0.06,
23,-0.195,0.065,
24,-0.195,0.065,
25,-0.225,0.055,
26,-0.225,0.06,
27,-0.225,0.075,
28,-0.21,0.075,
29,-0.215,0.085,
30,-0.195,0.085,
31,-0.205,0.085,
32,-0.21,0.08,
33,-0.215,0.07,
34,-0.225,0.065,
35,-0.23,0.065,
36,-0.24,0.06,
37,-0.245,0.06,
38,-0.26,0.055,
39,-0.25,0.065,
40,-0.24,0.065,
41,-0.235,0.085,
42,-0.245,0.09,
43,-0.245,0.08,
44,-0.245,0.08,
45,-0.26,0.07,
46,-0.255,0.06,
47,-0.26,0.06,
48,-0.265,0.06,
49,-0.26,0.065,
50,-0.275,0.065,
51,-0.265,0.06,
52,-0.265,0.07,
53,-0.27,0.08,
54,-0.275,0.095,
55,-0.265,0.08,
56,-0.27,0.085,
57,-0.275,0.07,+
58,-0.275,0.06,
59,-0.285,0.06,
60,-0.28,0.055,
61,-0.285,0.055,
62,-0.275,0.065,
63,-0.275,0.075,
64,-0.27,0.075,
65,-0.265,0.095,
66,-0.265,0.085,
67,-0.265,0.08,
68,-0.27,0.065,
69,-0.29,0.075,
70,-0.275,0.08,
71,-0.28,0.07,
72,-0.295,0.065,
73,-0.285,0.065,
74,-0.295,0.07,
75,-0.295,0.075,
76,-0.285,0.085,
77,-0.29,0.085,
78,-0.28,0.085,
79,-0.27,0.085,
80,-0.285,0.075,
81,-0.275,0.075,
82,-0.28,0.06,
83,-0.285,0.055,
84,-0.29,0.05,
85,-0.295,0.045,
86,-0.295,0.055,
87,-0.3,0.065,
88,-0.29,0.085,
89,-0.29,0.075,
90,-0.29,0.08,
91,-0.275,0.085,
92,-0.28,0.085,
93,-0.28,0.07,
94,-0.285,0.065,
95,-0.3,0.07,
96,-0.3,0.06,
97,-0.305,0.075,
98,-0.295,0.07,
99,-0.295,0.08,
100,-0.29,0.085,
101,-0.28,0.09,
102,-0.285,0.085,
103,-0.28,0.1,
104,-0.265,0.105,
105,-0.285,0.11,
106,-0.285,0.105,
107,-0.275,0.105,
108,-0.275,0.125,
109,-0.27,0.14,
110,-0.26,0.155,
111,-0.26,0.16,
112,-0.23,0.16,
113,-0.21,0.17,
114,-0.205,0.155,
115,-0.2,0.14,
116,-0.19,0.135,
117,-0.18,0.12,
118,-0.185,0.105,
119,-0.16,0.095,
120,-0.145,0.085,
121,-0.135,0.075,
122,-0.105,0.08,
123,-0.095,0.09,
124,-0.1,0.08,
125,-0.1,0.08,
126,-0.11,0.075,
127,-0.125,0.08,
128,-0.125,0.06,
129,-0.14,0.05,
130,-0.155,0.045,
131,-0.17,0.045,
132,-0.18,0.05,
133,-0.2,0.05,
134,-0.205,0.055,
135,-0.215,0.06,
136,-0.235,0.06,
137,-0.25,0.065,
138,-0.255,0.07,
139,-0.275,0.06,
140,-0.29,0.055,
141,-0.285,0.05,
142,-0.3,0.045,
143,-0.305,0.03,
144,-0.31,0.03,
145,-0.315,0.035,
146,-0.315,0.03,
147,-0.32,0.05,
148,-0.31,0.055,
149,-0.3,0.065,
150,-0.3,0.065,
151,-0.3,0.06,
152,-0.295,0.06,
153,-0.295,0.045,
154,-0.295,0.045,
155,-0.3,0.04,
156,-0.31,0.05,
157,-0.32,0.035,
158,-0.315,0.05,
159,-0.31,0.065,
160,-0.305,0.06,
161,-0.285,0.065,
162,-0.29,0.085,
163,-0.285,0.075,
164,-0.29,0.095,
165,-0.3,0.11,
166,-0.315,0.14,
167,-0.34,0.175,
168,-0.375,0.195,
169,-0.43,0.2,
170,-0.5,0.195,
171,-0.55,0.175,
172,-0.545,0.14,
173,-0.48,0.09,
174,-0.285,0.03,
175,-0.005,-0.02,
176,0.365,-0.055,
177,0.76,-0.085,
178,1.12,-0.105,
179,1.395,-0.125,
180,1.52,-0.115,R
181,1.43,-0.105,
182,1.14,-0.105,
183,0.675,-0.07,
184,0.175,-0.01,
185,-0.195,0.11,
186,-0.42,0.265,
187,-0.5,0.435,
188,-0.485,0.59,
189,-0.47,0.72,
190,-0.48,0.805,
191,-0.565,0.86,
192,-0.665,0.895,
193,-0.78,0.93,
194,-0.915,0.96,
195,-1.01,1.0,
196,-1.06,1.005,
197,-1.09,0.99,
198,-1.075,0.93,
199,-1.035,0.87,
200,-0.995,0.795,
201,-0.91,0.695,
202,-0.83,0.6,
203,-0.75,0.51,
204,-0.67,0.405,
205,-0.575,0.31,
206,-0.505,0.245,
207,-0.44,0.195,
208,-0.38,0.175,
209,-0.35,0.15,
210,-0.325,0.14,
211,-0.325,0.13,
212,-0.31,0.125,
213,-0.32,0.105,
214,-0.3,0.105,
215,-0.305,0.09,
216,-0.295,0.07,
217,-0.305,0.07,
218,-0.3,0.065,
219,-0.29,0.06,
220,-0.27,0.07,
221,-0.25,0.07,
222,-0.24,0.06,
223,-0.245,0.065,
224,-0.25,0.065,
225,-0.245,0.05,
226,-0.25,0.04,
227,-0.245,0.035,
228,-0.255,0.04,
229,-0.255,0.025,
230,-0.255,0.045,
231,-0.225,0.045,
232,-0.23,0.05,
233,-0.22,0.065,
234,-0.205,0.05,
235,-0.21,0.05,
236,-0.21,0.05,
237,-0.21,0.035,
238,-0.205,0.03,
239,-0.215,0.02,
240,-0.215,0.035,
241,-0.21,0.015,
242,-0.205,0.025,
243,-0.2,0.04,
244,-0.19,0.03,
245,-0.18,0.035,
246,-0.175,0.05,
247,-0.17,0.035,
248,-0.175,0.035,
249,-0.17,0.025,
250,-0.175,0.03,
251,-0.175,0.02,
252,-0.155,0.01,
253,-0.16,0.01,
254,-0.155,0.0,
255,-0.145,0.005,
256,-0.13,0.01,
257,-0.115,0.02,
258,-0.105,0.02,
259,-0.095,0.015,
260,-0.08,0.01,
261,-0.085,-0.01,
262,-0.075,-0.015,
263,-0.075,-0.01,
264,-0.08,-0.025,
265,-0.07,-0.025,
266,-0.06,-0.025,
267,-0.045,-0.015,
268,-0.05,-0.01,
269,-0.01,-0.01,
270,-0.01,0.0,
271,0.005,-0.01,
272,0.01,-0.01,
273,0.01,-0.02,
274,0.015,-0.03,
275,0.03,-0.05,
276,0.04,-0.055,
277,0.04,-0.06,
278,0.06,-0.055,
279,0.075,-0.045,
280,0.095,-0.05,
281,0.11,-0.05,
282,0.125,-0.05,
283,0.15,-0.07,
284,0.155,-0.06,
285,0.18,-0.075,
286,0.17,-0.07,
287,0.185,-0.09,
288,0.19,-0.085,
289,0.21,-0.1,
290,0.21,-0.095,
291,0.22,-0.09,
292,0.235,-0.085,
293,0.25,-0.085,
294,0.27,-0.09,
295,0.28,-0.08,
296,0.285,-0.08,
297,0.28,-0.09,
298,0.295,-0.095,
299,0.28,-0.115,
300,0.295,-0.115,
301,0.29,-0.11,
302,0.3,-0.095,
303,0.305,-0.085,
304,0.32,-0.065,
305,0.325,-0.065,
306,0.325,-0.065,
307,0.325,-0.06,
308,0.315,-0.075,
309,0.32,-0.07,
310,0.305,-0.08,
311,0.29,-0.07,
312,0.28,-0.07,
313,0.255,-0.055,
314,0.24,-0.035,
315,0.235,-0.015,
316,0.21,-0.005,
317,0.19,0.01,
318,0.185,0.02,
319,0.165,0.02,
320,0.13,0.035,
321,0.115,0.045,
322,0.095,0.055,
323,0.07,0.045,
324,0.045,0.045,
325,0.02,0.065,
326,0.005,0.075,
327,-0.02,0.095,
328,-0.025,0.09,
329,-0.03,0.105,
330,-0.04,0.12,
331,-0.055,0.115,
332,-0.065,0.125,
333,-0.075,0.115,
334,-0.095,0.12,
335,-0.125,0.115,
336,-0.13,0.12,
337,-0.145,0.115,
338,-0.14,0.13,
339,-0.15,0.14,
340,-0.15,0.145,
341,-0.145,0.145,
342,-0.14,0.15,
343,-0.145,0.145,
344,-0.15,0.155,
345,-0.16,0.15,
346,-0.165,0.135,
347,-0.18,0.135,
348,-0.18,0.14,
349,-0.18,0.135,
350,-0.175,0.14,
351,-0.165,0.14,
352,-0.17,0.155,
353,-0.17,0.155,
354,-0.145,0.155,
355,-0.155,0.155,
356,-0.155,0.155,
357,-0.155,0.14,
358,-0.18,0.145,
359,-0.165,0.13,
360,-0.185,0.135,
361,-0.19,0.135,
362,-0.175,0.15,
363,-0.175,0.145,
364,-0.16,0.135,
365,-0.16,0.15,
366,-0.16,0.155,
367,-0.16,0.155,
368,-0.16,0.15,
369,-0.17,0.14,
370,-0.175,0.135,
371,-0.185,0.115,
372,-0.19,0.105,
373,-0.19,0.11,
374,-0.19,0.125,
375,-0.175,0.14,
376,-0.185,0.135,
377,-0.17,0.135,
378,-0.16,0.145,
379,-0.16,0.135,
380,-0.175,0.15,
381,-0.175,0.13,
382,-0.18,0.14,
383,-0.195,0.13,
384,-0.2,0.115,
385,-0.21,0.125,
386,-0.22,0.115,
387,-0.215,0.125,
388,-0.21,0.135,
389,-0.21,0.135,
390,-0.21,0.125,
391,-0.215,0.13,
392,-0.215,0.145,
393,-0.21,0.13,
394,-0.22,0.115,
395,-0.225,0.11,
396,-0.225,0.105,
397,-0.23,0.11,
398,-0.225,0.115,
399,-0.23,0.12,
400,-0.235,0.12,
401,-0.22,0.135,
402,-0.205,0.14,
403,-0.22,0.135,
404,-0.22,0.125,
405,-0.215,0.12,
406,-0.22,0.115,
407,-0.23,0.09,
408,-0.24,0.095,
409,-0.245,0.1,
410,-0.235,0.105,
411,-0.225,0.11,
412,-0.23,0.12,
413,-0.22,0.11,
414,-0.21,0.12,
415,-0.21,0.115,
416,-0.225,0.12,
417,-0.235,0.11,
418,-0.23,0.105,
419,-0.225,0.09,
420,-0.245,0.09,
421,-0.25,0.095,
422,-0.235,0.105,
423,-0.23,0.105,
424,-0.23,0.12,
425,-0.225,0.11,
426,-0.225,0.115,
427,-0.22,0.115,
428,-0.22,0.115,
429,-0.22,0.12,
430,-0.24,0.11,
431,-0.23,0.1,
432,-0.24,0.095,
433,-0.24,0.095,
434,-0.24,0.095,
435,-0.235,0.115,
436,-0.23,0.115,
437,-0.215,0.115,
438,-0.21,0.105,
439,-0.205,0.115,
440,-0.21,0.115,
441,-0.21,0.11,
442,-0.215,0.105,
443,-0.215,0.105,
444,-0.23,0.09,
445,-0.23,0.11,
446,-0.235,0.1,
447,-0.23,0.125,
448,-0.22,0.125,
449,-0.22,0.155,
450,-0.21,0.165,
451,-0.205,0.16,
452,-0.21,0.175,
453,-0.2,0.17,
454,-0.2,0.17,
455,-0.19,0.175,
456,-0.19,0.175,
457,-0.19,0.175,
458,-0.18,0.185,
459,-0.18,0.185,
460,-0.165,0.18,
461,-0.15,0.175,
462,-0.135,0.17,
463,-0.14,0.17,
464,-0.105,0.15,
465,-0.1,0.135,
466,-0.08,0.135,
467,-0.07,0.125,
468,-0.045,0.1,
469,-0.05,0.11,
470,-0.045,0.095,
471,-0.055,0.095,
472,-0.07,0.105,
473,-0.07,0.105,
474,-0.085,0.115,
475,-0.095,0.095,
476,-0.095,0.1,
477,-0.105,0.105,
478,-0.1,0.1,
479,-0.1,0.105,
480,-0.14,0.11,
481,-0.15,0.095,
482,-0.17,0.085,
483,-0.19,0.09,
484,-0.19,0.095,
485,-0.215,0.1,
486,-0.215,0.095,
487,-0.22,0.09,
488,-0.24,0.095,
489,-0.24,0.09,
490,-0.245,0.08,
491,-0.255,0.07,
492,-0.26,0.075,
493,-0.27,0.075,
494,-0.26,0.095,
495,-0.265,0.085,
496,-0.27,0.09,
497,-0.275,0.12,
498,-0.275,0.115,
499,-0.27,0.105,
500,-0.27,0.095,
501,-0.28,0.095,
502,-0.275,0.08,
503,-0.28,0.075,
504,-0.275,0.08,
505,-0.27,0.095,
506,-0.26,0.095,
507,-0.255,0.11,
508,-0.255,0.11,
509,-0.245,0.12,
510,-0.25,0.125,
511,-0.245,0.125,
512,-0.25,0.14,
513,-0.255,0.145,
514,-0.27,0.17,
515,-0.305,0.205,
516,-0.335,0.22,
517,-0.385,0.235,
518,-0.46,0.215,
519,-0.5,0.205,
520,-0.495,0.145,
521,-0.38,0.075,
522,-0.145,0.015,
523,0.215,-0.04,
524,0.63,-0.075,
525,1.05,-0.105,
526,1.395,-0.1,
527,1.585,-0.075,R
528,1.54,-0.06,
529,1.215,-0.05,
530,0.685,-0.015,
531,0.14,0.065,
532,-0.295,0.19,
533,-0.52,0.355,
534,-0.59,0.535,
535,-0.565,0.69,
536,-0.53,0.815,
537,-0.53,0.88,
538,-0.585,0.92,
539,-0.665,0.945,
540,-0.795,0.96,
541,-0.925,0.99,
542,-1.025,1.0,
543,-1.065,0.99,
544,-1.06,0.97,
545,-1.015,0.925,
546,-0.93,0.86,
547,-0.845,0.775,
548,-0.76,0.675,
549,-0.665,0.56,
550,-0.59,0.425,
551,-0.5,0.315,
552,-0.435,0.24,
553,-0.385,0.175,
554,-0.345,0.14,
555,-0.31,0.135,
556,-0.285,0.13,
557,-0.265,0.125,
558,-0.24,0.12,
559,-0.23,0.115,
560,-0.235,0.1,
561,-0.225,0.085,
562,-0.215,0.075,
563,-0.22,0.06,
564,-0.225,0.045,
565,-0.225,0.05,
566,-0.21,0.04,
567,-0.215,0.06,
568,-0.19,0.05,
569,-0.185,0.05,
570,-0.175,0.06,
571,-0.17,0.055,
572,-0.175,0.055,
573,-0.175,0.045,
574,-0.17,0.03,
575,-0.185,0.02,
576,-0.185,0.025,
577,-0.195,0.03,
578,-0.19,0.025,
579,-0.19,0.035,
580,-0.17,0.03,
581,-0.165,0.04,
582,-0.15,0.04,
583,-0.16,0.035,
584,-0.15,0.04,
585,-0.14,0.025,
586,-0.16,0.025,
587,-0.16,0.01,
588,-0.155,0.0,
589,-0.15,-0.015,
590,-0.16,0.0,
591,-0.15,-0.005,
592,-0.125,0.005,
593,-0.12,0.02,
594,-0.105,0.025,
595,-0.085,0.025,
596,-0.085,0.005,
597,-0.07,0.0,
598,-0.08,-0.01,
599,-0.085,-0.01,
600,-0.085,-0.02,
601,-0.105,-0.01,
602,-0.085,-0.005,
603,-0.08,-0.02,
604,-0.06,-0.005,
605,-0.045,-0.015,
606,-0.03,0.0,
607,-0.015,0.0,
608,-0.02,-0.01,
609,-0.01,-0.005,
610,-0.025,-0.02,
611,-0.02,-0.045,
612,-0.025,-0.055,
613,-0.005,-0.045,
614,0.0,-0.055,
615,0.02,-0.04,
616,0.03,-0.045,
617,0.045,-0.04,
618,0.055,-0.025,
619,0.07,-0.03,
620,0.09,-0.04,
621,0.095,-0.055,
622,0.095,-0.075,
623,0.11,-0.09,
624,0.12,-0.07,
625,0.13,-0.09,
626,0.135,-0.08,
627,0.15,-0.075,
628,0.16,-0.08,
629,0.175,-0.09,
630,0.205,-0.09,
631,0.22,-0.09,
632,0.23,-0.1,
633,0.24,-0.12,
634,0.24,-0.12,
635,0.24,-0.12,
636,0.245,-0.12,
637,0.245,-0.13,
638,0.245,-0.115,
639,0.27,-0.12,
640,0.3,-0.11,
641,0.3,-0.12,
642,0.305,-0.115,
643,0.315,-0.12,
644,0.31,-0.12,
645,0.32,-0.135,
646,0.32,-0.14,
647,0.33,-0.14,
648,0.33,-0.15,
649,0.335,-0.145,
650,0.34,-0.13,
651,0.335,-0.12,
652,0.345,-0.115,
653,0.355,-0.11,
654,0.355,-0.105,
655,0.345,-0.095,
656,0.345,-0.095,
657,0.34,-0.1,
658,0.315,-0.09,
659,0.3,-0.11,
660,0.265,-0.105,
661,0.245,-0.095,
662,0.235,-0.08,
663,0.215,-0.06,
664,0.195,-0.04,
665,0.2,-0.035,
666,0.19,-0.02,
667,0.17,-0.01,
668,0.155,-0.005,
669,0.12,0.005,
670,0.1,0.005,
671,0.065,0.01,
672,0.04,0.01,
673,0.01,0.02,
674,-0.01,0.04,
675,-0.015,0.055,
676,-0.02,0.06,
677,-0.035,0.07,
678,-0.03,0.09,
679,-0.04,0.09,
680,-0.08,0.08,
681,-0.08,0.09,
682,-0.11,0.085,
683,-0.13,0.08,
684,-0.145,0.085,
685,-0.165,0.1,
686,-0.155,0.1,
687,-0.155,0.12,
688,-0.145,0.145,
689,-0.165,0.12,
690,-0.16,0.13,
691,-0.16,0.125,
692,-0.155,0.13,
693,-0.155,0.12,
694,-0.175,0.115,
695,-0.175,0.12,
696,-0.175,0.11,
697,-0.18,0.11,
698,-0.175,0.12,
699,-0.18,0.14,
700,-0.185,0.135,
701,-0.18,0.15,
702,-0.16,0.145,
703,-0.16,0.14,
704,-0.16,0.135,
705,-0.165,0.125,
706,-0.16,0.12,
707,-0.19,0.115,
708,-0.185,0.125,
709,-0.185,0.11,
710,-0.175,0.12,
711,-0.165,0.125,
712,-0.16,0.135,
713,-0.15,0.135,
714,-0.145,0.14,
715,-0.16,0.13,
716,-0.16,0.13,
717,-0.16,0.13,
718,-0.165,0.11,
719,-0.18,0.1,
720,-0.17,0.095,
721,-0.175,0.115,
722,-0.19,0.095,
723,-0.185,0.11,
724,-0.195,0.11,
725,-0.195,0.11,
726,-0.185,0.115,
727,-0.185,0.115,
728,-0.165,0.1,
729,-0.16,0.105,
730,-0.15,0.095,
731,-0.165,0.1,
732,-0.18,0.095,
733,-0.205,0.085,
734,-0.21,0.085,
735,-0.2,0.095,
736,-0.2,0.105,
737,-0.19,0.115,
738,-0.165,0.12,
739,-0.17,0.12,
740,-0.17,0.12,
741,-0.18,0.115,
742,-0.205,0.09,
743,-0.22,0.09,
744,-0.225,0.085,
745,-0.24,0.09,
746,-0.21,0.08,
747,-0.205,0.1,
748,-0.195,0.1,
749,-0.2,0.105,
750,-0.195,0.11,
751,-0.205,0.115,
752,-0.21,0.105,
753,-0.225,0.085,
754,-0.225,0.085,
755,-0.22,0.07,
756,-0.23,0.08,
757,-0.22,0.08,
758,-0.205,0.085,
759,-0.2,0.085,
760,-0.19,0.085,
761,-0.205,0.1,
762,-0.215,0.1,
763,-0.21,0.095,
764,-0.215,0.1,
765,-0.23,0.095,
766,-0.225,0.095,
767,-0.225,0.085,
768,-0.22,0.075,
769,-0.215,0.085,
770,-0.215,0.095,
771,-0.225,0.1,
772,-0.22,0.1,
773,-0.21,0.115,
774,-0.215,0.13,
775,-0.215,0.135,
776,-0.21,0.155,
777,-0.21,0.145,
778,-0.215,0.16,
779,-0.215,0.15,
780,-0.21,0.15,
781,-0.195,0.14,
782,-0.19,0.145,
783,-0.155,0.145,
784,-0.13,0.14,
785,-0.125,0.145,
786,-0.105,0.145,
787,-0.105,0.145,
788,-0.12,0.14,
789,-0.105,0.125,
790,-0.115,0.12,
791,-0.085,0.11,
792,-0.055,0.095,
793,-0.035,0.095,
794,-0.03,0.095,
795,-0.035,0.1,
796,-0.025,0.1,
797,-0.04,0.095,
798,-0.05,0.085,
799,-0.055,0.09,
800,-0.075,0.08,
801,-0.09,0.075,
802,-0.1,0.085,
803,-0.135,0.075,
804,-0.13,0.07,
805,-0.165,0.07,
806,-0.175,0.07,
807,-0.19,0.075,
808,-0.21,0.065,
809,-0.235,0.07,
810,-0.235,0.075,
811,-0.255,0.08,
812,-0.245,0.08,
813,-0.245,0.055,
814,-0.255,0.05,
815,-0.255,0.055,
816,-0.27,0.045,
817,-0.275,0.06,
818,-0.27,0.055,
819,-0.27,0.06,
820,-0.25,0.065,
821,-0.255,0.07,
822,-0.245,0.085,
823,-0.24,0.07,
824,-0.24,0.08,
825,-0.25,0.07,
826,-0.25,0.07,
827,-0.245,0.06,
828,-0.245,0.065,
829,-0.26,0.07,
830,-0.255,0.07,
831,-0.26,0.085,
832,-0.26,0.09,
833,-0.26,0.105,
834,-0.245,0.125,
835,-0.24,0.15,
836,-0.245,0.18,
837,-0.28,0.195,
838,-0.35,0.195,
839,-0.435,0.175,
840,-0.47,0.125,
841,-0.435,0.07,
842,-0.285,0.01,
843,0.03,-0.06,
844,0.435,-0.085,
845,0.87,-0.075,
846,1.27,-0.015,
847,1.515,0.02,R
848,1.52,0.055,
849,1.205,0.05,
850,0.665,0.065,
851,0.075,0.105,
852,-0.38,0.195,
853,-0.625,0.34,
854,-0.695,0.49,
855,-0.68,0.645,
856,-0.615,0.76,
857,-0.61,0.84,
858,-0.635,0.91,
859,-0.715,0.945,
860,-0.82,0.975,
861,-0.9,0.99,
862,-0.96,1.0,
863,-0.975,0.995,
864,-0.97,0.955,
865,-0.945,0.895,
866,-0.9,0.845,
867,-0.825,0.785,
868,-0.745,0.7,
869,-0.66,0.61,
870,-0.555,0.495,
871,-0.48,0.375,
872,-0.4,0.27,
873,-0.34,0.19,
874,-0.305,0.135,
875,-0.275,0.115,
876,-0.265,0.1,
877,-0.27,0.095,
878,-0.24,0.1,
879,-0.225,0.09,
880,-0.215,0.09,
881,-0.2,0.075,
882,-0.19,0.08,
883,-0.18,0.07,
884,-0.185,0.055,
885,-0.165,0.05,
886,-0.175,0.045,
887,-0.18,0.045,
888,-0.185,0.035,
889,-0.18,0.025,
890,-0.18,0.035,
891,-0.17,0.035,
892,-0.165,0.035,
893,-0.16,0.035,
894,-0.145,0.04,
895,-0.135,0.05,
896,-0.14,0.045,
897,-0.14,0.02,
898,-0.14,0.015,
899,-0.135,0.01,
900,-0.145,0.01,
901,-0.15,0.0,
902,-0.14,-0.005,
903,-0.13,0.005,
904,-0.115,0.02,
905,-0.11,0.01,
906,-0.1,0.03,
907,-0.095,0.02,
908,-0.095,0.015,
909,-0.1,0.005,
910,-0.105,-0.005,
911,-0.1,-0.005,
912,-0.1,-0.02,
913,-0.105,-0.02,
914,-0.095,-0.01,
915,-0.085,-0.01,
916,-0.09,0.005,
917,-0.08,0.01,
918,-0.08,0.005,
919,-0.055,-0.005,
920,-0.05,0.0,
921,-0.04,-0.01,
922,-0.035,-0.01,
923,-0.045,-0.015,
924,-0.05,-0.03,
925,-0.05,-0.035,
926,-0.05,-0.035,
927,-0.02,-0.04,
928,-0.015,-0.02,
929,-0.005,-0.015,
930,0.0,-0.015,
931,0.015,-0.02,
932,0.0,-0.025,
933,0.005,-0.045,
934,0.01,-0.045,
935,0.035,-0.055,
936,0.035,-0.06,
937,0.025,-0.06,
938,0.035,-0.065,
939,0.04,-0.07,
940,0.065,-0.05,
941,0.06,-0.06,
942,0.075,-0.06,
943,0.085,-0.07,
944,0.085,-0.085,
945,0.1,-0.1,
946,0.105,-0.105,
947,0.105,-0.11,
948,0.105,-0.125,
949,0.125,-0.12,
950,0.115,-0.115,
951,0.12,-0.125,
952,0.15,-0.105,
953,0.16,-0.11,
954,0.175,-0.11,
955,0.18,-0.12,
956,0.2,-0.11,
957,0.2,-0.12,
958,0.195,-0.13,
959,0.2,-0.145,
960,0.2,-0.145,
961,0.205,-0.155,
962,0.21,-0.15,
963,0.23,-0.155,
964,0.24,-0.14,
965,0.255,-0.145,
966,0.26,-0.145,
967,0.265,-0.125,
968,0.275,-0.135,
969,0.28,-0.135,
970,0.285,-0.14,
971,0.295,-0.145,
972,0.295,-0.15,
973,0.29,-0.145,
974,0.285,-0.13,
975,0.285,-0.125,
976,0.28,-0.11,
977,0.28,-0.1,
978,0.28,-0.08,
979,0.275,-0.08,
980,0.255,-0.06,
981,0.245,-0.06,
982,0.225,-0.045,
983,0.195,-0.055,
984,0.175,-0.045,
985,0.155,-0.03,
986,0.145,-0.02,
987,0.12,0.0,
988,0.11,0.015,
989,0.09,0.015,
990,0.08,0.04,
991,0.055,0.055,
992,0.02,0.07,
993,0.03,0.07,
994,0.005,0.065,
995,-0.015,0.07,
996,-0.04,0.075,
997,-0.055,0.07,
998,-0.075,0.075,
999,-0.1,0.095,
1000,-0.115,0.11,
1001,-0.105,0.105,
1002,-0.115,0.11,
1003,-0.12,0.12,
1004,-0.135,0.115,
1005,-0.14,0.105,
1006,-0.145,0.1,
1007,-0.15,0.095,
1008,-0.155,0.09,
1009,-0.15,0.1,
1010,-0.155,0.1,
1011,-0.15,0.105,
1012,-0.145,0.115,
1013,-0.14,0.105,
1014,-0.125,0.115,
1015,-0.135,0.12,
1016,-0.14,0.11,
1017,-0.13,0.11,
1018,-0.14,0.1,
1019,-0.14,0.09,
1020,-0.145,0.095,
1021,-0.145,0.095,
1022,-0.145,0.1,
1023,-0.13,0.1,
1024,-0.125,0.095,
1025,-0.11,0.095,
1026,-0.11,0.085,
1027,-0.11,0.09,
1028,-0.11,0.095,
1029,-0.115,0.1,
1030,-0.125,0.08,
1031,-0.125,0.07,
1032,-0.13,0.075,
1033,-0.14,0.07,
1034,-0.13,0.075,
1035,-0.125,0.085,
1036,-0.125,0.075,
1037,-0.115,0.095,
1038,-0.105,0.075,
1039,-0.105,0.075,
1040,-0.115,0.07,
1041,-0.125,0.075,
1042,-0.12,0.055,
1043,-0.15,0.05,
1044,-0.15,0.05,
1045,-0.165,0.065,
1046,-0.16,0.06,
1047,-0.145,0.065,
1048,-0.14,0.075,
1049,-0.14,0.075,
1050,-0.135,0.07,
1051,-0.14,0.075,
1052,-0.155,0.075,
1053,-0.165,0.06,
1054,-0.17,0.06,
1055,-0.19,0.05,
1056,-0.19,0.045,
1057,-0.195,0.06,
1058,-0.19,0.07,
1059,-0.185,0.065,
1060,-0.185,0.075,
1061,-0.185,0.08,
1062,-0.185,0.075,
1063,-0.18,0.085,
1064,-0.195,0.07,
1065,-0.19,0.06,
1066,-0.2,0.05,
1067,-0.205,0.05,
1068,-0.22,0.065,
1069,-0.215,0.055,
1070,-0.215,0.075,
1071,-0.215,0.075,
1072,-0.21,0.08,
1073,-0.21,0.07,
1074,-0.215,0.07,
1075,-0.2,0.065,
1076,-0.21,0.07,
1077,-0.215,0.055,
1078,-0.215,0.055,
1079,-0.225,0.06,
1080,-0.24,0.055,
1081,-0.235,0.065,
1082,-0.235,0.06,
1083,-0.24,0.065,
1084,-0.23,0.065,
1085,-0.22,0.075,
1086,-0.215,0.065,
1087,-0.23,0.055,
1088,-0.21,0.065,
1089,-0.21,0.06,
1090,-0.22,0.065,
1091,-0.24,0.065,
1092,-0.23,0.08,
1093,-0.225,0.08,
1094,-0.22,0.1,
1095,-0.21,0.125,
1096,-0.205,0.135,
1097,-0.18,0.155,
1098,-0.17,0.17,
1099,-0.17,0.165,
1100,-0.18,0.145,
1101,-0.18,0.155,
1102,-0.165,0.13,
1103,-0.16,0.125,
1104,-0.15,0.1,
1105,-0.14,0.095,
1106,-0.125,0.095,
1107,-0.1,0.09,
1108,-0.075,0.09,
1109,-0.05,0.085,
1110,-0.025,0.085,
1111,-0.03,0.08,
1112,-0.02,0.08,
1113,-0.05,0.07,
1114,-0.065,0.05,
1115,-0.085,0.035,
1116,-0.09,0.03,
1117,-0.115,0.05,
1118,-0.13,0.065,
1119,-0.145,0.075,
1120,-0.145,0.07,
1121,-0.155,0.065,
1122,-0.165,0.05,
1123,-0.19,0.05,
1124,-0.2,0.035,
1125,-0.22,0.025,
1126,-0.245,0.02,
1127,-0.26,0.02,
1128,-0.255,0.01,
1129,-0.26,0.03,
1130,-0.255,0.03,
1131,-0.255,0.025,
1132,-0.25,0.03,
1133,-0.25,0.04,
1134,-0.245,0.04,
1135,-0.255,0.045,
1136,-0.255,0.04,
1137,-0.26,0.04,
1138,-0.265,0.03,
1139,-0.275,0.02,
1140,-0.275,0.035,
1141,-0.27,0.035,
1142,-0.275,0.04,
1143,-0.27,0.065,
1144,-0.265,0.05,
1145,-0.255,0.075,
1146,-0.25,0.055,
1147,-0.265,0.06,
1148,-0.26,0.05,
1149,-0.27,0.06,
1150,-0.27,0.065,
1151,-0.285,0.075,
1152,-0.295,0.115,
1153,-0.31,0.145,
1154,-0.33,0.195,
1155,-0.365,0.22,
1156,-0.425,0.225,
1157,-0.495,0.205,
1158,-0.52,0.16,
1159,-0.49,0.105,
1160,-0.325,0.045,
1161,-0.06,-0.02,
1162,0.285,-0.08,
1163,0.68,-0.11,
1164,1.075,-0.125,
1165,1.395,-0.13,
1166,1.535,-0.105,R
1167,1.45,-0.1,
1168,1.135,-0.09,
1169,0.65,-0.05,
1170,0.13,0.025,
1171,-0.24,0.165,
1172,-0.445,0.35,
1173,-0.525,0.515,
1174,-0.525,0.665,
1175,-0.53,0.79,
1176,-0.575,0.865,
1177,-0.655,0.915,
1178,-0.785,0.955,
1179,-0.89,0.98,
1180,-0.995,1.01,
1181,-1.045,0.99,
1182,-1.05,0.955,
1183,-1.04,0.89,
1184,-0.985,0.805,
1185,-0.91,0.71,
1186,-0.825,0.6,
1187,-0.735,0.49,
1188,-0.635,0.38,
1189,-0.55,0.285,
1190,-0.47,0.22,
1191,-0.41,0.17,
1192,-0.355,0.15,
1193,-0.325,0.14,
1194,-0.305,0.115,
1195,-0.3,0.115,
1196,-0.29,0.11,
1197,-0.28,0.085,
1198,-0.285,0.075,
1199,-0.285,0.055,
1200,-0.27,0.055,
1201,-0.27,0.04,
1202,-0.26,0.055,
1203,-0.26,0.05,
1204,-0.25,0.055,
1205,-0.23,0.055,
1206,-0.23,0.04,
1207,-0.22,0.045,
1208,-0.215,0.035,
1209,-0.22,0.025,
1210,-0.22,0.03,
1211,-0.22,0.03,
1212,-0.235,0.015,
1213,-0.235,0.02,
1214,-0.235,0.035,
1215,-0.22,0.035,
1216,-0.2,0.05,
1217,-0.195,0.045,
1218,-0.19,0.035,
1219,-0.185,0.035,
1220,-0.185,0.03,
1221,-0.18,0.025,
1222,-0.18,0.02,
1223,-0.2,0.015,
1224,-0.19,0.005,
1225,-0.19,0.01,
1226,-0.19,0.015,
1227,-0.165,0.02,
1228,-0.155,0.025,
1229,-0.15,0.03,
1230,-0.135,0.02,
1231,-0.145,0.02,
1232,-0.14,0.01,
1233,-0.14,0.005,
1234,-0.13,-0.005,
1235,-0.125,-0.005,
1236,-0.125,-0.01,
1237,-0.115,-0.01,
1238,-0.105,0.0,
1239,-0.105,0.0,
1240,-0.095,0.0,
1241,-0.07,0.005,
1242,-0.07,-0.005,
1243,-0.06,0.0,
1244,-0.055,-0.01,
1245,-0.045,-0.015,
1246,-0.045,-0.02,
1247,-0.04,-0.04,
1248,-0.04,-0.04,
1249,-0.03,-0.035,
1250,-0.015,-0.04,
1251,-0.005,-0.03,
1252,0.01,-0.025,
1253,0.015,-0.025,
1254,0.035,-0.035,
1255,0.035,-0.04,
1256,0.045,-0.035,
1257,0.065,-0.06,
1258,0.055,-0.07,
1259,0.07,-0.06,
1260,0.075,-0.08,
1261,0.095,-0.07,
1262,0.115,-0.08,
1263,0.125,-0.07,
1264,0.15,-0.085,
1265,0.16,-0.07,
1266,0.18,-0.08,
1267,0.19,-0.08,
1268,0.195,-0.09,
1269,0.215,-0.1,
1270,0.2,-0.11,
1271,0.215,-0.12,
1272,0.225,-0.115,
1273,0.24,-0.125,
1274,0.245,-0.115,
1275,0.26,-0.115,
1276,0.26,-0.105,
1277,0.285,-0.11,
1278,0.29,-0.11,
1279,0.3,-0.125,
1280,0.31,-0.125,
1281,0.315,-0.13,
1282,0.315,-0.125,
1283,0.31,-0.13,
1284,0.325,-0.13,
1285,0.315,-0.135,
1286,0.31,-0.115,
1287,0.33,-0.12,
1288,0.335,-0.115,
1289,0.35,-0.1,
1290,0.355,-0.1,
1291,0.355,-0.09,
1292,0.35,-0.09,
1293,0.34,-0.095,
1294,0.33,-0.09,
1295,0.31,-0.095,
1296,0.295,-0.08,
1297,0.28,-0.075,
1298,0.275,-0.06,
1299,0.255,-0.055,
1300,0.245,-0.025,
1301,0.245,-0.01,
1302,0.23,-0.01,
1303,0.21,-0.005,
1304,0.185,-0.005,
1305,0.16,0.0,
1306,0.13,0.01,
1307,0.11,0.015,
1308,0.085,0.025,
1309,0.06,0.025,
1310,0.045,0.04,
1311,0.04,0.06,
1312,0.025,0.08,
1313,0.01,0.08,
1314,0.005,0.095,
1315,-0.015,0.09,
1316,-0.03,0.095,
1317,-0.045,0.1,
1318,-0.07,0.095,
1319,-0.09,0.08,
1320,-0.105,0.1,
1321,-0.115,0.095,
1322,-0.13,0.095,
1323,-0.13,0.12,
1324,-0.14,0.12,
1325,-0.15,0.125,
1326,-0.15,0.125,
1327,-0.14,0.125,
1328,-0.135,0.12,
1329,-0.145,0.115,
1330,-0.155,0.125,
1331,-0.155,0.11,
1332,-0.17,0.115,
1333,-0.185,0.12,
1334,-0.175,0.12,
1335,-0.18,0.125,
1336,-0.185,0.125,
1337,-0.16,0.145,
1338,-0.15,0.145,
1339,-0.16,0.14,
1340,-0.155,0.145,
1341,-0.15,0.135,
1342,-0.165,0.13,
1343,-0.165,0.115,
1344,-0.165,0.125,
1345,-0.175,0.13,
1346,-0.175,0.14,
1347,-0.165,0.15,
1348,-0.17,0.145,
1349,-0.165,0.15,
1350,-0.155,0.145,
1351,-0.14,0.14,
1352,-0.14,0.145,
1353,-0.14,0.135,
1354,-0.155,0.135,
1355,-0.14,0.125,
1356,-0.15,0.13,
1357,-0.16,0.125,
1358,-0.165,0.14,
1359,-0.15,0.14,
1360,-0.15,0.15,
1361,-0.14,0.14,
1362,-0.14,0.14,
1363,-0.145,0.145,
1364,-0.16,0.135,
1365,-0.165,0.135,
1366,-0.165,0.12,
1367,-0.16,0.125,
1368,-0.17,0.115,
1369,-0.16,0.125,
1370,-0.17,0.13,
1371,-0.165,0.13,
1372,-0.175,0.135,
1373,-0.16,0.14,
1374,-0.16,0.135,
1375,-0.175,0.14,
1376,-0.165,0.135,
1377,-0.165,0.135,
1378,-0.17,0.115,
1379,-0.185,0.11,
1380,-0.195,0.1,
1381,-0.2,0.1,
1382,-0.195,0.125,
1383,-0.195,0.13,
1384,-0.195,0.13,
1385,-0.185,0.135,
1386,-0.185,0.125,
1387,-0.18,0.14,
1388,-0.18,0.13,
1389,-0.185,0.12,
1390,-0.195,0.105,
1391,-0.205,0.11,
1392,-0.205,0.1,
1393,-0.215,0.105,
1394,-0.215,0.105,
1395,-0.215,0.12,
1396,-0.22,0.125,
1397,-0.2,0.14,
1398,-0.195,0.125,
1399,-0.195,0.115,
1400,-0.195,0.125,
1401,-0.195,0.12,
1402,-0.205,0.115,
1403,-0.21,0.115,
1404,-0.22,0.115,
1405,-0.22,0.11,
1406,-0.225,0.12,
1407,-0.225,0.12,
1408,-0.23,0.12,
1409,-0.215,0.13,
1410,-0.21,0.135,
1411,-0.205,0.125,
1412,-0.215,0.13,
1413,-0.21,0.115,
1414,-0.215,0.11,
1415,-0.225,0.115,
1416,-0.235,0.11,
1417,-0.23,0.11,
1418,-0.23,0.105,
1419,-0.22,0.105,
1420,-0.22,0.12,
1421,-0.21,0.125,
1422,-0.2,0.11,
1423,-0.205,0.135,
1424,-0.19,0.12,
1425,-0.22,0.11,
1426,-0.21,0.11,
1427,-0.215,0.105,
1428,-0.215,0.12,
1429,-0.22,0.125,
1430,-0.22,0.14,
1431,-0.215,0.145,
1432,-0.2,0.17,
1433,-0.19,0.18,
1434,-0.18,0.195,
1435,-0.175,0.195,
1436,-0.175,0.205,
1437,-0.17,0.205,
1438,-0.16,0.21,
1439,-0.16,0.205,
1440,-0.16,0.2,
1441,-0.155,0.19,
1442,-0.15,0.19,
1443,-0.14,0.2,
1444,-0.125,0.18,
1445,-0.115,0.18,
1446,-0.095,0.175,
1447,-0.075,0.17,
1448,-0.055,0.145,
1449,-0.045,0.135,
1450,-0.03,0.115,
1451,-0.03,0.125,
1452,-0.035,0.115,
1453,-0.05,0.115,
1454,-0.05,0.125,
1455,-0.06,0.11,
1456,-0.065,0.105,
1457,-0.06,0.115,
1458,-0.07,0.105,
1459,-0.085,0.12,
1460,-0.085,0.125,
1461,-0.105,0.12,
1462,-0.12,0.115,
1463,-0.15,0.1,
1464,-0.175,0.09,
1465,-0.18,0.095,
1466,-0.21,0.09,
1467,-0.225,0.1,
1468,-0.23,0.105,
1469,-0.245,0.105,
1470,-0.225,0.105,
1471,-0.23,0.1,
1472,-0.23,0.095,
1473,-0.235,0.105,
1474,-0.24,0.09,
1475,-0.245,0.08,
1476,-0.25,0.09,
1477,-0.25,0.085,
1478,-0.25,0.1,
1479,-0.245,0.11,
1480,-0.255,0.11,
1481,-0.24,0.115,
1482,-0.235,0.12,
1483,-0.235,0.115,
1484,-0.23,0.105,
1485,-0.245,0.105,
1486,-0.25,0.1,
1487,-0.245,0.09,
1488,-0.255,0.095,
1489,-0.255,0.09,
1490,-0.26,0.105,
1491,-0.245,0.105,
1492,-0.24,0.12,
1493,-0.235,0.135,
1494,-0.235,0.14,
1495,-0.235,0.145,
1496,-0.235,0.165,
1497,-0.25,0.195,
1498,-0.28,0.23,
1499,-0.325,0.24,
1500,-0.375,0.25,
1501,-0.43,0.245,
1502,-0.495,0.235,
1503,-0.525,0.21,
1504,-0.49,0.165,
1505,-0.36,0.13,
1506,-0.135,0.06,
1507,0.16,0.01,
1508,0.515,-0.025,
1509,0.89,-0.06,
1510,1.22,-0.06,
1511,1.465,-0.075,
1512,1.545,-0.065,R
1513,1.43,-0.07,
1514,1.09,-0.05,
1515,0.62,-0.005,
1516,0.16,0.06,
1517,-0.195,0.185,
1518,-0.38,0.345,
1519,-0.45,0.51,
1520,-0.445,0.66,
1521,-0.425,0.775,
1522,-0.44,0.855,
1523,-0.52,0.905,
1524,-0.63,0.945,
1525,-0.765,0.98,
1526,-0.885,1.01,
1527,-0.995,1.035,
1528,-1.035,1.05,
1529,-1.055,1.035,
1530,-1.035,0.99,
1531,-1.005,0.935,
1532,-0.94,0.84,
1533,-0.87,0.77,
1534,-0.79,0.665,
1535,-0.7,0.555,
1536,-0.62,0.455,
1537,-0.535,0.365,
1538,-0.455,0.295,
1539,-0.395,0.24,
1540,-0.34,0.2,
1541,-0.305,0.185,
1542,-0.27,0.18,
1543,-0.27,0.165,
1544,-0.255,0.165,
1545,-0.25,0.15,
1546,-0.24,0.135,
1547,-0.245,0.12,
1548,-0.245,0.11,
1549,-0.25,0.11,
1550,-0.24,0.11,
1551,-0.235,0.115,
1552,-0.225,0.11,
1553,-0.215,0.12,
1554,-0.205,0.115,
1555,-0.205,0.1,
1556,-0.185,0.1,
1557,-0.205,0.095,
1558,-0.205,0.085,
1559,-0.205,0.07,
1560,-0.215,0.055,
1561,-0.22,0.075,
1562,-0.21,0.075,
1563,-0.19,0.085,
1564,-0.17,0.085,
1565,-0.155,0.095,
1566,-0.135,0.085,
1567,-0.15,0.09,
1568,-0.145,0.075,
1569,-0.14,0.065,
1570,-0.135,0.065,
1571,-0.145,0.055,
1572,-0.145,0.06,
1573,-0.145,0.06,
1574,-0.135,0.055,
1575,-0.145,0.06,
1576,-0.135,0.06,
1577,-0.125,0.07,
1578,-0.12,0.06,
1579,-0.12,0.05,
1580,-0.115,0.05,
1581,-0.105,0.045,
1582,-0.1,0.035,
1583,-0.1,0.025,
1584,-0.09,0.03,
1585,-0.075,0.04,
1586,-0.07,0.035,
1587,-0.075,0.04,
1588,-0.065,0.045,
1589,-0.045,0.05,
1590,-0.04,0.04,
1591,-0.04,0.035,
1592,-0.035,0.03,
1593,-0.035,0.025,
1594,-0.03,0.015,
1595,-0.025,0.01,
1596,-0.015,0.01,
1597,-0.005,0.015,
1598,0.005,0.005,
1599,0.005,0.005,
1600,0.03,0.005,
1601,0.06,0.01,
1602,0.07,0.005,
1603,0.075,0.005,
1604,0.095,0.0,
1605,0.095,-0.015,
1606,0.1,-0.035,
1607,0.12,-0.04,
1608,0.11,-0.055,
1609,0.125,-0.055,
1610,0.14,-0.06,
1611,0.165,-0.04,
1612,0.175,-0.055,
1613,0.195,-0.065,
1614,0.21,-0.065,
1615,0.22,-0.065,
1616,0.23,-0.075,
1617,0.21,-0.075,
1618,0.225,-0.085,
1619,0.25,-0.1,
1620,0.26,-0.1,
1621,0.26,-0.1,
1622,0.275,-0.09,
1623,0.285,-0.095,
1624,0.3,-0.1,
1625,0.31,-0.09,
1626,0.32,-0.09,
1627,0.325,-0.085,
1628,0.33,-0.09,
1629,0.345,-0.105,
1630,0.355,-0.115,
1631,0.365,-0.12,
1632,0.365,-0.11,
1633,0.37,-0.11,
1634,0.39,-0.11,
1635,0.41,-0.105,
1636,0.405,-0.095,
1637,0.405,-0.09,
1638,0.425,-0.075,
1639,0.4,-0.07,
1640,0.395,-0.07,
1641,0.375,-0.075,
1642,0.355,-0.075,
1643,0.32,-0.06,
1644,0.285,-0.06,
1645,0.27,-0.045,
1646,0.255,-0.04,
1647,0.255,-0.01,
1648,0.24,-0.01,
1649,0.24,0.01,
1650,0.23,0.005,
1651,0.21,0.02,
1652,0.17,0.025,
1653,0.14,0.035,
1654,0.11,0.035,
1655,0.075,0.04,
1656,0.045,0.055,
1657,0.025,0.065,
1658,0.005,0.08,
1659,0.01,0.095,
1660,-0.005,0.1,
1661,0.0,0.12,
1662,0.005,0.11,
1663,-0.015,0.12,
1664,-0.04,0.12,
1665,-0.065,0.115,
1666,-0.08,0.11,
1667,-0.095,0.11,
1668,-0.095,0.12,
1669,-0.095,0.12,
1670,-0.095,0.13,
1671,-0.1,0.14,
1672,-0.1,0.16,
1673,-0.105,0.16,
1674,-0.11,0.16,
1675,-0.13,0.175,
1676,-0.15,0.175,
1677,-0.16,0.16,
1678,-0.155,0.155,
1679,-0.165,0.165,
1680,-0.18,0.16,
1681,-0.17,0.155,
1682,-0.17,0.155,
1683,-0.15,0.165,
1684,-0.155,0.175,
1685,-0.125,0.19,
1686,-0.115,0.19,
1687,-0.12,0.18,
1688,-0.11,0.175,
1689,-0.125,0.17,
1690,-0.13,0.155,
1691,-0.16,0.155,
1692,-0.155,0.155,
1693,-0.17,0.17,
1694,-0.155,0.165,
1695,-0.155,0.17,
1696,-0.145,0.17,
1697,-0.13,0.185,
1698,-0.125,0.185,
1699,-0.13,0.185,
1700,-0.12,0.19,
1701,-0.145,0.17,
1702,-0.16,0.17,
1703,-0.155,0.15,
1704,-0.16,0.15,
1705,-0.16,0.15,
1706,-0.16,0.15,
1707,-0.15,0.15,
1708,-0.145,0.16,
1709,-0.15,0.175,
1710,-0.15,0.17,
1711,-0.15,0.165,
1712,-0.15,0.16,
1713,-0.155,0.16,
1714,-0.165,0.14,
1715,-0.17,0.145,
1716,-0.175,0.135,
1717,-0.18,0.14,
1718,-0.185,0.14,
1719,-0.195,0.15,
1720,-0.185,0.145,
1721,-0.18,0.165,
1722,-0.18,0.165,
1723,-0.18,0.16,
1724,-0.175,0.155,
1725,-0.175,0.145,
1726,-0.18,0.13,
1727,-0.185,0.14,
1728,-0.195,0.13,
1729,-0.185,0.13,
1730,-0.185,0.15,
1731,-0.195,0.145,
1732,-0.175,0.15,
1733,-0.18,0.155,
1734,-0.17,0.155,
1735,-0.19,0.15,
1736,-0.19,0.155,
1737,-0.18,0.15,
1738,-0.195,0.145,
1739,-0.22,0.145,
1740,-0.22,0.145,
1741,-0.23,0.13,
1742,-0.235,0.14,
1743,-0.225,0.15,
1744,-0.22,0.145,
1745,-0.215,0.155,
1746,-0.215,0.155,
1747,-0.21,0.15,
1748,-0.2,0.14,
1749,-0.205,0.14,
1750,-0.195,0.125,
1751,-0.195,0.125,
1752,-0.185,0.125,
1753,-0.185,0.125,
1754,-0.2,0.14,
1755,-0.195,0.16,
1756,-0.205,0.175,
1757,-0.2,0.19,
1758,-0.19,0.195,
1759,-0.195,0.19,
1760,-0.2,0.21,
1761,-0.195,0.205,
1762,-0.185,0.2,
1763,-0.18,0.205,
1764,-0.16,0.205,
1765,-0.135,0.2,
1766,-0.135,0.195,
1767,-0.12,0.18,
1768,-0.115,0.195,
1769,-0.12,0.195,
1770,-0.115,0.205,
1771,-0.11,0.19,
1772,-0.11,0.195,
1773,-0.09,0.18,
1774,-0.075,0.155,
1775,-0.055,0.145,
1776,-0.055,0.14,
1777,-0.04,0.155,
1778,-0.04,0.15,
1779,-0.03,0.15,
1780,-0.02,0.155,
1781,-0.02,0.155,
1782,-0.035,0.145,
1783,-0.06,0.135,
1784,-0.075,0.135,
1785,-0.085,0.145,
1786,-0.105,0.135,
1787,-0.12,0.135,
1788,-0.15,0.125,
1789,-0.175,0.135,
1790,-0.185,0.13,
1791,-0.205,0.13,
1792,-0.225,0.13,
1793,-0.23,0.14,
1794,-0.23,0.14,
1795,-0.215,0.135,
1796,-0.215,0.135,
1797,-0.205,0.12,
1798,-0.21,0.12,
1799,-0.225,0.11,
1800,-0.24,0.115,
1801,-0.265,0.12,
1802,-0.265,0.115,
1803,-0.265,0.125,
1804,-0.26,0.14,
1805,-0.245,0.14,
1806,-0.22,0.14,
1807,-0.225,0.15,
1808,-0.225,0.15,
1809,-0.235,0.135,
1810,-0.255,0.13,
1811,-0.265,0.125,
1812,-0.27,0.13,
1813,-0.27,0.125,
1814,-0.255,0.135,
1815,-0.245,0.145,
1816,-0.235,0.145,
1817,-0.22,0.155,
1818,-0.215,0.17,
1819,-0.23,0.185,
1820,-0.22,0.21,
1821,-0.25,0.24,
1822,-0.29,0.245,
1823,-0.355,0.24,
1824,-0.435,0.235,
1825,-0.48,0.205,
1826,-0.47,0.155,
1827,-0.325,0.08,
1828,-0.08,0.03,
1829,0.285,-0.005,
1830,0.7,-0.03,
1831,1.095,-0.005,
1832,1.415,0.035,
1833,1.57,0.065,R
1834,1.48,0.09,
1835,1.125,0.095,
1836,0.56,0.095,
1837,0.01,0.165,
1838,-0.415,0.27,
1839,-0.625,0.4,
1840,-0.66,0.565,
1841,-0.615,0.71,
1842,-0.565,0.82,
1843,-0.575,0.9,
1844,-0.605,0.955,
1845,-0.7,0.99,
1846,-0.82,1.015,
1847,-0.91,1.03,
1848,-0.97,1.035,
1849,-0.995,1.025,
1850,-0.995,0.99,
1851,-0.955,0.93,
1852,-0.88,0.88,
1853,-0.785,0.815,
1854,-0.685,0.715,
1855,-0.585,0.595,
1856,-0.5,0.49,
1857,-0.43,0.375,
1858,-0.375,0.27,
1859,-0.32,0.195,
1860,-0.295,0.16,
1861,-0.265,0.15,
1862,-0.245,0.165,
1863,-0.23,0.17,
1864,-0.21,0.175,
1865,-0.205,0.16,
1866,-0.19,0.15,
1867,-0.18,0.155,
1868,-0.185,0.14,
1869,-0.19,0.105,
1870,-0.195,0.09,
1871,-0.2,0.09,
1872,-0.195,0.09,
1873,-0.18,0.1,
1874,-0.165,0.105,
1875,-0.15,0.11,
1876,-0.12,0.105,
1877,-0.125,0.105,
1878,-0.11,0.11,
1879,-0.12,0.115,
1880,-0.135,0.11,
1881,-0.145,0.09,
1882,-0.155,0.08,
1883,-0.17,0.07,
1884,-0.165,0.055,
1885,-0.145,0.065,
1886,-0.12,0.065,
1887,-0.095,0.075,
1888,-0.08,0.085,
1889,-0.075,0.085,
1890,-0.065,0.105,
1891,-0.08,0.095,
1892,-0.09,0.09,
1893,-0.11,0.07,
1894,-0.115,0.07,
1895,-0.12,0.06,
1896,-0.12,0.055,
1897,-0.1,0.065,
1898,-0.085,0.075,
1899,-0.075,0.08,
1900,-0.05,0.075,
1901,-0.025,0.085,
1902,-0.01,0.085,
1903,-0.01,0.08,
1904,-0.015,0.07,
1905,-0.025,0.055,
1906,-0.02,0.05,
1907,-0.03,0.04,
1908,-0.025,0.035,
1909,-0.01,0.04,
1910,-0.005,0.035,
1911,-0.005,0.035,
1912,0.005,0.035,
1913,0.02,0.055,
1914,0.05,0.045,
1915,0.065,0.04,
1916,0.09,0.025,
1917,0.095,0.025,
1918,0.085,0.005,
1919,0.075,-0.005,
1920,0.065,-0.005,
1921,0.07,-0.015,
1922,0.075,-0.005,
1923,0.08,-0.005,
1924,0.1,-0.005,
1925,0.11,0.0,
1926,0.14,-0.005,
1927,0.15,-0.01,
1928,0.165,-0.025,
1929,0.175,-0.03,
1930,0.185,-0.045,
1931,0.19,-0.055,
1932,0.195,-0.06,
1933,0.2,-0.07,
1934,0.205,-0.075,
1935,0.215,-0.07,
1936,0.23,-0.06,
1937,0.245,-0.055,
1938,0.265,-0.045,
1939,0.28,-0.06,
1940,0.285,-0.055,
1941,0.285,-0.075,
1942,0.285,-0.085,
1943,0.295,-0.095,
1944,0.305,-0.11,
1945,0.305,-0.09,
1946,0.33,-0.09,
1947,0.335,-0.085,
1948,0.36,-0.085,
1949,0.355,-0.065,
1950,0.375,-0.06,
1951,0.38,-0.06,
1952,0.38,-0.065,
1953,0.37,-0.065,
1954,0.355,-0.06,
1955,0.34,-0.065,
1956,0.32,-0.055,
1957,0.32,-0.045,
1958,0.29,-0.04,
1959,0.3,-0.01,
1960,0.29,-0.005,
1961,0.275,0.005,
1962,0.265,0.025,
1963,0.25,0.035,
1964,0.235,0.03,
1965,0.2,0.045,
1966,0.175,0.045,
1967,0.165,0.055,
1968,0.135,0.065,
1969,0.115,0.075,
1970,0.095,0.095,
1971,0.065,0.105,
1972,0.05,0.11,
1973,0.03,0.125,
1974,0.03,0.135,
1975,0.01,0.135,
1976,-0.005,0.14,
1977,-0.005,0.145,
1978,-0.025,0.145,
1979,-0.05,0.15,
1980,-0.06,0.135,
1981,-0.065,0.155,
1982,-0.08,0.15,
1983,-0.085,0.175,
1984,-0.09,0.185,
1985,-0.09,0.185,
1986,-0.1,0.18,
1987,-0.095,0.18,
1988,-0.1,0.19,
1989,-0.105,0.18,
1990,-0.115,0.175,
1991,-0.115,0.165,
1992,-0.125,0.155,
1993,-0.125,0.16,
1994,-0.115,0.165,
1995,-0.13,0.18,
1996,-0.125,0.19,
1997,-0.11,0.19,
1998,-0.11,0.18,
1999,-0.105,0.18,
2000,-0.1,0.185,
2001,-0.105,0.18,
2002,-0.1,0.17,
2003,-0.1,0.165,
2004,-0.11,0.16,
2005,-0.105,0.155,
2006,-0.105,0.16,
2007,-0.095,0.16,
2008,-0.105,0.17,
2009,-0.1,0.17,
2010,-0.095,0.165,
2011,-0.09,0.17,
2012,-0.09,0.16,
2013,-0.075,0.16,
2014,-0.08,0.145,
2015,-0.08,0.145,
2016,-0.095,0.135,
2017,-0.1,0.13,
2018,-0.1,0.13,
2019,-0.105,0.145,
2020,-0.105,0.145,
2021,-0.095,0.165,
2022,-0.095,0.17,
2023,-0.095,0.155,
2024,-0.11,0.14,
2025,-0.11,0.145,
2026,-0.13,0.14,
2027,-0.14,0.14,
2028,-0.15,0.145,
2029,-0.15,0.155,
2030,-0.14,0.145,
2031,-0.145,0.14,
2032,-0.135,0.155,
2033,-0.14,0.16,
2034,-0.135,0.17,
2035,-0.135,0.155,
2036,-0.15,0.15,
2037,-0.155,0.14,
2038,-0.165,0.145,
2039,-0.155,0.125,
2040,-0.17,0.14,
2041,-0.17,0.14,
2042,-0.18,0.14,
2043,-0.175,0.14,
2044,-0.195,0.14,
2045,-0.175,0.14,
2046,-0.16,0.15,
2047,-0.155,0.145,
2048,-0.15,0.15,
2049,-0.155,0.15,
2050,-0.16,0.135,
2051,-0.17,0.12,
2052,-0.18,0.115,
2053,-0.175,0.125,
2054,-0.18,0.135,
2055,-0.18,0.135,
2056,-0.18,0.135,
2057,-0.175,0.15,
2058,-0.17,0.15,
2059,-0.17,0.15,
2060,-0.17,0.14,
2061,-0.17,0.14,
2062,-0.175,0.15,
2063,-0.18,0.165,
2064,-0.175,0.17,
2065,-0.185,0.17,
2066,-0.175,0.19,
2067,-0.16,0.215,
2068,-0.155,0.22,
2069,-0.135,0.235,
2070,-0.125,0.225,
2071,-0.12,0.22,
2072,-0.115,0.21,
2073,-0.115,0.195,
2074,-0.115,0.175,
2075,-0.115,0.155,
2076,-0.095,0.15,
2077,-0.08,0.14,
2078,-0.06,0.13,
2079,-0.045,0.14,
2080,-0.02,0.14,
2081,-0.01,0.14,
2082,0.0,0.15,
2083,-0.015,0.135,""""
2084,-0.02,0.12,
2085,-0.035,0.1,
2086,-0.055,0.1,
2087,-0.075,0.085,
2088,-0.09,0.09,
2089,-0.1,0.095,
2090,-0.105,0.105,
2091,-0.115,0.115,
2092,-0.12,0.115,
2093,-0.135,0.125,
2094,-0.145,0.115,
2095,-0.17,0.09,
2096,-0.185,0.095,
2097,-0.21,0.095,
2098,-0.225,0.085,
2099,-0.235,0.075,
2100,-0.24,0.075,
2101,-0.245,0.09,
2102,-0.24,0.085,
2103,-0.235,0.095,
2104,-0.24,0.1,
2105,-0.24,0.11,
2106,-0.235,0.095,
2107,-0.24,0.095,
2108,-0.25,0.085,
2109,-0.26,0.08,
2110,-0.26,0.08,
2111,-0.265,0.08,
2112,-0.27,0.075,
2113,-0.265,0.075,
2114,-0.27,0.07,
2115,-0.26,0.085,
2116,-0.265,0.105,
2117,-0.25,0.09,
2118,-0.24,0.095,
2119,-0.25,0.1,
2120,-0.25,0.09,
2121,-0.25,0.09,
2122,-0.26,0.085,
2123,-0.265,0.085,
2124,-0.27,0.08,
2125,-0.27,0.08,
2126,-0.275,0.085,
2127,-0.265,0.09,
2128,-0.255,0.105,
2129,-0.25,0.115,
2130,-0.25,0.115,
2131,-0.265,0.105,
2132,-0.245,0.105,
2133,-0.245,0.105,
2134,-0.25,0.095,
2135,-0.275,0.09,
2136,-0.265,0.09,
2137,-0.275,0.085,
2138,-0.27,0.1,
2139,-0.26,0.105,
2140,-0.255,0.1,
2141,-0.25,0.105,
2142,-0.26,0.105,
2143,-0.25,0.105,
2144,-0.25,0.11,
2145,-0.255,0.095,
2146,-0.26,0.095,
2147,-0.265,0.085,
2148,-0.265,0.08,
2149,-0.275,0.085,
2150,-0.275,0.095,
2151,-0.275,0.095,
2152,-0.27,0.095,
2153,-0.26,0.1,
2154,-0.255,0.11,
2155,-0.25,0.11,
2156,-0.25,0.12,
2157,-0.265,0.1,
2158,-0.26,0.1,
2159,-0.275,0.085,
2160,-0.27,0.085,
2161,-0.26,0.095,
2162,-0.27,0.095,
2163,-0.255,0.115,
2164,-0.26,0.11,
2165,-0.255,0.11,
2166,-0.24,0.1,
2167,-0.245,0.11,
2168,-0.24,0.11,
2169,-0.245,0.095,
2170,-0.25,0.11,
2171,-0.255,0.09,
2172,-0.255,0.09,
2173,-0.25,0.09,
2174,-0.26,0.1,
2175,-0.26,0.1,
2176,-0.26,0.1,
2177,-0.255,0.115,
2178,-0.245,0.125,
2179,-0.25,0.105,
2180,-0.245,0.105,
2181,-0.245,0.105,
2182,-0.245,0.11,
2183,-0.25,0.1,
2184,-0.255,0.09,
2185,-0.255,0.085,
2186,-0.26,0.095,
2187,-0.265,0.1,
2188,-0.26,0.11,
2189,-0.25,0.13,
2190,-0.23,0.115,
2191,-0.23,0.11,
2192,-0.225,0.095,
2193,-0.245,0.105,
2194,-0.24,0.09,
2195,-0.245,0.095,
2196,-0.24,0.1,
2197,-0.245,0.09,
2198,-0.24,0.08,
2199,-0.24,0.09,
2200,-0.23,0.1,
2201,-0.225,0.105,
2202,-0.225,0.105,
2203,-0.22,0.105,
2204,-0.215,0.095,
2205,-0.22,0.09,
2206,-0.21,0.09,
2207,-0.22,0.095,
2208,-0.225,0.085,
2209,-0.225,0.085,
2210,-0.21,0.08,
2211,-0.21,0.085,
2212,-0.215,0.095,
2213,-0.2,0.11,
2214,-0.195,0.12,
2215,-0.19,0.11,
2216,-0.19,0.115,
2217,-0.19,0.095,
2218,-0.195,0.095,
2219,-0.215,0.085,
2220,-0.205,0.09,
2221,-0.205,0.095,
2222,-0.205,0.09,
2223,-0.195,0.095,
2224,-0.2,0.11,
2225,-0.185,0.115,
2226,-0.19,0.115,
2227,-0.195,0.115,
2228,-0.18,0.12,
2229,-0.18,0.1,
2230,-0.175,0.09,
2231,-0.18,0.09,
2232,-0.2,0.09,
2233,-0.19,0.095,
2234,-0.195,0.085,
2235,-0.19,0.1,
2236,-0.175,0.115,
2237,-0.165,0.115,
2238,-0.165,0.11,
2239,-0.165,0.12,
2240,-0.17,0.11,
2241,-0.17,0.105,
2242,-0.175,0.105,
2243,-0.18,0.085,
2244,-0.18,0.09,
2245,-0.18,0.1,
2246,-0.19,0.095,
2247,-0.17,0.095,
2248,-0.185,0.105,
2249,-0.18,0.1,
2250,-0.18,0.11,
2251,-0.185,0.11,
2252,-0.18,0.125,
2253,-0.165,0.105,
2254,-0.18,0.105,
2255,-0.18,0.1,
2256,-0.175,0.085,
2257,-0.18,0.095,
2258,-0.185,0.09,
2259,-0.185,0.095,
2260,-0.17,0.095,
2261,-0.165,0.1,
2262,-0.16,0.095,
2263,-0.165,0.115,
2264,-0.15,0.095,
2265,-0.17,0.09,
2266,-0.185,0.095,
2267,-0.185,0.085,
2268,-0.18,0.08,
2269,-0.175,0.085,
2270,-0.175,0.1,
2271,-0.165,0.09,
2272,-0.165,0.1,
2273,-0.155,0.105,
2274,-0.14,0.105,
2275,-0.155,0.1,
2276,-0.155,0.1,
2277,-0.15,0.1,
2278,-0.155,0.1,
2279,-0.155,0.08,
2280,-0.16,0.08,
2281,-0.17,0.085,
2282,-0.17,0.085,
2283,-0.165,0.095,
2284,-0.16,0.105,
2285,-0.16,0.1,
2286,-0.145,0.12,
2287,-0.145,0.12,
2288,-0.145,0.12,
2289,-0.155,0.1,
2290,-0.155,0.09,
2291,-0.155,0.085,
2292,-0.17,0.08,
2293,-0.16,0.09,
2294,-0.17,0.1,
2295,-0.17,0.095,
2296,-0.15,0.1,
2297,-0.16,0.11,
2298,-0.155,0.115,
2299,-0.15,0.12,
2300,-0.14,0.11,
2301,-0.145,0.11,
2302,-0.14,0.1,
2303,-0.14,0.095,
2304,-0.155,0.095,
2305,-0.16,0.1,
2306,-0.155,0.09,
2307,-0.155,0.1,
2308,-0.15,0.105,
2309,-0.14,0.11,
2310,-0.135,0.11,
2311,-0.12,0.115,
2312,-0.13,0.11,
2313,-0.14,0.09,
2314,-0.135,0.085,
2315,-0.155,0.085,
2316,-0.15,0.085,
2317,-0.15,0.095,
2318,-0.14,0.085,
2319,-0.15,0.085,
2320,-0.135,0.1,
2321,-0.135,0.095,
2322,-0.115,0.105,
2323,-0.115,0.11,
2324,-0.12,0.105,
2325,-0.115,0.105,
2326,-0.115,0.095,
2327,-0.13,0.095,
2328,-0.125,0.085,
2329,-0.125,0.085,
2330,-0.125,0.085,
2331,-0.125,0.1,
2332,-0.13,0.115,
2333,-0.125,0.115,
2334,-0.105,0.125,
2335,-0.105,0.12,
2336,-0.12,0.125,
2337,-0.11,0.1,
2338,-0.115,0.1,
2339,-0.125,0.09,
2340,-0.135,0.09,
2341,-0.13,0.095,
2342,-0.125,0.09,
2343,-0.13,0.095,
2344,-0.125,0.1,
2345,-0.125,0.11,
2346,-0.1,0.11,
2347,-0.11,0.11,
2348,-0.11,0.11,
2349,-0.11,0.11,
2350,-0.11,0.1,
2351,-0.115,0.095,
2352,-0.12,0.09,
2353,-0.125,0.09,
2354,-0.14,0.095,
2355,-0.115,0.1,
2356,-0.115,0.1,
2357,-0.12,0.115,
2358,-0.11,0.1,
2359,-0.11,0.115,
2360,-0.1,0.095,
2361,-0.115,0.105,
2362,-0.12,0.1,
2363,-0.125,0.1,
2364,-0.12,0.095,
2365,-0.12,0.085,
2366,-0.12,0.085,
2367,-0.11,0.105,
2368,-0.105,0.105,
2369,-0.105,0.1,
2370,-0.1,0.11,
2371,-0.095,0.105,
2372,-0.095,0.1,
2373,-0.09,0.11,
2374,-0.095,0.095,
2375,-0.095,0.085,
2376,-0.105,0.075,
2377,-0.11,0.085,
2378,-0.1,0.08,
2379,-0.11,0.09,
2380,-0.1,0.095,
2381,-0.1,0.11,
2382,-0.085,0.125,
2383,-0.085,0.125,
2384,-0.085,0.13,
2385,-0.075,0.125,
2386,-0.08,0.14,
2387,-0.08,0.14,
2388,-0.075,0.16,
2389,-0.065,0.175,
2390,-0.06,0.195,
2391,-0.04,0.21,
2392,-0.04,0.2,
2393,-0.035,0.195,
2394,-0.01,0.2,
2395,-0.005,0.18,
2396,-0.005,0.17,
2397,0.005,0.135,
2398,0.015,0.13,
2399,0.035,0.12,
2400,0.045,0.11,
2401,0.05,0.115,
2402,0.09,0.115,
2403,0.1,0.11,
2404,0.1,0.11,
2405,0.105,0.115,
2406,0.105,0.12,
2407,0.1,0.095,
2408,0.085,0.11,
2409,0.065,0.08,
2410,0.04,0.09,
2411,0.03,0.09,
2412,0.025,0.08,
2413,-0.005,0.095,
2414,-0.02,0.09,
2415,-0.025,0.09,
2416,-0.03,0.09,
2417,-0.055,0.09,
2418,-0.06,0.085,
2419,-0.085,0.095,
2420,-0.085,0.085,
2421,-0.09,0.085,
2422,-0.095,0.085,
2423,-0.115,0.065,
2424,-0.115,0.075,
2425,-0.125,0.06,
2426,-0.12,0.075,
2427,-0.115,0.085,
2428,-0.11,0.085,
2429,-0.12,0.095,
2430,-0.11,0.095,
2431,-0.125,0.09,
2432,-0.125,0.085,
2433,-0.11,0.08,
2434,-0.11,0.085,
2435,-0.125,0.075,
2436,-0.125,0.085,
2437,-0.12,0.075,
2438,-0.125,0.08,
2439,-0.125,0.085,
2440,-0.115,0.085,
2441,-0.12,0.1,
2442,-0.1,0.12,
2443,-0.105,0.12,
2444,-0.11,0.145,
2445,-0.12,0.16,
2446,-0.145,0.18,
2447,-0.19,0.2,
2448,-0.23,0.205,
2449,-0.3,0.195,
2450,-0.365,0.185,
2451,-0.38,0.17,
2452,-0.315,0.15,
2453,-0.15,0.105,
2454,0.12,0.055,
2455,0.455,0.02,
2456,0.825,-0.02,
2457,1.2,-0.065,
2458,1.52,-0.105,
2459,1.755,-0.15,
2460,1.845,-0.195,R
2461,1.755,-0.22,
2462,1.455,-0.26,
2463,1.03,-0.26,
2464,0.6,-0.25,
2465,0.27,-0.215,
2466,0.085,-0.18,
2467,0.02,-0.125,
2468,0.02,-0.075,
2469,0.075,-0.045,
2470,0.1,-0.015,
2471,0.11,-0.03,
2472,0.08,-0.015,
2473,0.03,0.015,
2474,-0.015,0.055,
2475,-0.07,0.085,
2476,-0.105,0.125,
2477,-0.115,0.145,
2478,-0.1,0.15,
2479,-0.11,0.155,
2480,-0.105,0.145,
2481,-0.11,0.135,
2482,-0.115,0.125,
2483,-0.13,0.12,
2484,-0.14,0.125,
2485,-0.15,0.12,
2486,-0.155,0.155,
2487,-0.16,0.15,
2488,-0.155,0.16,
2489,-0.155,0.17,
2490,-0.145,0.175,
2491,-0.145,0.16,
2492,-0.15,0.165,
2493,-0.16,0.155,
2494,-0.17,0.155,
2495,-0.165,0.155,
2496,-0.175,0.15,
2497,-0.18,0.155,
2498,-0.18,0.145,
2499,-0.18,0.165,
2500,-0.165,0.17,
2501,-0.155,0.17,
2502,-0.145,0.185,
2503,-0.145,0.175,
2504,-0.135,0.17,
2505,-0.135,0.175,
2506,-0.15,0.175,
2507,-0.155,0.16,
2508,-0.165,0.155,
2509,-0.16,0.15,
2510,-0.155,0.16,
2511,-0.15,0.165,
2512,-0.145,0.175,
2513,-0.135,0.185,
2514,-0.14,0.19,
2515,-0.135,0.185,
2516,-0.14,0.175,
2517,-0.13,0.185,
2518,-0.13,0.165,
2519,-0.135,0.16,
2520,-0.135,0.155,
2521,-0.135,0.155,
2522,-0.14,0.175,
2523,-0.145,0.18,
2524,-0.14,0.185,
2525,-0.125,0.195,
2526,-0.115,0.195,
2527,-0.11,0.195,
2528,-0.12,0.195,
2529,-0.125,0.185,
2530,-0.125,0.19,
2531,-0.13,0.175,
2532,-0.13,0.18,
2533,-0.115,0.18,
2534,-0.105,0.185,
2535,-0.1,0.19,
2536,-0.1,0.205,
2537,-0.095,0.205,
2538,-0.08,0.21,
2539,-0.07,0.195,
2540,-0.075,0.21,
2541,-0.07,0.205,
2542,-0.08,0.185,
2543,-0.07,0.185,
2544,-0.085,0.175,
2545,-0.075,0.19,
2546,-0.075,0.19,
2547,-0.075,0.2,
2548,-0.055,0.21,
2549,-0.06,0.21,
2550,-0.045,0.22,
2551,-0.035,0.22,
2552,-0.03,0.22,
2553,-0.035,0.215,
2554,-0.045,0.21,
2555,-0.04,0.2,
2556,-0.04,0.195,
2557,-0.055,0.195,
2558,-0.055,0.22,
2559,-0.055,0.215,
2560,-0.05,0.225,
2561,-0.04,0.235,
2562,-0.03,0.23,
2563,-0.01,0.225,
2564,-0.01,0.215,
2565,-0.01,0.205,
2566,-0.015,0.215,
2567,-0.01,0.205,
2568,-0.02,0.2,
2569,-0.015,0.205,
2570,-0.01,0.2,
2571,-0.005,0.21,
2572,0.015,0.21,
2573,0.035,0.215,
2574,0.045,0.22,
2575,0.065,0.205,
2576,0.07,0.205,
2577,0.085,0.2,
2578,0.09,0.195,
2579,0.11,0.175,
2580,0.115,0.18,
2581,0.105,0.17,
2582,0.12,0.165,
2583,0.13,0.17,
2584,0.14,0.165,
2585,0.165,0.175,
2586,0.185,0.17,
2587,0.2,0.165,
2588,0.21,0.155,
2589,0.22,0.15,
2590,0.23,0.135,
2591,0.255,0.125,
2592,0.255,0.12,
2593,0.275,0.12,
2594,0.285,0.12,
2595,0.295,0.125,
2596,0.3,0.135,
2597,0.325,0.125,
2598,0.33,0.135,
2599,0.345,0.12,
2600,0.34,0.12,
2601,0.335,0.105,
2602,0.33,0.095,
2603,0.31,0.09,
2604,0.295,0.09,
2605,0.285,0.095,
2606,0.28,0.1,
2607,0.28,0.1,
2608,0.285,0.095,
2609,0.29,0.115,
2610,0.29,0.12,
2611,0.27,0.115,
2612,0.255,0.13,
2613,0.24,0.115,
2614,0.22,0.12,
2615,0.195,0.1,
2616,0.18,0.1,
2617,0.145,0.11,
2618,0.145,0.11,
2619,0.13,0.11,
2620,0.14,0.125,
2621,0.145,0.13,
2622,0.125,0.145,
2623,0.125,0.14,
2624,0.115,0.15,
2625,0.12,0.14,
2626,0.11,0.15,
2627,0.085,0.125,
2628,0.08,0.115,
2629,0.055,0.14,
2630,0.045,0.14,
2631,0.045,0.145,
2632,0.04,0.17,
2633,0.05,0.175,
2634,0.055,0.185,
2635,0.04,0.175,
2636,0.035,0.17,
2637,0.035,0.165,
2638,0.02,0.16,
2639,0.01,0.15,
2640,-0.005,0.145,
2641,-0.015,0.15,
2642,-0.01,0.155,
2643,-0.005,0.165,
2644,0.005,0.165,
2645,0.01,0.165,
2646,0.035,0.175,
2647,0.035,0.165,
2648,0.015,0.175,
2649,0.0,0.16,
2650,0.01,0.17,
2651,0.0,0.15,
2652,-0.015,0.145,
2653,-0.02,0.14,
2654,-0.025,0.15,
2655,-0.02,0.155,
2656,-0.005,0.16,
2657,0.0,0.165,
2658,-0.005,0.17,
2659,-0.005,0.17,
2660,-0.01,0.165,
2661,-0.035,0.155,
2662,-0.02,0.145,
2663,-0.02,0.14,
2664,-0.025,0.135,
2665,-0.035,0.145,
2666,-0.035,0.14,
2667,-0.04,0.145,
2668,-0.03,0.14,
2669,-0.035,0.17,
2670,-0.015,0.155,
2671,-0.035,0.16,
2672,-0.04,0.16,
2673,-0.055,0.15,
2674,-0.085,0.15,
2675,-0.075,0.14,
2676,-0.065,0.125,
2677,-0.065,0.125,
2678,-0.055,0.125,
2679,-0.055,0.135,
2680,-0.065,0.145,
2681,-0.065,0.15,
2682,-0.065,0.16,
2683,-0.08,0.15,
2684,-0.1,0.155,
2685,-0.095,0.135,
2686,-0.1,0.12,
2687,-0.1,0.115,
2688,-0.09,0.1,
2689,-0.095,0.105,
2690,-0.085,0.115,
2691,-0.09,0.13,
2692,-0.1,0.12,
2693,-0.09,0.125,
2694,-0.095,0.14,
2695,-0.1,0.155,
2696,-0.085,0.14,
2697,-0.095,0.13,
2698,-0.09,0.135,
2699,-0.095,0.14,
2700,-0.095,0.135,
2701,-0.12,0.13,
2702,-0.1,0.145,
2703,-0.105,0.125,
2704,-0.105,0.145,
2705,-0.105,0.135,
2706,-0.11,0.15,
2707,-0.105,0.135,
2708,-0.12,0.15,
2709,-0.11,0.145,
2710,-0.11,0.16,
2711,-0.11,0.155,
2712,-0.105,0.175,
2713,-0.115,0.185,
2714,-0.125,0.195,
2715,-0.125,0.195,
2716,-0.1,0.21,
2717,-0.095,0.22,
2718,-0.07,0.225,
2719,-0.045,0.22,
2720,-0.03,0.22,
2721,-0.005,0.195,
2722,-0.015,0.185,
2723,-0.025,0.18,
2724,-0.03,0.175,
2725,-0.035,0.16,
2726,-0.02,0.155,
2727,0.005,0.16,
2728,0.025,0.165,
2729,0.06,0.165,
2730,0.075,0.165,
2731,0.09,0.155,
2732,0.085,0.165,
2733,0.06,0.145,
2734,0.035,0.125,
2735,0.01,0.11,
2736,-0.01,0.1,
2737,-0.025,0.105,
2738,-0.04,0.14,
2739,-0.045,0.145,
2740,-0.035,0.16,
2741,-0.045,0.155,
2742,-0.05,0.15,
2743,-0.06,0.14,
2744,-0.085,0.135,
2745,-0.1,0.115,
2746,-0.135,0.11,
2747,-0.145,0.115,
2748,-0.155,0.115,
2749,-0.17,0.11,
2750,-0.18,0.11,
2751,-0.18,0.13,
2752,-0.18,0.125,
2753,-0.17,0.125,
2754,-0.175,0.125,
2755,-0.165,0.135,
2756,-0.175,0.145,
2757,-0.165,0.135,
2758,-0.18,0.13,
2759,-0.185,0.12,
2760,-0.2,0.11,
2761,-0.205,0.11,
2762,-0.21,0.12,
2763,-0.215,0.13,
2764,-0.205,0.14,
2765,-0.185,0.135,
2766,-0.18,0.145,
2767,-0.165,0.155,
2768,-0.16,0.14,
2769,-0.16,0.13,
2770,-0.17,0.12,
2771,-0.19,0.125,
2772,-0.185,0.125,
2773,-0.205,0.135,
2774,-0.19,0.145,
2775,-0.195,0.185,
2776,-0.2,0.23,
2777,-0.22,0.255,
2778,-0.26,0.26,
2779,-0.335,0.255,
2780,-0.405,0.235,
2781,-0.45,0.2,
2782,-0.4,0.13,
2783,-0.26,0.07,
2784,-0.02,-0.015,
2785,0.32,-0.05,
2786,0.715,-0.055,
2787,1.13,-0.04,
2788,1.455,0.015,
2789,1.64,0.065,R
2790,1.6,0.09,
2791,1.29,0.1,
2792,0.775,0.095,
2793,0.215,0.135,
2794,-0.235,0.225,
2795,-0.49,0.375,
2796,-0.575,0.525,
2797,-0.565,0.67,
2798,-0.525,0.77,
2799,-0.51,0.865,
2800,-0.535,0.945,
2801,-0.605,0.995,
2802,-0.685,1.03,
2803,-0.79,1.055,
2804,-0.865,1.08,
2805,-0.92,1.075,
2806,-0.935,1.055,
2807,-0.93,1.01,
2808,-0.9,0.945,
2809,-0.85,0.88,
2810,-0.77,0.805,
2811,-0.68,0.72,
2812,-0.575,0.62,
2813,-0.475,0.515,
2814,-0.4,0.415,
2815,-0.325,0.32,
2816,-0.29,0.265,
2817,-0.23,0.22,
2818,-0.205,0.19,
2819,-0.2,0.18,
2820,-0.19,0.175,
2821,-0.19,0.165,
2822,-0.2,0.165,
2823,-0.185,0.155,
2824,-0.18,0.15,
2825,-0.165,0.14,
2826,-0.145,0.15,
2827,-0.135,0.14,
2828,-0.13,0.145,
2829,-0.12,0.12,
2830,-0.13,0.12,
2831,-0.13,0.115,
2832,-0.125,0.095,
2833,-0.13,0.105,
2834,-0.125,0.105,
2835,-0.11,0.11,
2836,-0.095,0.12,
2837,-0.09,0.12,
2838,-0.09,0.125,
2839,-0.08,0.105,
2840,-0.085,0.095,
2841,-0.08,0.085,
2842,-0.08,0.085,
2843,-0.095,0.08,
2844,-0.085,0.07,
2845,-0.095,0.08,
2846,-0.085,0.075,
2847,-0.085,0.08,
2848,-0.075,0.09,
2849,-0.05,0.1,
2850,-0.04,0.1,
2851,-0.045,0.1,
2852,-0.03,0.09,
2853,-0.03,0.08,
2854,-0.035,0.08,
2855,-0.055,0.07,
2856,-0.08,0.05,
2857,-0.06,0.06,
2858,-0.045,0.065,
2859,-0.03,0.065,
2860,-0.02,0.055,
2861,-0.005,0.065,
2862,0.02,0.065,
2863,0.025,0.065,
2864,0.045,0.065,
2865,0.04,0.06,
2866,0.05,0.04,
2867,0.055,0.035,
2868,0.05,0.025,
2869,0.04,0.04,
2870,0.06,0.035,
2871,0.05,0.035,
2872,0.07,0.035,
2873,0.1,0.035,
2874,0.125,0.035,
2875,0.135,0.03,
2876,0.145,0.025,
2877,0.17,0.015,
2878,0.16,-0.005,
2879,0.16,-0.015,
2880,0.16,-0.01,
2881,0.15,-0.035,
2882,0.175,-0.035,
2883,0.185,-0.045,
2884,0.215,-0.04,
2885,0.22,-0.04,
2886,0.25,-0.04,
2887,0.27,-0.035,
2888,0.29,-0.04,
2889,0.3,-0.04,
2890,0.315,-0.065,
2891,0.325,-0.08,
2892,0.32,-0.08,
2893,0.3,-0.08,
2894,0.315,-0.085,
2895,0.32,-0.065,
2896,0.33,-0.075,
2897,0.35,-0.07,
2898,0.36,-0.05,
2899,0.365,-0.055,
2900,0.365,-0.075,
2901,0.375,-0.08,
2902,0.37,-0.085,
2903,0.385,-0.11,
2904,0.375,-0.11,
2905,0.38,-0.12,
2906,0.4,-0.105,
2907,0.39,-0.09,
2908,0.4,-0.065,
2909,0.4,-0.06,
2910,0.385,-0.035,
2911,0.385,-0.045,
2912,0.37,-0.045,
2913,0.36,-0.03,
2914,0.35,-0.045,
2915,0.335,-0.04,
2916,0.32,-0.03,
2917,0.3,-0.01,
2918,0.285,-0.005,
2919,0.27,0.015,
2920,0.245,0.015,
2921,0.235,0.045,
2922,0.21,0.045,
2923,0.2,0.075,
2924,0.175,0.085,
2925,0.155,0.095,
2926,0.115,0.09,
2927,0.095,0.1,
2928,0.07,0.085,
2929,0.055,0.11,
2930,0.05,0.135,
2931,0.04,0.125,
2932,0.03,0.15,
2933,0.01,0.16,
2934,0.0,0.17,
2935,-0.02,0.18,
2936,-0.04,0.185,
2937,-0.045,0.165,
2938,-0.05,0.165,
2939,-0.06,0.175,
2940,-0.075,0.17,
2941,-0.105,0.175,
2942,-0.12,0.185,
2943,-0.125,0.195,
2944,-0.105,0.205,
2945,-0.1,0.21,
2946,-0.08,0.23,
2947,-0.065,0.23,
2948,-0.075,0.225,
2949,-0.09,0.215,
2950,-0.11,0.21,
2951,-0.12,0.19,
2952,-0.13,0.18,
2953,-0.13,0.19,
2954,-0.13,0.19,
2955,-0.12,0.19,
2956,-0.115,0.205,
2957,-0.11,0.215,
2958,-0.105,0.215,
2959,-0.085,0.22,
2960,-0.08,0.215,
2961,-0.075,0.205,
2962,-0.08,0.195,
2963,-0.09,0.19,
2964,-0.09,0.18,
2965,-0.105,0.18,
2966,-0.095,0.195,
2967,-0.1,0.19,
2968,-0.095,0.18,
2969,-0.08,0.195,
2970,-0.08,0.2,
2971,-0.08,0.2,
2972,-0.08,0.2,
2973,-0.08,0.185,
2974,-0.085,0.185,
2975,-0.085,0.17,
2976,-0.095,0.165,
2977,-0.095,0.17,
2978,-0.105,0.175,
2979,-0.105,0.17,
2980,-0.1,0.185,
2981,-0.095,0.19,
2982,-0.09,0.195,
2983,-0.08,0.18,
2984,-0.095,0.17,
2985,-0.095,0.17,
2986,-0.1,0.18,
2987,-0.11,0.17,
2988,-0.11,0.155,
2989,-0.115,0.165,
2990,-0.13,0.165,
2991,-0.13,0.18,
2992,-0.115,0.18,
2993,-0.12,0.18,
2994,-0.12,0.2,
2995,-0.105,0.185,
2996,-0.115,0.185,
2997,-0.13,0.185,
2998,-0.13,0.185,
2999,-0.14,0.17,
3000,-0.13,0.165,
3001,-0.135,0.16,
3002,-0.14,0.15,
3003,-0.145,0.17,
3004,-0.135,0.165,
3005,-0.14,0.185,
3006,-0.13,0.185,
3007,-0.13,0.185,
3008,-0.14,0.175,
3009,-0.145,0.175,
3010,-0.15,0.16,
3011,-0.15,0.17,
3012,-0.145,0.16,
3013,-0.165,0.17,
3014,-0.155,0.18,
3015,-0.145,0.2,
3016,-0.145,0.205,
3017,-0.13,0.23,
3018,-0.115,0.24,
3019,-0.105,0.24,
3020,-0.095,0.25,
3021,-0.085,0.245,
3022,-0.08,0.235,
3023,-0.08,0.22,
3024,-0.085,0.195,
3025,-0.08,0.205,
3026,-0.07,0.205,
3027,-0.055,0.21,
3028,-0.035,0.2,
3029,-0.015,0.2,
3030,0.005,0.205,
3031,0.025,0.185,
3032,0.035,0.185,
3033,0.035,0.18,
3034,0.035,0.17,
3035,0.01,0.14,
3036,-0.005,0.13,
3037,-0.02,0.115,
3038,-0.025,0.13,
3039,-0.035,0.135,
3040,-0.04,0.15,
3041,-0.05,0.16,
3042,-0.06,0.165,
3043,-0.085,0.15,
3044,-0.105,0.15,
3045,-0.12,0.125,
3046,-0.14,0.13,
3047,-0.17,0.11,
3048,-0.18,0.115,
3049,-0.195,0.12,
3050,-0.2,0.115,
3051,-0.2,0.125,
3052,-0.2,0.135,
3053,-0.205,0.14,
3054,-0.19,0.14,
3055,-0.195,0.13,
3056,-0.2,0.13,
3057,-0.21,0.12,
3058,-0.215,0.12,
3059,-0.21,0.105,
3060,-0.225,0.11,
3061,-0.23,0.12,
3062,-0.225,0.12,
3063,-0.235,0.13,
3064,-0.22,0.115,
3065,-0.225,0.135,
3066,-0.21,0.14,
3067,-0.21,0.13,
3068,-0.2,0.13,
3069,-0.21,0.135,
3070,-0.22,0.14,
3071,-0.215,0.125,
3072,-0.22,0.145,
3073,-0.225,0.15,
3074,-0.225,0.175,
3075,-0.24,0.215,
3076,-0.265,0.24,
3077,-0.295,0.265,
3078,-0.36,0.26,
3079,-0.43,0.255,
3080,-0.46,0.21,
3081,-0.41,0.145,
3082,-0.23,0.06,
3083,0.04,-0.005,
3084,0.425,-0.05,
3085,0.835,-0.07,
3086,1.23,-0.05,
3087,1.495,-0.015,
3088,1.54,0.01,R
3089,1.315,0.03,
3090,0.835,0.06,
3091,0.31,0.13,
3092,-0.13,0.255,
3093,-0.39,0.395,
3094,-0.5,0.565,
3095,-0.515,0.72,
3096,-0.51,0.835,
3097,-0.545,0.91,
3098,-0.61,0.97,
3099,-0.7,1.015,
3100,-0.81,1.065,
3101,-0.895,1.08,
3102,-0.945,1.08,
3103,-0.945,1.05,
3104,-0.93,0.98,
3105,-0.87,0.875,
3106,-0.825,0.785,
3107,-0.745,0.675,
3108,-0.655,0.575,
3109,-0.555,0.46,
3110,-0.465,0.37,
3111,-0.41,0.275,
3112,-0.335,0.24,
3113,-0.295,0.2,
3114,-0.26,0.195,
3115,-0.235,0.17,
3116,-0.23,0.16,
3117,-0.22,0.15,
3118,-0.225,0.13,
3119,-0.205,0.125,
3120,-0.21,0.125,
3121,-0.205,0.11,
3122,-0.19,0.105,
3123,-0.195,0.105,
3124,-0.18,0.105,
3125,-0.175,0.1,
3126,-0.165,0.095,
3127,-0.155,0.11,
3128,-0.155,0.1,
3129,-0.155,0.09,
3130,-0.165,0.09,
3131,-0.15,0.07,
3132,-0.155,0.065,
3133,-0.17,0.07,
3134,-0.16,0.055,
3135,-0.16,0.065,
3136,-0.14,0.065,
3137,-0.12,0.075,
3138,-0.125,0.08,
3139,-0.125,0.07,
3140,-0.13,0.065,
3141,-0.11,0.055,
3142,-0.115,0.055,
3143,-0.11,0.05,
3144,-0.11,0.04,
3145,-0.115,0.04,
3146,-0.13,0.035,
3147,-0.12,0.04,
3148,-0.105,0.05,
3149,-0.07,0.045,
3150,-0.065,0.055,
3151,-0.055,0.045,
3152,-0.065,0.045,
3153,-0.06,0.05,
3154,-0.05,0.03,
3155,-0.05,0.035,
3156,-0.045,0.025,
3157,-0.04,0.02,
3158,-0.045,0.015,
3159,-0.03,0.02,
3160,-0.02,0.025,
3161,-0.01,0.035,
3162,0.005,0.04,
3163,0.015,0.025,
3164,0.035,0.025,
3165,0.03,0.015,
3166,0.035,0.01,
3167,0.03,0.01,
3168,0.04,-0.005,
3169,0.05,-0.02,
3170,0.06,-0.025,
3171,0.055,-0.005,
3172,0.085,-0.01,
3173,0.095,-0.015,
3174,0.11,-0.01,
3175,0.125,-0.03,
3176,0.115,-0.025,
3177,0.135,-0.025,
3178,0.14,-0.035,
3179,0.14,-0.055,
3180,0.15,-0.065,
3181,0.16,-0.07,
3182,0.165,-0.07,
3183,0.185,-0.06,
3184,0.2,-0.065,
3185,0.215,-0.06,
3186,0.235,-0.06,
3187,0.25,-0.06,
3188,0.26,-0.075,
3189,0.265,-0.08,
3190,0.275,-0.075,
3191,0.275,-0.08,
3192,0.265,-0.085,
3193,0.255,-0.105,
3194,0.28,-0.095,
3195,0.29,-0.085,
3196,0.3,-0.09,
3197,0.31,-0.08,
3198,0.32,-0.08,
3199,0.345,-0.09,
3200,0.355,-0.07,
3201,0.355,-0.075,
3202,0.35,-0.07,
3203,0.37,-0.09,
3204,0.365,-0.085,
3205,0.355,-0.075,
3206,0.35,-0.075,
3207,0.365,-0.055,
3208,0.365,-0.05,
3209,0.37,-0.045,
3210,0.375,-0.025,
3211,0.36,-0.02,
3212,0.34,-0.02,
3213,0.325,-0.005,
3214,0.325,-0.015,
3215,0.295,0.005,
3216,0.275,0.01,
3217,0.245,0.005,
3218,0.225,0.025,
3219,0.22,0.045,
3220,0.19,0.065,
3221,0.175,0.08,
3222,0.155,0.085,
3223,0.14,0.085,
3224,0.11,0.1,
3225,0.09,0.105,
3226,0.07,0.095,
3227,0.055,0.09,
3228,0.025,0.09,
3229,0.0,0.1,
3230,-0.02,0.095,
3231,-0.025,0.11,
3232,-0.045,0.12,
3233,-0.05,0.125,
3234,-0.06,0.13,
3235,-0.065,0.13,
3236,-0.065,0.13,
3237,-0.065,0.14,
3238,-0.08,0.13,
3239,-0.09,0.125,
3240,-0.1,0.125,
3241,-0.11,0.12,
3242,-0.115,0.125,
3243,-0.105,0.135,
3244,-0.105,0.135,
3245,-0.105,0.14,
3246,-0.095,0.14,
3247,-0.09,0.15,
3248,-0.08,0.155,
3249,-0.09,0.155,
3250,-0.095,0.145,
3251,-0.105,0.135,
3252,-0.11,0.13,
3253,-0.12,0.125,
3254,-0.115,0.13,
3255,-0.105,0.13,
3256,-0.11,0.14,
3257,-0.09,0.15,
3258,-0.09,0.155,
3259,-0.08,0.155,
3260,-0.08,0.145,
3261,-0.065,0.14,
3262,-0.085,0.14,
3263,-0.075,0.13,
3264,-0.08,0.12,
3265,-0.08,0.115,
3266,-0.09,0.12,
3267,-0.085,0.115,
3268,-0.07,0.115,
3269,-0.08,0.125,
3270,-0.06,0.14,
3271,-0.06,0.14,
3272,-0.055,0.135,
3273,-0.07,0.145,
3274,-0.07,0.13,
3275,-0.075,0.125,
3276,-0.075,0.12,
3277,-0.09,0.1,
3278,-0.09,0.105,
3279,-0.1,0.115,
3280,-0.08,0.12,
3281,-0.095,0.13,
3282,-0.075,0.135,
3283,-0.085,0.14,
3284,-0.105,0.13,
3285,-0.1,0.125,
3286,-0.085,0.11,
3287,-0.105,0.11,
3288,-0.115,0.105,
3289,-0.115,0.1,
3290,-0.12,0.11,
3291,-0.12,0.12,
3292,-0.12,0.125,
3293,-0.115,0.14,
3294,-0.11,0.13,
3295,-0.12,0.13,
3296,-0.115,0.12,
3297,-0.12,0.11,
3298,-0.125,0.115,
3299,-0.135,0.105,
3300,-0.14,0.105,
3301,-0.155,0.095,
3302,-0.16,0.105,
3303,-0.15,0.11,
3304,-0.155,0.115,
3305,-0.145,0.12,
3306,-0.15,0.13,
3307,-0.14,0.12,
3308,-0.15,0.105,
3309,-0.145,0.12,
3310,-0.145,0.1,
3311,-0.16,0.11,
3312,-0.165,0.1,
3313,-0.165,0.105,
3314,-0.155,0.105,
3315,-0.165,0.12,
3316,-0.16,0.125,
3317,-0.145,0.13,
3318,-0.15,0.14,
3319,-0.14,0.13,
3320,-0.145,0.14,
3321,-0.16,0.135,
3322,-0.165,0.115,
3323,-0.16,0.105,
3324,-0.165,0.125,
3325,-0.175,0.115,
3326,-0.17,0.105,
3327,-0.16,0.115,
3328,-0.17,0.115,
3329,-0.155,0.135,
3330,-0.155,0.135,
3331,-0.14,0.13,
3332,-0.15,0.13,
3333,-0.145,0.115,
3334,-0.145,0.12,
3335,-0.145,0.115,
3336,-0.165,0.115,
3337,-0.16,0.12,
3338,-0.165,0.115,
3339,-0.155,0.13,
3340,-0.165,0.14,
3341,-0.155,0.155,
3342,-0.145,0.155,
3343,-0.135,0.18,
3344,-0.135,0.19,
3345,-0.13,0.195,
3346,-0.115,0.19,
3347,-0.115,0.205,
3348,-0.12,0.21,
3349,-0.115,0.21,
3350,-0.105,0.205,
3351,-0.1,0.205,
3352,-0.09,0.205,
3353,-0.08,0.2,
3354,-0.065,0.205,
3355,-0.055,0.205,
3356,-0.05,0.195,
3357,-0.04,0.17,
3358,-0.025,0.155,
3359,-0.015,0.15,
3360,0.005,0.14,
3361,0.02,0.14,
3362,0.02,0.145,
3363,0.035,0.14,
3364,0.025,0.14,
3365,0.015,0.135,
3366,0.01,0.14,
3367,0.01,0.135,
3368,-0.01,0.125,
3369,-0.02,0.13,
3370,-0.03,0.125,
3371,-0.05,0.125,
3372,-0.05,0.125,
3373,-0.065,0.115,
3374,-0.095,0.115,
3375,-0.115,0.115,
3376,-0.12,0.115,
3377,-0.135,0.125,
3378,-0.15,0.135,
3379,-0.15,0.115,
3380,-0.15,0.115,
3381,-0.165,0.115,
3382,-0.18,0.11,
3383,-0.205,0.095,
3384,-0.19,0.105,
3385,-0.205,0.095,
3386,-0.21,0.095,
3387,-0.215,0.11,
3388,-0.21,0.11,
3389,-0.195,0.115,
3390,-0.2,0.13,
3391,-0.19,0.12,
3392,-0.19,0.12,
3393,-0.185,0.12,
3394,-0.21,0.12,
3395,-0.2,0.1,
3396,-0.205,0.1,
3397,-0.205,0.1,
3398,-0.21,0.11,
3399,-0.21,0.12,
3400,-0.2,0.13,
3401,-0.2,0.135,
3402,-0.195,0.155,
3403,-0.18,0.165,
3404,-0.195,0.18,
3405,-0.195,0.21,
3406,-0.215,0.235,
3407,-0.24,0.265,
3408,-0.295,0.27,
3409,-0.355,0.26,
3410,-0.43,0.245,
3411,-0.46,0.22,
3412,-0.425,0.185,
3413,-0.295,0.125,
3414,-0.045,0.08,
3415,0.29,0.035,
3416,0.68,0.0,
3417,1.07,-0.015,
3418,1.39,-0.035,
3419,1.59,-0.045,
3420,1.605,-0.045,R
3421,1.38,-0.04,
3422,0.96,-0.01,
3423,0.45,0.045,
3424,0.01,0.16,
3425,-0.28,0.33,
3426,-0.41,0.52,
3427,-0.44,0.685,
3428,-0.43,0.83,
3429,-0.44,0.905,
3430,-0.495,0.965,
3431,-0.595,1.015,
3432,-0.73,1.045,
3433,-0.855,1.06,
3434,-0.95,1.07,
3435,-1.0,1.07,
3436,-1.0,1.035,
3437,-0.965,0.975,
3438,-0.915,0.9,
3439,-0.82,0.815,
3440,-0.735,0.705,
3441,-0.64,0.6,
3442,-0.535,0.48,
3443,-0.47,0.375,
3444,-0.39,0.3,
3445,-0.35,0.245,
3446,-0.305,0.22,
3447,-0.27,0.205,
3448,-0.245,0.205,
3449,-0.225,0.205,
3450,-0.215,0.195,
3451,-0.21,0.195,
3452,-0.21,0.19,
3453,-0.195,0.17,
3454,-0.185,0.15,
3455,-0.195,0.14,
3456,-0.185,0.13,
3457,-0.195,0.125,
3458,-0.185,0.13,
3459,-0.175,0.14,
3460,-0.17,0.135,
3461,-0.16,0.14,
3462,-0.16,0.135,
3463,-0.14,0.145,
3464,-0.145,0.125,
3465,-0.14,0.13,
3466,-0.145,0.12,
3467,-0.155,0.095,
3468,-0.145,0.095,
3469,-0.16,0.11,
3470,-0.17,0.09,
3471,-0.155,0.095,
3472,-0.14,0.105,
3473,-0.135,0.11,
3474,-0.135,0.11,
3475,-0.12,0.115,
3476,-0.11,0.12,
3477,-0.115,0.115,
3478,-0.125,0.11,
3479,-0.11,0.105,
3480,-0.12,0.09,
3481,-0.12,0.08,
3482,-0.11,0.095,
3483,-0.11,0.09,
3484,-0.1,0.1,
3485,-0.09,0.11,
3486,-0.085,0.11,
3487,-0.065,0.095,
3488,-0.07,0.105,
3489,-0.07,0.09,
3490,-0.075,0.08,
3491,-0.08,0.075,
3492,-0.075,0.075,
3493,-0.06,0.075,
3494,-0.05,0.065,
3495,-0.04,0.08,
3496,-0.035,0.085,
3497,-0.02,0.08,
3498,-0.015,0.085,
3499,0.005,0.09,
3500,0.015,0.085,
3501,0.025,0.07,
3502,0.015,0.07,
3503,0.025,0.06,
3504,0.03,0.045,
3505,0.03,0.04,
3506,0.035,0.04,
3507,0.05,0.06,
3508,0.055,0.055,
3509,0.065,0.05,
3510,0.085,0.06,
3511,0.11,0.05,
3512,0.115,0.05,
3513,0.125,0.03,
3514,0.13,0.04,
3515,0.13,0.025,
3516,0.135,0.0,
3517,0.14,0.015,
3518,0.155,-0.005,
3519,0.17,0.0,
3520,0.185,0.005,
3521,0.2,0.01,
3522,0.225,0.0,
3523,0.235,-0.005,
3524,0.245,0.0,
3525,0.265,-0.015,
3526,0.265,-0.02,
3527,0.265,-0.04,
3528,0.28,-0.035,
3529,0.285,-0.045,
3530,0.3,-0.05,
3531,0.32,-0.045,
3532,0.335,-0.05,
3533,0.35,-0.035,
3534,0.35,-0.025,
3535,0.37,-0.025,
3536,0.38,-0.035,
3537,0.385,-0.04,
3538,0.385,-0.035,
3539,0.39,-0.05,
3540,0.38,-0.04,
3541,0.39,-0.05,
3542,0.395,-0.035,
3543,0.4,-0.03,
3544,0.405,-0.015,
3545,0.415,-0.03,
3546,0.43,-0.02,
3547,0.435,-0.03,
3548,0.43,-0.015,
3549,0.425,-0.02,
3550,0.425,-0.015,
3551,0.41,-0.02,
3552,0.395,-0.015,
3553,0.38,-0.01,
3554,0.37,0.005,
3555,0.36,0.01,
3556,0.34,0.025,
3557,0.34,0.025,
3558,0.325,0.055,
3559,0.305,0.065,
3560,0.29,0.07,
3561,0.265,0.065,
3562,0.25,0.065,
3563,0.225,0.07,
3564,0.185,0.075,
3565,0.17,0.085,
3566,0.14,0.09,
3567,0.11,0.11,
3568,0.105,0.125,
3569,0.085,0.13,
3570,0.09,0.165,
3571,0.09,0.16,
3572,0.075,0.16,
3573,0.06,0.165,
3574,0.035,0.155,
3575,0.025,0.17,
3576,0.005,0.16,
3577,-0.02,0.165,
3578,-0.025,0.175,
3579,-0.035,0.175,
3580,-0.04,0.185,
3581,-0.035,0.205,
3582,-0.03,0.21,
3583,-0.035,0.205,
3584,-0.035,0.205,
3585,-0.04,0.2,
3586,-0.055,0.195,
3587,-0.06,0.195,
3588,-0.075,0.19,
3589,-0.095,0.19,
3590,-0.095,0.195,
3591,-0.1,0.19,
3592,-0.095,0.2,
3593,-0.09,0.205,
3594,-0.07,0.225,
3595,-0.065,0.22,
3596,-0.07,0.21,
3597,-0.07,0.215,
3598,-0.075,0.205,
3599,-0.08,0.19,
3600,-0.095,0.185,
3601,-0.1,0.2,
3602,-0.095,0.18,
3603,-0.09,0.185,
3604,-0.095,0.19,
3605,-0.095,0.2,
3606,-0.075,0.22,
3607,-0.075,0.215,
3608,-0.08,0.205,
3609,-0.06,0.2,
3610,-0.065,0.205,
3611,-0.07,0.195,
3612,-0.075,0.19,
3613,-0.095,0.19,
3614,-0.085,0.185,
3615,-0.08,0.18,
3616,-0.085,0.19,
3617,-0.085,0.2,
3618,-0.085,0.2,
3619,-0.08,0.205,
3620,-0.085,0.2,
3621,-0.09,0.19,
3622,-0.1,0.19,
3623,-0.095,0.18,
3624,-0.115,0.17,
3625,-0.125,0.17,
3626,-0.12,0.17,
3627,-0.125,0.18,
3628,-0.12,0.185,
3629,-0.12,0.185,
3630,-0.125,0.195,
3631,-0.11,0.19,
3632,-0.11,0.19,
3633,-0.11,0.185,
3634,-0.12,0.185,
3635,-0.13,0.17,
3636,-0.14,0.165,
3637,-0.155,0.165,
3638,-0.165,0.16,
3639,-0.15,0.165,
3640,-0.135,0.165,
3641,-0.14,0.18,
3642,-0.125,0.175,
3643,-0.13,0.185,
3644,-0.14,0.18,
3645,-0.145,0.17,
3646,-0.16,0.18,
3647,-0.175,0.165,
3648,-0.175,0.16,
3649,-0.16,0.165,
3650,-0.15,0.16,
3651,-0.145,0.16,
3652,-0.14,0.17,
3653,-0.14,0.18,
3654,-0.135,0.195,
3655,-0.135,0.185,
3656,-0.125,0.175,
3657,-0.145,0.175,
3658,-0.165,0.165,
3659,-0.18,0.16,
3660,-0.195,0.155,
3661,-0.195,0.155,
3662,-0.18,0.135,
3663,-0.185,0.155,
3664,-0.175,0.165,
3665,-0.185,0.17,
3666,-0.17,0.17,
3667,-0.175,0.165,
3668,-0.18,0.17,
3669,-0.165,0.165,
3670,-0.165,0.17,
3671,-0.165,0.17,
3672,-0.165,0.17,
3673,-0.175,0.17,
3674,-0.175,0.16,
3675,-0.175,0.165,
3676,-0.165,0.175,
3677,-0.165,0.195,
3678,-0.175,0.21,
3679,-0.165,0.215,
3680,-0.16,0.235,
3681,-0.135,0.23,
3682,-0.145,0.245,
3683,-0.13,0.24,
3684,-0.13,0.235,
3685,-0.14,0.24,
3686,-0.13,0.225,
3687,-0.13,0.235,
3688,-0.13,0.235,
3689,-0.115,0.23,
3690,-0.075,0.23,
3691,-0.06,0.235,
3692,-0.04,0.22,
3693,-0.02,0.21,
3694,-0.01,0.185,
3695,-0.005,0.17,
3696,-0.005,0.175,
3697,-0.02,0.165,
3698,-0.015,0.165,
3699,-0.02,0.175,
3700,-0.015,0.175,
3701,-0.005,0.165,
3702,-0.01,0.18,
3703,-0.005,0.185,
3704,-0.025,0.205,
3705,-0.045,0.19,
3706,-0.075,0.2,
3707,-0.09,0.175,
3708,-0.12,0.165,
3709,-0.125,0.155,
3710,-0.14,0.15,
3711,-0.17,0.155,
3712,-0.175,0.16,
3713,-0.185,0.165,
3714,-0.18,0.165,
3715,-0.175,0.165,
3716,-0.175,0.16,
3717,-0.18,0.155,
3718,-0.19,0.14,
3719,-0.21,0.14,
3720,-0.215,0.13,
3721,-0.215,0.13,
3722,-0.225,0.135,
3723,-0.22,0.135,
3724,-0.215,0.155,
3725,-0.205,0.155,
3726,-0.2,0.16,
3727,-0.21,0.16,
3728,-0.21,0.155,
3729,-0.22,0.165,
3730,-0.24,0.16,
3731,-0.23,0.14,
3732,-0.235,0.14,
3733,-0.22,0.13,
3734,-0.225,0.14,
3735,-0.205,0.165,
3736,-0.195,0.165,
3737,-0.185,0.175,
3738,-0.19,0.205,
3739,-0.19,0.225,
3740,-0.2,0.26,
3741,-0.22,0.28,
3742,-0.255,0.3,
3743,-0.315,0.305,
3744,-0.37,0.29,
3745,-0.435,0.245,
3746,-0.455,0.215,
3747,-0.395,0.15,
3748,-0.215,0.095,
3749,0.055,0.03,
3750,0.415,0.0,
3751,0.82,-0.02,
3752,1.18,-0.01,
3753,1.46,0.03,
3754,1.575,0.045,R
3755,1.465,0.075,
3756,1.105,0.075,
3757,0.58,0.09,
3758,0.075,0.155,
3759,-0.315,0.27,
3760,-0.51,0.435,
3761,-0.55,0.595,
3762,-0.515,0.75,
3763,-0.49,0.855,
3764,-0.5,0.945,
3765,-0.56,0.995,
3766,-0.655,1.015,
3767,-0.77,1.05,
3768,-0.87,1.06,
3769,-0.94,1.08,
3770,-0.97,1.075,
3771,-0.975,1.03,
3772,-0.93,0.995,
3773,-0.875,0.94,
3774,-0.81,0.89,
3775,-0.73,0.81,
3776,-0.65,0.715,
3777,-0.575,0.605,
3778,-0.495,0.49,
3779,-0.425,0.38,
3780,-0.36,0.3,
3781,-0.325,0.245,
3782,-0.28,0.21,
3783,-0.245,0.215,
3784,-0.23,0.21,
3785,-0.21,0.205,
3786,-0.205,0.215,
3787,-0.195,0.195,
3788,-0.19,0.19,
3789,-0.18,0.17,
3790,-0.18,0.16,
3791,-0.18,0.15,
3792,-0.175,0.14,
3793,-0.175,0.12,
3794,-0.18,0.13,
3795,-0.17,0.115,
3796,-0.165,0.125,
3797,-0.14,0.14,
3798,-0.125,0.155,
3799,-0.13,0.15,
3800,-0.125,0.135,
3801,-0.115,0.135,
3802,-0.12,0.12,
3803,-0.13,0.115,
3804,-0.125,0.095,
3805,-0.14,0.105,
3806,-0.14,0.105,
3807,-0.135,0.1,
3808,-0.135,0.115,
3809,-0.13,0.11,
3810,-0.11,0.115,
3811,-0.105,0.125,
3812,-0.095,0.115,
3813,-0.075,0.12,
3814,-0.07,0.11,
3815,-0.08,0.105,
3816,-0.075,0.09,
3817,-0.085,0.095,
3818,-0.07,0.085,
3819,-0.08,0.075,
3820,-0.07,0.095,
3821,-0.075,0.115,
3822,-0.075,0.1,
3823,-0.06,0.095,
3824,-0.05,0.09,
3825,-0.03,0.1,
3826,-0.03,0.075,
3827,-0.025,0.075,
3828,-0.015,0.07,
3829,-0.01,0.07,
3830,-0.005,0.07,
3831,-0.005,0.07,
3832,0.005,0.07,
3833,0.015,0.07,
3834,0.03,0.09,
3835,0.05,0.08,
3836,0.055,0.065,
3837,0.065,0.07,
3838,0.065,0.055,
3839,0.06,0.04,
3840,0.05,0.045,
3841,0.055,0.035,
3842,0.065,0.03,
3843,0.08,0.025,
3844,0.09,0.03,
3845,0.1,0.015,
3846,0.115,0.025,
3847,0.145,0.035,
3848,0.15,0.02,
3849,0.175,0.03,
3850,0.175,0.0,
3851,0.18,0.0,
3852,0.18,-0.005,
3853,0.185,-0.01,
3854,0.19,-0.02,
3855,0.195,-0.025,
3856,0.21,-0.02,
3857,0.215,-0.02,
3858,0.24,-0.02,
3859,0.255,-0.03,
3860,0.265,-0.025,
3861,0.29,-0.045,
3862,0.295,-0.05,
3863,0.295,-0.055,
3864,0.315,-0.07,
3865,0.325,-0.065,
3866,0.335,-0.07,
3867,0.33,-0.07,
3868,0.32,-0.06,
3869,0.32,-0.055,
3870,0.335,-0.06,
3871,0.35,-0.05,
3872,0.36,-0.05,
3873,0.385,-0.045,
3874,0.395,-0.07,
3875,0.42,-0.065,
3876,0.415,-0.075,
3877,0.41,-0.075,
3878,0.41,-0.07,
3879,0.395,-0.08,
3880,0.395,-0.055,
3881,0.385,-0.045,
3882,0.385,-0.035,
3883,0.4,-0.03,
3884,0.395,-0.02,
3885,0.375,-0.01,
3886,0.355,-0.005,
3887,0.33,-0.01,
3888,0.32,0.0,
3889,0.295,0.0,
3890,0.27,0.01,
3891,0.255,0.025,
3892,0.24,0.04,
3893,0.215,0.065,
3894,0.21,0.085,
3895,0.195,0.095,
3896,0.165,0.115,
3897,0.14,0.115,
3898,0.125,0.115,
3899,0.085,0.1,
3900,0.065,0.13,
3901,0.05,0.135,
3902,0.02,0.135,
3903,0.0,0.145,
3904,-0.01,0.155,
3905,-0.015,0.165,
3906,-0.025,0.175,
3907,-0.025,0.185,
3908,-0.035,0.18,
3909,-0.05,0.19,
3910,-0.06,0.19,
3911,-0.065,0.18,
3912,-0.08,0.17,
3913,-0.1,0.175,
3914,-0.09,0.185,
3915,-0.105,0.185,
3916,-0.105,0.185,
3917,-0.1,0.205,
3918,-0.09,0.21,
3919,-0.08,0.215,
3920,-0.09,0.22,
3921,-0.1,0.22,
3922,-0.095,0.215,
3923,-0.09,0.205,
3924,-0.09,0.185,
3925,-0.08,0.18,
3926,-0.095,0.185,
3927,-0.095,0.195,
3928,-0.09,0.195,
3929,-0.085,0.195,
3930,-0.085,0.21,
3931,-0.065,0.205,
3932,-0.06,0.2,
3933,-0.05,0.205,
3934,-0.055,0.195,
3935,-0.045,0.2,
3936,-0.055,0.18,
3937,-0.06,0.185,
3938,-0.07,0.17,
3939,-0.08,0.185,
3940,-0.07,0.18,
3941,-0.06,0.185,
3942,-0.06,0.19,
3943,-0.065,0.19,
3944,-0.06,0.2,
3945,-0.065,0.2,
3946,-0.07,0.185,
3947,-0.08,0.18,
3948,-0.075,0.155,
3949,-0.075,0.17,
3950,-0.105,0.17,
3951,-0.105,0.18,
3952,-0.09,0.185,
3953,-0.085,0.19,
3954,-0.09,0.19,
3955,-0.095,0.195,
3956,-0.09,0.195,
3957,-0.1,0.195,
3958,-0.11,0.185,
3959,-0.1,0.18,
3960,-0.115,0.175,
3961,-0.11,0.165,
3962,-0.115,0.165,
3963,-0.12,0.175,
3964,-0.12,0.17,
3965,-0.115,0.185,
3966,-0.105,0.185,
3967,-0.11,0.18,
3968,-0.105,0.18,
3969,-0.105,0.19,
3970,-0.11,0.185,
3971,-0.12,0.175,
3972,-0.13,0.175,
3973,-0.14,0.165,
3974,-0.135,0.175,
3975,-0.145,0.17,
3976,-0.14,0.165,
3977,-0.14,0.18,
3978,-0.13,0.185,
3979,-0.125,0.195,
3980,-0.12,0.19,
3981,-0.115,0.2,
3982,-0.11,0.205,
3983,-0.12,0.2,
3984,-0.11,0.22,
3985,-0.115,0.215,
3986,-0.12,0.23,
3987,-0.1,0.24,
3988,-0.095,0.245,
3989,-0.075,0.245,
3990,-0.065,0.24,
3991,-0.05,0.245,
3992,-0.045,0.245,
3993,-0.04,0.235,
3994,-0.04,0.235,
3995,-0.035,0.21,
3996,-0.025,0.21,
3997,-0.01,0.195,
3998,0.01,0.19,
3999,0.025,0.185,
4000,0.035,0.185,
4001,0.045,0.195,
4002,0.05,0.19,
4003,0.045,0.2,
4004,0.04,0.185,
4005,0.025,0.18,
4006,0.015,0.16,
4007,-0.005,0.17,
4008,-0.02,0.17,
4009,-0.05,0.165,
4010,-0.065,0.155,
4011,-0.095,0.17,
4012,-0.11,0.165,
4013,-0.12,0.155,
4014,-0.125,0.165,
4015,-0.135,0.18,
4016,-0.145,0.17,
4017,-0.16,0.16,
4018,-0.18,0.16,
4019,-0.185,0.16,
4020,-0.205,0.14,
4021,-0.205,0.14,
4022,-0.205,0.14,
4023,-0.205,0.135,
4024,-0.215,0.16,
4025,-0.21,0.16,
4026,-0.195,0.16,
4027,-0.19,0.16,
4028,-0.2,0.165,
4029,-0.195,0.155,
4030,-0.2,0.16,
4031,-0.21,0.15,
4032,-0.22,0.15,
4033,-0.23,0.155,
4034,-0.24,0.15,
4035,-0.23,0.165,
4036,-0.225,0.165,
4037,-0.21,0.185,
4038,-0.215,0.18,
4039,-0.21,0.185,
4040,-0.215,0.185,
4041,-0.21,0.195,
4042,-0.2,0.205,
4043,-0.21,0.21,
4044,-0.22,0.23,
4045,-0.24,0.255,
4046,-0.28,0.29,
4047,-0.325,0.3,
4048,-0.38,0.295,
4049,-0.45,0.265,
4050,-0.445,0.22,
4051,-0.375,0.155,
4052,-0.175,0.085,
4053,0.125,0.015,
4054,0.515,-0.02,
4055,0.925,-0.01,
4056,1.29,0.0,
4057,1.52,0.05,
4058,1.525,0.06,R
4059,1.235,0.08,
4060,0.74,0.115,
4061,0.2,0.165,
4062,-0.23,0.29,
4063,-0.48,0.445,
4064,-0.555,0.615,
4065,-0.55,0.765,
4066,-0.52,0.86,
4067,-0.53,0.94,
4068,-0.585,0.975,
4069,-0.68,1.02,
4070,-0.8,1.05,
4071,-0.895,1.09,
4072,-0.96,1.1,
4073,-0.965,1.105,
4074,-0.96,1.05,
4075,-0.915,0.985,
4076,-0.855,0.895,
4077,-0.785,0.8,
4078,-0.69,0.695,
4079,-0.6,0.58,
4080,-0.52,0.47,
4081,-0.455,0.38,
4082,-0.385,0.31,
4083,-0.33,0.26,
4084,-0.29,0.23,
4085,-0.265,0.23,
4086,-0.245,0.205,
4087,-0.22,0.205,
4088,-0.21,0.205,
4089,-0.215,0.2,
4090,-0.215,0.185,
4091,-0.21,0.165,
4092,-0.195,0.155,
4093,-0.19,0.135,
4094,-0.19,0.14,
4095,-0.195,0.135,
4096,-0.19,0.13,
4097,-0.175,0.13,
4098,-0.155,0.14,
4099,-0.145,0.135,
4100,-0.145,0.14,
4101,-0.15,0.125,
4102,-0.14,0.13,
4103,-0.145,0.1,
4104,-0.155,0.095,
4105,-0.165,0.105,
4106,-0.165,0.115,
4107,-0.165,0.105,
4108,-0.15,0.115,
4109,-0.15,0.12,
4110,-0.14,0.125,
4111,-0.13,0.135,
4112,-0.12,0.125,
4113,-0.12,0.115,
4114,-0.12,0.105,
4115,-0.13,0.105,
4116,-0.12,0.09,
4117,-0.12,0.085,
4118,-0.12,0.09,
4119,-0.12,0.095,
4120,-0.105,0.09,
4121,-0.1,0.095,
4122,-0.095,0.1,
4123,-0.075,0.095,
4124,-0.065,0.095,
4125,-0.06,0.095,
4126,-0.055,0.075,
4127,-0.065,0.075,
4128,-0.06,0.065,
4129,-0.06,0.07,
4130,-0.07,0.065,
4131,-0.055,0.06,
4132,-0.04,0.065,
4133,-0.03,0.07,
4134,-0.035,0.075,
4135,0.005,0.07,
4136,0.0,0.065,
4137,-0.005,0.06,
4138,0.005,0.04,
4139,0.01,0.04,
4140,0.02,0.035,
4141,0.025,0.035,
4142,0.03,0.025,
4143,0.03,0.035,
4144,0.04,0.025,
4145,0.055,0.03,
4146,0.07,0.04,
4147,0.095,0.035,
4148,0.1,0.03,
4149,0.105,0.02,
4150,0.115,0.015,
4151,0.115,0.005,
4152,0.12,-0.015,
4153,0.13,-0.02,
4154,0.13,-0.025,
4155,0.14,-0.025,
4156,0.15,-0.02,
4157,0.175,-0.01,
4158,0.175,-0.015,
4159,0.19,-0.005,
4160,0.21,-0.02,
4161,0.235,-0.02,
4162,0.235,-0.035,
4163,0.245,-0.05,
4164,0.24,-0.065,
4165,0.235,-0.06,
4166,0.255,-0.055,
4167,0.26,-0.04,
4168,0.265,-0.03,
4169,0.28,-0.045,
4170,0.295,-0.035,
4171,0.305,-0.03,
4172,0.31,-0.035,
4173,0.32,-0.04,
4174,0.325,-0.045,
4175,0.32,-0.045,
4176,0.325,-0.05,
4177,0.33,-0.035,
4178,0.335,-0.035,
4179,0.345,-0.025,
4180,0.355,-0.02,
4181,0.36,0.0,
4182,0.35,0.005,
4183,0.355,0.01,
4184,0.34,0.025,
4185,0.335,0.03,
4186,0.32,0.025,
4187,0.3,0.03,
4188,0.28,0.03,
4189,0.255,0.055,
4190,0.245,0.05,
4191,0.23,0.07,
4192,0.215,0.09,
4193,0.195,0.095,
4194,0.17,0.115,
4195,0.165,0.11,
4196,0.135,0.13,
4197,0.115,0.13,
4198,0.095,0.14,
4199,0.08,0.14,
4200,0.045,0.145,
4201,0.005,0.15,
4202,0.005,0.15,
4203,-0.025,0.16,
4204,-0.03,0.15,
4205,-0.04,0.18,
4206,-0.05,0.195,
4207,-0.06,0.19,
4208,-0.06,0.205,
4209,-0.075,0.2,
4210,-0.075,0.21,
4211,-0.08,0.195,
4212,-0.105,0.185,
4213,-0.115,0.2,
4214,-0.125,0.185,
4215,-0.125,0.19,
4216,-0.13,0.2,
4217,-0.125,0.215,
4218,-0.12,0.215,
4219,-0.115,0.22,
4220,-0.125,0.21,
4221,-0.115,0.215,
4222,-0.1,0.195,
4223,-0.12,0.195,
4224,-0.12,0.19,
4225,-0.125,0.19,
4226,-0.125,0.19,
4227,-0.12,0.185,
4228,-0.125,0.205,
4229,-0.1,0.21,
4230,-0.095,0.205,
4231,-0.09,0.215,
4232,-0.085,0.215,
4233,-0.085,0.2,
4234,-0.09,0.215,
4235,-0.095,0.2,
4236,-0.1,0.185,
4237,-0.09,0.185,
4238,-0.09,0.185,
4239,-0.08,0.185,
4240,-0.08,0.205,
4241,-0.08,0.21,
4242,-0.085,0.21,
4243,-0.08,0.2,
4244,-0.085,0.19,
4245,-0.095,0.2,
4246,-0.085,0.205,
4247,-0.095,0.19,
4248,-0.09,0.18,
4249,-0.1,0.165,
4250,-0.105,0.18,
4251,-0.1,0.175,
4252,-0.105,0.18,
4253,-0.105,0.195,
4254,-0.105,0.2,
4255,-0.095,0.205,
4256,-0.095,0.21,
4257,-0.095,0.185,
4258,-0.1,0.195,
4259,-0.1,0.19,
4260,-0.115,0.185,
4261,-0.12,0.18,
4262,-0.13,0.175,
4263,-0.13,0.19,
4264,-0.13,0.195,
4265,-0.115,0.2,
4266,-0.125,0.205,
4267,-0.125,0.2,
4268,-0.12,0.195,
4269,-0.125,0.195,
4270,-0.125,0.195,
4271,-0.145,0.19,
4272,-0.135,0.18,
4273,-0.145,0.18,
4274,-0.15,0.175,
4275,-0.145,0.19,
4276,-0.15,0.195,
4277,-0.155,0.21,
4278,-0.135,0.215,
4279,-0.13,0.21,
4280,-0.135,0.21,
4281,-0.135,0.21,
4282,-0.135,0.185,
4283,-0.14,0.19,
4284,-0.14,0.19,
4285,-0.165,0.195,
4286,-0.17,0.185,
4287,-0.16,0.185,
4288,-0.16,0.185,
4289,-0.17,0.19,
4290,-0.165,0.205,
4291,-0.15,0.195,
4292,-0.155,0.205,
4293,-0.155,0.2,
4294,-0.15,0.185,
4295,-0.16,0.185,
4296,-0.165,0.18,
4297,-0.18,0.165,
4298,-0.17,0.165,
4299,-0.18,0.165,
4300,-0.17,0.175,
4301,-0.165,0.185,
4302,-0.165,0.19,
4303,-0.16,0.195,
4304,-0.17,0.2,
4305,-0.155,0.2,
4306,-0.15,0.2,
4307,-0.17,0.185,
4308,-0.16,0.185,
4309,-0.18,0.19,
4310,-0.18,0.185,
4311,-0.18,0.18,
4312,-0.18,0.19,
4313,-0.165,0.2,
4314,-0.16,0.215,
4315,-0.15,0.215,
4316,-0.15,0.225,
4317,-0.14,0.24,
4318,-0.14,0.25,
4319,-0.135,0.255,
4320,-0.13,0.265,
4321,-0.13,0.255,
4322,-0.13,0.27,
4323,-0.125,0.265,
4324,-0.115,0.265,
4325,-0.095,0.255,
4326,-0.08,0.25,
4327,-0.06,0.24,
4328,-0.06,0.215,
4329,-0.04,0.22,
4330,-0.01,0.2,
4331,0.005,0.19,
4332,0.02,0.175,
4333,0.025,0.17,
4334,0.015,0.16,
4335,0.01,0.165,
4336,-0.005,0.16,
4337,-0.02,0.165,
4338,-0.02,0.18,
4339,-0.04,0.175,
4340,-0.04,0.185,
4341,-0.05,0.19,
4342,-0.06,0.17,
4343,-0.085,0.17,
4344,-0.11,0.15,
4345,-0.145,0.14,
4346,-0.17,0.14,
4347,-0.185,0.155,
4348,-0.19,0.155,
4349,-0.195,0.16,
4350,-0.18,0.165,
4351,-0.18,0.17,
4352,-0.19,0.165,
4353,-0.185,0.17,
4354,-0.185,0.15,
4355,-0.2,0.15,
4356,-0.21,0.14,
4357,-0.225,0.145,
4358,-0.235,0.145,
4359,-0.225,0.155,
4360,-0.235,0.165,
4361,-0.22,0.165,
4362,-0.21,0.175,
4363,-0.205,0.18,
4364,-0.21,0.195,
4365,-0.2,0.17,
4366,-0.205,0.18,
4367,-0.21,0.165,
4368,-0.205,0.17,
4369,-0.21,0.175,
4370,-0.21,0.185,
4371,-0.22,0.225,
4372,-0.23,0.255,
4373,-0.25,0.31,
4374,-0.285,0.335,
4375,-0.345,0.33,
4376,-0.415,0.315,
4377,-0.46,0.28,
4378,-0.43,0.21,
4379,-0.325,0.145,
4380,-0.08,0.085,
4381,0.25,0.025,
4382,0.65,0.005,
4383,1.06,-0.005,
4384,1.395,0.0,
4385,1.58,0.015,
4386,1.56,0.025,R
4387,1.295,0.035,
4388,0.825,0.065,
4389,0.3,0.145,
4390,-0.105,0.285,
4391,-0.355,0.455,
4392,-0.445,0.62,
4393,-0.45,0.78,
4394,-0.455,0.885,
4395,-0.47,0.965,
4396,-0.54,1.025,
4397,-0.625,1.065,
4398,-0.765,1.09,
4399,-0.87,1.12,
4400,-0.955,1.115,
4401,-0.99,1.1,
4402,-0.995,1.03,
4403,-0.965,0.96,
4404,-0.915,0.87,
4405,-0.845,0.795,
4406,-0.75,0.69,
4407,-0.655,0.59,
4408,-0.565,0.495,
4409,-0.47,0.42,
4410,-0.39,0.36,
4411,-0.325,0.31,
4412,-0.285,0.275,
4413,-0.26,0.26,
4414,-0.245,0.235,
4415,-0.245,0.22,
4416,-0.23,0.205,
4417,-0.235,0.19,
4418,-0.23,0.205,
4419,-0.225,0.2,
4420,-0.22,0.2,
4421,-0.2,0.19,
4422,-0.2,0.195,
4423,-0.185,0.195,
4424,-0.17,0.19,
4425,-0.175,0.18,
4426,-0.17,0.155,
4427,-0.175,0.165,
4428,-0.175,0.155,
4429,-0.185,0.15,
4430,-0.185,0.14,
4431,-0.19,0.145,
4432,-0.175,0.155,
4433,-0.17,0.16,
4434,-0.165,0.165,
4435,-0.15,0.17,
4436,-0.145,0.165,
4437,-0.145,0.16,
4438,-0.15,0.155,
4439,-0.145,0.15,
4440,-0.155,0.145,
4441,-0.145,0.14,
4442,-0.145,0.14,
4443,-0.16,0.145,
4444,-0.15,0.155,
4445,-0.145,0.155,
4446,-0.135,0.155,
4447,-0.12,0.155,
4448,-0.115,0.155,
4449,-0.12,0.16,
4450,-0.115,0.15,
4451,-0.1,0.15,
4452,-0.1,0.14,
4453,-0.105,0.14,
4454,-0.115,0.125,
4455,-0.11,0.135,
4456,-0.105,0.135,
4457,-0.075,0.14,
4458,-0.075,0.13,
4459,-0.055,0.135,
4460,-0.04,0.135,
4461,-0.045,0.13,
4462,-0.04,0.125,
4463,-0.035,0.12,
4464,-0.025,0.105,
4465,-0.035,0.105,
4466,-0.035,0.1,
4467,-0.02,0.115,
4468,-0.005,0.11,
4469,0.0,0.11,
4470,0.01,0.11,
4471,0.03,0.13,
4472,0.05,0.125,
4473,0.04,0.115,
4474,0.065,0.105,
4475,0.055,0.1,
4476,0.07,0.085,
4477,0.06,0.075,
4478,0.06,0.08,
4479,0.075,0.085,
4480,0.07,0.085,
4481,0.08,0.08,
4482,0.095,0.065,
4483,0.125,0.085,
4484,0.135,0.065,
4485,0.17,0.06,
4486,0.18,0.045,
4487,0.195,0.04,
4488,0.2,0.035,
4489,0.2,0.015,
4490,0.205,0.02,
4491,0.22,0.0,
4492,0.23,0.01,
4493,0.25,0.015,
4494,0.27,0.03,
4495,0.28,0.015,
4496,0.3,0.015,
4497,0.305,0.005,
4498,0.305,0.015,
4499,0.315,-0.01,
4500,0.32,-0.005,
4501,0.325,-0.025,
4502,0.345,-0.02,
4503,0.36,-0.03,
4504,0.37,-0.01,
4505,0.375,-0.005,
4506,0.385,0.01,
4507,0.385,0.01,
4508,0.39,0.01,
4509,0.39,-0.005,
4510,0.4,-0.02,
4511,0.41,-0.01,
4512,0.41,-0.01,
4513,0.42,-0.02,
4514,0.41,0.0,
4515,0.415,0.0,
4516,0.395,0.005,
4517,0.395,0.015,
4518,0.385,0.03,
4519,0.395,0.045,
4520,0.38,0.035,
4521,0.375,0.045,
4522,0.38,0.045,
4523,0.355,0.05,
4524,0.32,0.06,
4525,0.29,0.075,
4526,0.25,0.08,
4527,0.23,0.08,
4528,0.21,0.09,
4529,0.2,0.095,
4530,0.19,0.115,
4531,0.2,0.135,
4532,0.17,0.135,
4533,0.155,0.155,
4534,0.135,0.145,
4535,0.095,0.155,
4536,0.095,0.155,
4537,0.06,0.15,
4538,0.04,0.165,
4539,0.015,0.175,
4540,0.005,0.185,
4541,-0.015,0.205,
4542,-0.035,0.21,
4543,-0.045,0.22,
4544,-0.055,0.22,
4545,-0.07,0.235,
4546,-0.08,0.215,
4547,-0.095,0.225,
4548,-0.1,0.215,
4549,-0.105,0.225,
4550,-0.12,0.23,
4551,-0.11,0.225,
4552,-0.11,0.225,
4553,-0.11,0.245,
4554,-0.12,0.255,
4555,-0.12,0.245,
4556,-0.12,0.255,
4557,-0.12,0.25,
4558,-0.12,0.245,
4559,-0.13,0.24,
4560,-0.125,0.235,
4561,-0.125,0.235,
4562,-0.125,0.235,
4563,-0.13,0.235,
4564,-0.145,0.245,
4565,-0.15,0.255,
4566,-0.14,0.255,
4567,-0.125,0.25,
4568,-0.13,0.25,
4569,-0.125,0.255,
4570,-0.13,0.255,
4571,-0.125,0.24,
4572,-0.135,0.225,
4573,-0.13,0.225,
4574,-0.125,0.23,
4575,-0.12,0.23,
4576,-0.125,0.24,
4577,-0.125,0.24,
4578,-0.13,0.245,
4579,-0.13,0.245,
4580,-0.13,0.24,
4581,-0.135,0.235,
4582,-0.14,0.24,
4583,-0.145,0.225,
4584,-0.145,0.23,
4585,-0.15,0.225,
4586,-0.155,0.22,
4587,-0.165,0.225,
4588,-0.175,0.225,
4589,-0.165,0.215,
4590,-0.15,0.23,
4591,-0.125,0.235,
4592,-0.12,0.235,
4593,-0.12,0.24,
4594,-0.12,0.23,
4595,-0.135,0.225,
4596,-0.145,0.215,
4597,-0.18,0.215,
4598,-0.18,0.21,
4599,-0.195,0.205,
4600,-0.195,0.21,
4601,-0.19,0.22,
4602,-0.185,0.22,
4603,-0.185,0.225,
4604,-0.17,0.23,
4605,-0.17,0.225,
4606,-0.17,0.225,
4607,-0.185,0.23,
4608,-0.185,0.22,
4609,-0.18,0.2,
4610,-0.19,0.19,
4611,-0.185,0.2,
4612,-0.185,0.2,
4613,-0.175,0.205,
4614,-0.185,0.22,
4615,-0.19,0.215,
4616,-0.18,0.22,
4617,-0.195,0.22,
4618,-0.195,0.22,
4619,-0.2,0.21,
4620,-0.205,0.21,
4621,-0.21,0.185,
4622,-0.23,0.195,
4623,-0.23,0.195,
4624,-0.245,0.2,
4625,-0.235,0.195,
4626,-0.22,0.21,
4627,-0.205,0.2,
4628,-0.195,0.205,
4629,-0.185,0.205,
4630,-0.185,0.21,
4631,-0.195,0.205,
4632,-0.2,0.2,
4633,-0.215,0.185,
4634,-0.21,0.205,
4635,-0.215,0.195,
4636,-0.2,0.19,
4637,-0.205,0.21,
4638,-0.21,0.235,
4639,-0.21,0.235,
4640,-0.21,0.23,
4641,-0.24,0.235,
4642,-0.23,0.23,
4643,-0.215,0.225,
4644,-0.2,0.22,
4645,-0.18,0.24,
4646,-0.16,0.26,
4647,-0.145,0.26,
4648,-0.145,0.28,
4649,-0.155,0.285,
4650,-0.14,0.285,
4651,-0.13,0.305,
4652,-0.12,0.28,
4653,-0.12,0.27,
4654,-0.115,0.265,
4655,-0.12,0.245,
4656,-0.12,0.25,
4657,-0.125,0.23,
4658,-0.1,0.225,
4659,-0.075,0.225,
4660,-0.06,0.215,
4661,-0.035,0.21,
4662,-0.02,0.21,
4663,-0.005,0.225,
4664,0.005,0.215,
4665,-0.02,0.205,
4666,-0.035,0.2,
4667,-0.045,0.18,
4668,-0.065,0.185,
4669,-0.09,0.195,
4670,-0.12,0.185,
4671,-0.125,0.21,
4672,-0.16,0.195,
4673,-0.17,0.205,
4674,-0.18,0.19,
4675,-0.175,0.19,
4676,-0.185,0.18,
4677,-0.19,0.195,
4678,-0.2,0.18,
4679,-0.215,0.18,
4680,-0.235,0.175,
4681,-0.24,0.175,
4682,-0.235,0.17,
4683,-0.23,0.17,
4684,-0.23,0.175,
4685,-0.22,0.18,
4686,-0.23,0.19,
4687,-0.235,0.205,
4688,-0.235,0.2,
4689,-0.24,0.19,
4690,-0.26,0.185,
4691,-0.255,0.175,
4692,-0.25,0.17,
4693,-0.25,0.165,
4694,-0.255,0.175,
4695,-0.255,0.17,
4696,-0.255,0.18,
4697,-0.25,0.195,
4698,-0.255,0.2,
4699,-0.245,0.215,
4700,-0.25,0.22,
4701,-0.26,0.215,
4702,-0.26,0.225,
4703,-0.25,0.22,
4704,-0.255,0.225,
4705,-0.245,0.25,
4706,-0.27,0.27,
4707,-0.3,0.31,
4708,-0.34,0.32,
4709,-0.38,0.315,
4710,-0.435,0.295,
4711,-0.485,0.27,
4712,-0.47,0.225,
4713,-0.36,0.15,
4714,-0.135,0.09,
4715,0.165,0.03,
4716,0.535,0.01,
4717,0.91,0.01,
4718,1.245,0.03,
4719,1.48,0.085,
4720,1.545,0.135,R
4721,1.38,0.14,
4722,0.995,0.17,
4723,0.47,0.185,
4724,-0.045,0.255,
4725,-0.395,0.37,
4726,-0.58,0.51,
4727,-0.595,0.64,
4728,-0.575,0.765,
4729,-0.54,0.85,
4730,-0.54,0.92,
4731,-0.58,0.965,
4732,-0.675,1.015,
4733,-0.765,1.06,
4734,-0.875,1.085,
4735,-0.95,1.12,
4736,-0.995,1.125,
4737,-1.0,1.105,
4738,-0.985,1.065,
4739,-0.97,1.0,
4740,-0.945,0.94,
4741,-0.9,0.875,
4742,-0.825,0.8,
4743,-0.75,0.73,
4744,-0.655,0.655,
4745,-0.56,0.55,
4746,-0.47,0.45,
4747,-0.405,0.38,
4748,-0.345,0.305,
4749,-0.33,0.27,
4750,-0.305,0.245,
4751,-0.295,0.23,
4752,-0.285,0.225,
4753,-0.285,0.215,
4754,-0.27,0.215,
4755,-0.26,0.185,
4756,-0.26,0.19,
4757,-0.24,0.19,
4758,-0.225,0.195,
4759,-0.205,0.2,
4760,-0.19,0.195,
4761,-0.18,0.175,
4762,-0.175,0.165,
4763,-0.185,0.155,
4764,-0.195,0.145,
4765,-0.2,0.145,
4766,-0.215,0.14,
4767,-0.215,0.14,
4768,-0.225,0.145,
4769,-0.205,0.14,
4770,-0.21,0.14,
4771,-0.18,0.16,
4772,-0.165,0.16,
4773,-0.155,0.165,
4774,-0.145,0.145,
4775,-0.15,0.135,
4776,-0.155,0.12,
4777,-0.15,0.12,
4778,-0.165,0.115,
4779,-0.155,0.115,
4780,-0.16,0.11,
4781,-0.15,0.105,
4782,-0.155,0.12,
4783,-0.17,0.125,
4784,-0.165,0.11,
4785,-0.16,0.125,
4786,-0.145,0.11,
4787,-0.125,0.1,
4788,-0.11,0.1,
4789,-0.09,0.085,
4790,-0.08,0.085,
4791,-0.085,0.085,
4792,-0.085,0.09,
4793,-0.09,0.095,
4794,-0.09,0.095,
4795,-0.095,0.1,
4796,-0.095,0.095,
4797,-0.09,0.1,
4798,-0.08,0.085,
4799,-0.085,0.075,
4800,-0.08,0.065,
4801,-0.07,0.06,
4802,-0.05,0.065,
4803,-0.03,0.075,
4804,-0.02,0.075,
4805,-0.005,0.08,
4806,0.0,0.085,
4807,0.0,0.09,
4808,0.02,0.075,
4809,0.01,0.075,
4810,0.03,0.05,
4811,0.03,0.04,
4812,0.035,0.025,
4813,0.03,0.035,
4814,0.05,0.03,
4815,0.05,0.025,
4816,0.07,0.025,
4817,0.09,0.03,
4818,0.105,0.035,
4819,0.115,0.03,
4820,0.13,0.01,
4821,0.125,0.005,
4822,0.14,0.005,
4823,0.135,-0.015,
4824,0.15,-0.005,
4825,0.155,-0.015,
4826,0.155,-0.02,
4827,0.175,-0.02,
4828,0.18,-0.02,
4829,0.195,-0.025,
4830,0.215,-0.035,
4831,0.245,-0.025,
4832,0.26,-0.03,
4833,0.27,-0.025,
4834,0.28,-0.045,
4835,0.29,-0.035,
4836,0.29,-0.045,
4837,0.28,-0.06,
4838,0.28,-0.06,
4839,0.275,-0.05,
4840,0.295,-0.07,
4841,0.295,-0.045,
4842,0.3,-0.055,
4843,0.325,-0.05,
4844,0.345,-0.05,
4845,0.355,-0.035,
4846,0.355,-0.045,
4847,0.37,-0.045,
4848,0.345,-0.045,
4849,0.35,-0.045,
4850,0.32,-0.05,
4851,0.335,-0.035,
4852,0.33,-0.03,
4853,0.325,0.01,
4854,0.31,0.005,
4855,0.3,0.035,
4856,0.275,0.03,
4857,0.255,0.035,
4858,0.23,0.055,
4859,0.205,0.065,
4860,0.185,0.065,
4861,0.17,0.075,
4862,0.135,0.085,
4863,0.105,0.095,
4864,0.09,0.125,
4865,0.075,0.135,
4866,0.05,0.15,
4867,0.035,0.175,
4868,0.03,0.18,
4869,0.0,0.185,
4870,-0.015,0.195,
4871,-0.03,0.19,
4872,-0.055,0.18,
4873,-0.07,0.195,
4874,-0.085,0.195,
4875,-0.09,0.205,
4876,-0.11,0.215,
4877,-0.115,0.22,
4878,-0.11,0.24,
4879,-0.115,0.235,
4880,-0.12,0.235,
4881,-0.13,0.23,
4882,-0.125,0.225,
4883,-0.13,0.235,
4884,-0.14,0.23,
4885,-0.145,0.215,
4886,-0.155,0.225,
4887,-0.165,0.2,
4888,-0.16,0.22,
4889,-0.15,0.215,
4890,-0.145,0.24,
4891,-0.145,0.255,
4892,-0.12,0.245,
4893,-0.125,0.235,
4894,-0.13,0.24,
4895,-0.135,0.22,
4896,-0.125,0.22,
4897,-0.13,0.205,
4898,-0.14,0.205,
4899,-0.145,0.21,
4900,-0.13,0.215,
4901,-0.14,0.21,
4902,-0.125,0.2,
4903,-0.11,0.23,
4904,-0.105,0.22,
4905,-0.105,0.215,
4906,-0.105,0.2,
4907,-0.11,0.195,
4908,-0.125,0.21,
4909,-0.13,0.19,
4910,-0.135,0.185,
4911,-0.135,0.19,
4912,-0.14,0.19,
4913,-0.135,0.195,
4914,-0.135,0.2,
4915,-0.135,0.205,
4916,-0.135,0.21,
4917,-0.145,0.21,
4918,-0.135,0.2,
4919,-0.14,0.195,
4920,-0.15,0.18,
4921,-0.16,0.185,
4922,-0.175,0.175,
4923,-0.17,0.17,
4924,-0.175,0.185,
4925,-0.17,0.195,
4926,-0.17,0.2,
4927,-0.165,0.2,
4928,-0.175,0.2,
4929,-0.185,0.19,
4930,-0.17,0.2,
4931,-0.19,0.185,
4932,-0.19,0.17,
4933,-0.195,0.175,
4934,-0.2,0.165,
4935,-0.205,0.165,
4936,-0.215,0.18,
4937,-0.215,0.185,
4938,-0.205,0.19,
4939,-0.205,0.195,
4940,-0.2,0.195,
4941,-0.2,0.19,
4942,-0.2,0.19,
4943,-0.21,0.18,
4944,-0.215,0.175,
4945,-0.215,0.17,
4946,-0.23,0.17,
4947,-0.215,0.18,
4948,-0.245,0.175,
4949,-0.23,0.18,
4950,-0.225,0.19,
4951,-0.21,0.2,
4952,-0.215,0.2,
4953,-0.22,0.195,
4954,-0.225,0.195,
4955,-0.23,0.205,
4956,-0.23,0.205,
4957,-0.24,0.205,
4958,-0.245,0.205,
4959,-0.225,0.22,
4960,-0.22,0.235,
4961,-0.215,0.26,
4962,-0.215,0.28,
4963,-0.195,0.28,
4964,-0.175,0.275,
4965,-0.165,0.265,
4966,-0.165,0.255,
4967,-0.16,0.245,
4968,-0.165,0.23,
4969,-0.155,0.22,
4970,-0.16,0.205,
4971,-0.15,0.205,
4972,-0.12,0.21,
4973,-0.095,0.21,
4974,-0.075,0.205,
4975,-0.045,0.21,
4976,-0.035,0.2,
4977,-0.03,0.2,
4978,-0.045,0.18,
4979,-0.055,0.17,
4980,-0.065,0.16,
4981,-0.085,0.15,
4982,-0.1,0.145,
4983,-0.105,0.145,
4984,-0.115,0.165,
4985,-0.125,0.165,
4986,-0.13,0.175,
4987,-0.135,0.175,
4988,-0.14,0.17,
4989,-0.175,0.155,
4990,-0.175,0.135,
4991,-0.215,0.125,
4992,-0.24,0.125,
4993,-0.26,0.12,
4994,-0.27,0.125,
4995,-0.275,0.13,
4996,-0.28,0.135,
4997,-0.285,0.135,
4998,-0.27,0.14,
4999,-0.265,0.15,
5000,-0.265,0.145,
5001,-0.265,0.145,
5002,-0.27,0.14,
5003,-0.275,0.13,
5004,-0.27,0.135,
5005,-0.28,0.125,
5006,-0.285,0.125,
5007,-0.29,0.125,
5008,-0.295,0.13,
5009,-0.295,0.14,
5010,-0.285,0.155,
5011,-0.27,0.16,
5012,-0.27,0.15,
5013,-0.255,0.14,
5014,-0.265,0.145,
5015,-0.285,0.14,
5016,-0.28,0.13,
5017,-0.285,0.13,
5018,-0.29,0.135,
5019,-0.295,0.17,
5020,-0.285,0.19,
5021,-0.29,0.22,
5022,-0.3,0.265,
5023,-0.315,0.32,
5024,-0.36,0.315,
5025,-0.44,0.31,
5026,-0.51,0.28,
5027,-0.54,0.22,
5028,-0.485,0.15,
5029,-0.345,0.075,
5030,-0.085,0.02,
5031,0.28,-0.02,
5032,0.685,-0.035,
5033,1.08,-0.03,
5034,1.37,-0.01,
5035,1.49,-0.005,R
5036,1.415,0.0,
5037,1.065,0.015,
5038,0.575,0.055,
5039,0.085,0.14,
5040,-0.26,0.285,
5041,-0.455,0.465,
5042,-0.525,0.625,
5043,-0.535,0.77,
5044,-0.54,0.88,
5045,-0.565,0.955,
5046,-0.65,1.0,
5047,-0.755,1.05,
5048,-0.875,1.07,
5049,-0.96,1.09,
5050,-1.02,1.075,
5051,-1.045,1.025,
5052,-1.025,0.96,
5053,-0.99,0.865,
5054,-0.925,0.765,
5055,-0.855,0.67,
5056,-0.755,0.565,
5057,-0.66,0.465,
5058,-0.565,0.385,
5059,-0.485,0.305,
5060,-0.42,0.265,
5061,-0.375,0.21,
5062,-0.34,0.185,
5063,-0.33,0.18,
5064,-0.325,0.17,
5065,-0.325,0.15,
5066,-0.32,0.14,
5067,-0.315,0.15,
5068,-0.3,0.145,
5069,-0.28,0.13,
5070,-0.28,0.135,
5071,-0.27,0.14,
5072,-0.255,0.135,
5073,-0.25,0.125,
5074,-0.245,0.12,
5075,-0.25,0.115,
5076,-0.245,0.11,
5077,-0.25,0.105,
5078,-0.25,0.105,
5079,-0.245,0.1,
5080,-0.24,0.1,
5081,-0.25,0.105,
5082,-0.23,0.11,
5083,-0.22,0.115,
5084,-0.23,0.11,
5085,-0.22,0.11,
5086,-0.215,0.11,
5087,-0.215,0.105,
5088,-0.205,0.095,
5089,-0.215,0.095,
5090,-0.23,0.075,
5091,-0.225,0.09,
5092,-0.205,0.085,
5093,-0.2,0.1,
5094,-0.19,0.1,
5095,-0.175,0.09,
5096,-0.165,0.1,
5097,-0.16,0.1,
5098,-0.165,0.095,
5099,-0.16,0.075,
5100,-0.15,0.07,
5101,-0.155,0.075,
5102,-0.15,0.06,
5103,-0.15,0.065,
5104,-0.14,0.06,
5105,-0.13,0.06,
5106,-0.11,0.08,
5107,-0.1,0.08,
5108,-0.085,0.08,
5109,-0.07,0.065,
5110,-0.07,0.075,
5111,-0.07,0.055,
5112,-0.055,0.055,
5113,-0.06,0.045,
5114,-0.055,0.05,
5115,-0.045,0.04,
5116,-0.035,0.045,
5117,-0.015,0.045,
5118,-0.005,0.04,
5119,0.005,0.05,
5120,0.02,0.045,
5121,0.035,0.035,
5122,0.05,0.03,
5123,0.065,0.025,
5124,0.06,0.005,
5125,0.075,0.0,
5126,0.08,-0.01,
5127,0.095,0.0,
5128,0.11,-0.005,
5129,0.125,-0.005,
5130,0.145,0.01,
5131,0.16,0.005,
5132,0.175,0.0,
5133,0.185,0.0,
5134,0.2,-0.01,
5135,0.2,-0.035,
5136,0.215,-0.04,
5137,0.225,-0.05,
5138,0.23,-0.055,
5139,0.24,-0.055,
5140,0.255,-0.045,
5141,0.27,-0.03,
5142,0.275,-0.045,
5143,0.295,-0.03,
5144,0.295,-0.035,
5145,0.3,-0.035,
5146,0.3,-0.03,
5147,0.295,-0.035,
5148,0.305,-0.045,
5149,0.32,-0.03,
5150,0.315,-0.03,
5151,0.33,-0.045,
5152,0.32,-0.035,
5153,0.32,-0.025,
5154,0.33,-0.015,
5155,0.32,-0.005,
5156,0.32,0.005,
5157,0.31,0.02,
5158,0.285,0.015,
5159,0.27,0.015,
5160,0.255,0.025,
5161,0.225,0.015,
5162,0.21,0.025,
5163,0.19,0.04,
5164,0.17,0.055,
5165,0.14,0.08,
5166,0.12,0.08,
5167,0.11,0.1,
5168,0.08,0.11,
5169,0.075,0.12,
5170,0.045,0.125,
5171,0.015,0.13,
5172,-0.01,0.125,
5173,-0.03,0.12,
5174,-0.04,0.135,
5175,-0.07,0.13,
5176,-0.08,0.155,
5177,-0.09,0.16,
5178,-0.095,0.175,
5179,-0.115,0.18,
5180,-0.11,0.185,
5181,-0.13,0.19,
5182,-0.135,0.195,
5183,-0.15,0.185,
5184,-0.175,0.18,
5185,-0.165,0.175,
5186,-0.185,0.185,
5187,-0.2,0.19,
5188,-0.195,0.195,
5189,-0.2,0.195,
5190,-0.19,0.22,
5191,-0.19,0.22,
5192,-0.18,0.22,
5193,-0.2,0.225,
5194,-0.205,0.21,
5195,-0.2,0.205,
5196,-0.205,0.21,
5197,-0.21,0.185,
5198,-0.225,0.205,
5199,-0.21,0.195,
5200,-0.21,0.195,
5201,-0.2,0.215,
5202,-0.185,0.21,
5203,-0.185,0.22,
5204,-0.18,0.21,
5205,-0.19,0.215,
5206,-0.19,0.21,
5207,-0.19,0.195,
5208,-0.19,0.19,
5209,-0.185,0.195,
5210,-0.18,0.19,
5211,-0.185,0.195,
5212,-0.18,0.19,
5213,-0.185,0.2,
5214,-0.17,0.215,
5215,-0.175,0.21,
5216,-0.17,0.22,
5217,-0.16,0.215,
5218,-0.16,0.205,
5219,-0.18,0.195,
5220,-0.16,0.2,
5221,-0.19,0.185,
5222,-0.195,0.175,
5223,-0.195,0.19,
5224,-0.205,0.19,
5225,-0.205,0.205,
5226,-0.2,0.2,
5227,-0.2,0.21,
5228,-0.19,0.205,
5229,-0.19,0.2,
5230,-0.195,0.195,
5231,-0.2,0.19,
5232,-0.2,0.185,
5233,-0.215,0.175,
5234,-0.205,0.175,
5235,-0.215,0.17,
5236,-0.215,0.18,
5237,-0.22,0.18,
5238,-0.22,0.195,
5239,-0.225,0.195,
5240,-0.21,0.175,
5241,-0.215,0.19,
5242,-0.23,0.195,
5243,-0.22,0.17,
5244,-0.225,0.175,
5245,-0.23,0.165,
5246,-0.235,0.17,
5247,-0.24,0.165,
5248,-0.24,0.18,
5249,-0.235,0.19,
5250,-0.225,0.2,
5251,-0.23,0.2,
5252,-0.23,0.21,
5253,-0.235,0.195,
5254,-0.235,0.18,
5255,-0.24,0.185,
5256,-0.24,0.185,
5257,-0.25,0.175,
5258,-0.26,0.185,
5259,-0.27,0.18,
5260,-0.275,0.185,
5261,-0.25,0.2,
5262,-0.245,0.195,
5263,-0.23,0.205,
5264,-0.24,0.2,
5265,-0.24,0.2,
5266,-0.235,0.19,
5267,-0.24,0.18,
5268,-0.255,0.18,
5269,-0.255,0.175,
5270,-0.265,0.17,
5271,-0.27,0.17,
5272,-0.27,0.18,
5273,-0.265,0.185,
5274,-0.255,0.195,
5275,-0.26,0.185,
5276,-0.245,0.19,
5277,-0.245,0.195,
5278,-0.24,0.195,
5279,-0.255,0.185,
5280,-0.27,0.18,
5281,-0.275,0.16,
5282,-0.28,0.175,
5283,-0.275,0.175,
5284,-0.29,0.18,
5285,-0.28,0.185,
5286,-0.26,0.195,
5287,-0.265,0.185,
5288,-0.255,0.2,
5289,-0.245,0.19,
5290,-0.245,0.195,
5291,-0.25,0.185,
5292,-0.255,0.17,
5293,-0.275,0.165,
5294,-0.27,0.17,
5295,-0.275,0.18,
5296,-0.27,0.19,
5297,-0.265,0.195,
5298,-0.255,0.21,
5299,-0.265,0.23,
5300,-0.265,0.235,
5301,-0.245,0.255,
5302,-0.245,0.255,
5303,-0.24,0.255,
5304,-0.23,0.265,
5305,-0.235,0.265,
5306,-0.235,0.275,
5307,-0.23,0.28,
5308,-0.215,0.265,
5309,-0.225,0.265,
5310,-0.19,0.27,
5311,-0.19,0.26,
5312,-0.17,0.24,
5313,-0.15,0.24,
5314,-0.14,0.23,
5315,-0.13,0.215,
5316,-0.115,0.205,
5317,-0.1,0.185,
5318,-0.1,0.175,
5319,-0.095,0.18,
5320,-0.1,0.18,
5321,-0.1,0.185,
5322,-0.11,0.18,
5323,-0.115,0.175,
5324,-0.11,0.175,
5325,-0.125,0.175,
5326,-0.12,0.17,
5327,-0.14,0.175,
5328,-0.165,0.165,
5329,-0.175,0.16,
5330,-0.195,0.135,
5331,-0.21,0.145,
5332,-0.225,0.16,
5333,-0.245,0.15,
5334,-0.255,0.155,
5335,-0.27,0.16,
5336,-0.27,0.165,
5337,-0.29,0.16,
5338,-0.29,0.165,
5339,-0.3,0.15,
5340,-0.3,0.14,
5341,-0.305,0.145,
5342,-0.305,0.14,
5343,-0.31,0.14,
5344,-0.315,0.15,
5345,-0.31,0.16,
5346,-0.3,0.16,
5347,-0.31,0.165,
5348,-0.31,0.175,
5349,-0.305,0.17,
5350,-0.305,0.17,
5351,-0.3,0.17,
5352,-0.305,0.17,
5353,-0.315,0.145,
5354,-0.315,0.14,
5355,-0.315,0.155,
5356,-0.315,0.16,
5357,-0.31,0.17,
5358,-0.3,0.185,
5359,-0.29,0.19,
5360,-0.285,0.2,
5361,-0.29,0.215,
5362,-0.29,0.24,
5363,-0.305,0.28,
5364,-0.33,0.295,
5365,-0.38,0.31,
5366,-0.435,0.3,
5367,-0.505,0.275,
5368,-0.555,0.26,
5369,-0.575,0.23,
5370,-0.49,0.19,
5371,-0.34,0.13,
5372,-0.065,0.085,
5373,0.26,0.04,
5374,0.625,0.02,
5375,0.97,-0.005,
5376,1.275,-0.005,
5377,1.465,-0.01,
5378,1.46,-0.01,R
5379,1.235,0.0,
5380,0.81,0.035,
5381,0.315,0.105,
5382,-0.105,0.245,
5383,-0.37,0.425,
5384,-0.49,0.6,
5385,-0.51,0.76,
5386,-0.505,0.88,
5387,-0.515,0.95,
5388,-0.575,0.995,
5389,-0.68,1.02,
5390,-0.805,1.055,
5391,-0.925,1.06,
5392,-1.015,1.09,
5393,-1.07,1.075,
5394,-1.08,1.04,
5395,-1.055,0.995,
5396,-1.015,0.92,
5397,-0.945,0.835,
5398,-0.855,0.735,
5399,-0.775,0.625,
5400,-0.7,0.52,
5401,-0.61,0.415,
5402,-0.545,0.355,
5403,-0.48,0.29,
5404,-0.43,0.255,
5405,-0.38,0.23,
5406,-0.36,0.25,
5407,-0.34,0.245,
5408,-0.315,0.225,
5409,-0.31,0.22,
5410,-0.305,0.2,
5411,-0.295,0.185,
5412,-0.31,0.175,
5413,-0.3,0.17,
5414,-0.305,0.15,
5415,-0.295,0.15,
5416,-0.29,0.155,
5417,-0.29,0.145,
5418,-0.27,0.145,
5419,-0.265,0.16,
5420,-0.26,0.155,
5421,-0.26,0.15,
5422,-0.25,0.14,
5423,-0.245,0.14,
5424,-0.26,0.125,
5425,-0.265,0.13,
5426,-0.27,0.13,
5427,-0.26,0.125,
5428,-0.255,0.125,
5429,-0.26,0.145,
5430,-0.25,0.145,
5431,-0.235,0.145,
5432,-0.225,0.14,
5433,-0.22,0.135,
5434,-0.215,0.13,
5435,-0.22,0.115,
5436,-0.22,0.12,
5437,-0.235,0.12,
5438,-0.23,0.11,
5439,-0.225,0.12,
5440,-0.225,0.125,
5441,-0.225,0.11,
5442,-0.22,0.115,
5443,-0.2,0.125,
5444,-0.19,0.12,
5445,-0.18,0.12,
5446,-0.18,0.115,
5447,-0.17,0.105,
5448,-0.175,0.09,
5449,-0.18,0.09,
5450,-0.175,0.08,
5451,-0.175,0.09,
5452,-0.16,0.1,
5453,-0.16,0.1,
5454,-0.15,0.095,
5455,-0.135,0.095,
5456,-0.125,0.11,
5457,-0.125,0.09,
5458,-0.125,0.08,
5459,-0.13,0.07,
5460,-0.115,0.065,
5461,-0.12,0.075,
5462,-0.115,0.08,
5463,-0.105,0.07,
5464,-0.1,0.075,
5465,-0.08,0.07,
5466,-0.06,0.065,
5467,-0.06,0.07,
5468,-0.045,0.075,
5469,-0.025,0.07,
5470,-0.02,0.055,
5471,-0.02,0.05,
5472,-0.025,0.045,
5473,-0.015,0.035,
5474,-0.005,0.04,
5475,-0.01,0.025,
5476,0.005,0.03,
5477,0.01,0.04,
5478,0.03,0.035,
5479,0.045,0.03,
5480,0.085,0.025,
5481,0.085,0.02,
5482,0.105,0.005,
5483,0.115,0.005,
5484,0.13,0.0,
5485,0.135,-0.015,
5486,0.14,-0.015,
5487,0.165,-0.02,
5488,0.165,-0.035,
5489,0.18,-0.02,
5490,0.19,0.005,
5491,0.19,0.0,
5492,0.225,-0.01,
5493,0.225,-0.015,
5494,0.23,-0.025,
5495,0.25,-0.03,
5496,0.25,-0.035,
5497,0.25,-0.045,
5498,0.25,-0.045,
5499,0.265,-0.05,
5500,0.27,-0.035,
5501,0.28,-0.03,
5502,0.3,-0.025,
5503,0.31,-0.02,
5504,0.32,-0.025,
5505,0.325,-0.02,
5506,0.33,-0.015,
5507,0.325,-0.025,
5508,0.325,-0.03,
5509,0.305,-0.025,
5510,0.295,-0.03,
5511,0.29,-0.02,
5512,0.275,-0.005,
5513,0.27,0.005,
5514,0.255,0.005,
5515,0.255,0.04,
5516,0.25,0.035,
5517,0.225,0.04,
5518,0.225,0.04,
5519,0.205,0.03,
5520,0.19,0.04,
5521,0.17,0.055,
5522,0.14,0.06,
5523,0.125,0.075,
5524,0.105,0.08,
5525,0.08,0.095,
5526,0.06,0.11,
5527,0.045,0.12,
5528,0.03,0.13,
5529,0.0,0.13,
5530,-0.015,0.135,
5531,-0.035,0.135,
5532,-0.035,0.14,
5533,-0.05,0.13,
5534,-0.07,0.15,
5535,-0.095,0.15,
5536,-0.105,0.16,
5537,-0.125,0.17,
5538,-0.135,0.17,
5539,-0.155,0.18,
5540,-0.14,0.19,
5541,-0.15,0.195,
5542,-0.15,0.185,
5543,-0.155,0.175,
5544,-0.165,0.19,
5545,-0.17,0.175,
5546,-0.19,0.185,
5547,-0.205,0.185,
5548,-0.22,0.205,
5549,-0.23,0.195,
5550,-0.23,0.21,
5551,-0.225,0.215,
5552,-0.215,0.235,
5553,-0.205,0.215,
5554,-0.2,0.22,
5555,-0.21,0.205,
5556,-0.215,0.2,
5557,-0.23,0.19,
5558,-0.235,0.195,
5559,-0.235,0.195,
5560,-0.245,0.19,
5561,-0.235,0.205,
5562,-0.215,0.205,
5563,-0.22,0.22,
5564,-0.22,0.225,
5565,-0.215,0.235,
5566,-0.22,0.215,
5567,-0.235,0.2,
5568,-0.24,0.195,
5569,-0.235,0.19,
5570,-0.235,0.195,
5571,-0.225,0.195,
5572,-0.225,0.195,
5573,-0.22,0.21,
5574,-0.205,0.205,
5575,-0.205,0.215,
5576,-0.21,0.215,
5577,-0.205,0.2,
5578,-0.225,0.21,
5579,-0.23,0.2,
5580,-0.255,0.185,
5581,-0.24,0.185,
5582,-0.245,0.175,
5583,-0.24,0.175,
5584,-0.23,0.17,
5585,-0.21,0.195,
5586,-0.205,0.195,
5587,-0.19,0.205,
5588,-0.19,0.2,
5589,-0.2,0.185,
5590,-0.21,0.2,
5591,-0.23,0.185,
5592,-0.24,0.195,
5593,-0.24,0.175,
5594,-0.255,0.17,
5595,-0.255,0.175,
5596,-0.26,0.18,
5597,-0.255,0.18,
5598,-0.26,0.18,
5599,-0.255,0.195,
5600,-0.245,0.195,
5601,-0.25,0.19,
5602,-0.24,0.195,
5603,-0.25,0.18,
5604,-0.25,0.185,
5605,-0.275,0.17,
5606,-0.27,0.165,
5607,-0.28,0.165,
5608,-0.29,0.165,
5609,-0.275,0.175,
5610,-0.275,0.18,
5611,-0.27,0.19,
5612,-0.265,0.195,
5613,-0.26,0.185,
5614,-0.245,0.18,
5615,-0.25,0.175,
5616,-0.26,0.17,
5617,-0.265,0.15,
5618,-0.285,0.15,
5619,-0.295,0.155,
5620,-0.295,0.17,
5621,-0.285,0.17,
5622,-0.285,0.17,
5623,-0.27,0.18,
5624,-0.265,0.18,
5625,-0.27,0.185,
5626,-0.265,0.18,
5627,-0.28,0.17,
5628,-0.28,0.18,
5629,-0.29,0.16,
5630,-0.29,0.16,
5631,-0.3,0.16,
5632,-0.3,0.165,
5633,-0.295,0.175,
5634,-0.3,0.195,
5635,-0.29,0.19,
5636,-0.28,0.195,
5637,-0.275,0.195,
5638,-0.275,0.19,
5639,-0.27,0.175,
5640,-0.27,0.18,
5641,-0.3,0.165,
5642,-0.315,0.155,
5643,-0.315,0.165,
5644,-0.32,0.165,
5645,-0.31,0.165,
5646,-0.305,0.175,
5647,-0.3,0.18,
5648,-0.275,0.175,
5649,-0.285,0.175,
5650,-0.285,0.17,
5651,-0.28,0.185,
5652,-0.3,0.18,
5653,-0.305,0.165,
5654,-0.305,0.155,
5655,-0.3,0.145,
5656,-0.3,0.16,
5657,-0.29,0.175,
5658,-0.29,0.18,
5659,-0.3,0.19,
5660,-0.28,0.2,
5661,-0.295,0.185,
5662,-0.29,0.195,
5663,-0.295,0.205,
5664,-0.305,0.2,
5665,-0.3,0.205,
5666,-0.3,0.21,
5667,-0.305,0.225,
5668,-0.29,0.23,
5669,-0.265,0.235,
5670,-0.255,0.235,
5671,-0.23,0.235,
5672,-0.22,0.23,
5673,-0.21,0.215,
5674,-0.22,0.2,
5675,-0.225,0.195,
5676,-0.215,0.19,
5677,-0.195,0.18,
5678,-0.19,0.165,
5679,-0.15,0.18,
5680,-0.125,0.175,
5681,-0.115,0.175,
5682,-0.11,0.185,
5683,-0.12,0.18,
5684,-0.125,0.17,
5685,-0.135,0.17,
5686,-0.15,0.16,
5687,-0.16,0.145,
5688,-0.165,0.145,
5689,-0.185,0.155,
5690,-0.195,0.155,
5691,-0.205,0.15,
5692,-0.22,0.15,
5693,-0.245,0.145,
5694,-0.26,0.155,
5695,-0.28,0.14,
5696,-0.285,0.145,
5697,-0.305,0.145,
5698,-0.305,0.15,
5699,-0.305,0.145,
5700,-0.29,0.125,
5701,-0.305,0.11,
5702,-0.325,0.135,
5703,-0.335,0.13,
5704,-0.33,0.14,
5705,-0.355,0.135,
5706,-0.355,0.14,
5707,-0.35,0.15,
5708,-0.34,0.16,
5709,-0.335,0.165,
5710,-0.335,0.165,
5711,-0.325,0.16,
5712,-0.33,0.15,
5713,-0.34,0.14,
5714,-0.33,0.145,
5715,-0.335,0.14,
5716,-0.34,0.14,
5717,-0.335,0.155,
5718,-0.33,0.155,
5719,-0.325,0.165,
5720,-0.33,0.16,
5721,-0.345,0.165,
5722,-0.355,0.175,
5723,-0.345,0.175,
5724,-0.355,0.175,
5725,-0.34,0.205,
5726,-0.34,0.24,
5727,-0.335,0.265,
5728,-0.365,0.28,
5729,-0.42,0.27,
5730,-0.485,0.265,
5731,-0.535,0.23,
5732,-0.545,0.185,
5733,-0.465,0.115,
5734,-0.285,0.045,
5735,0.0,-0.025,
5736,0.355,-0.045,
5737,0.765,-0.045,
5738,1.125,-0.015,
5739,1.37,0.03,
5740,1.45,0.07,R
5741,1.29,0.09,
5742,0.89,0.11,
5743,0.37,0.13,
5744,-0.13,0.215,
5745,-0.485,0.345,
5746,-0.64,0.48,
5747,-0.665,0.63,
5748,-0.64,0.75,
5749,-0.61,0.84,
5750,-0.615,0.905,
5751,-0.68,0.945,
5752,-0.765,0.99,
5753,-0.89,1.02,
5754,-0.965,1.05,
5755,-1.02,1.08,
5756,-1.05,1.07,
5757,-1.045,1.045,
5758,-1.04,0.995,
5759,-1.0,0.935,
5760,-0.965,0.865,
5761,-0.9,0.785,
5762,-0.83,0.715,
5763,-0.765,0.625,
5764,-0.705,0.5,
5765,-0.635,0.405,
5766,-0.555,0.32,
5767,-0.49,0.26,
5768,-0.43,0.22,
5769,-0.39,0.19,
5770,-0.37,0.195,
5771,-0.35,0.19,
5772,-0.355,0.18,
5773,-0.34,0.165,
5774,-0.335,0.145,
5775,-0.315,0.125,
5776,-0.315,0.13,
5777,-0.3,0.145,
5778,-0.285,0.135,
5779,-0.285,0.145,
5780,-0.28,0.14,
5781,-0.28,0.13,
5782,-0.28,0.125,
5783,-0.27,0.115,
5784,-0.27,0.12,
5785,-0.265,0.12,
5786,-0.27,0.12,
5787,-0.26,0.115,
5788,-0.26,0.12,
5789,-0.275,0.13,
5790,-0.25,0.125,
5791,-0.25,0.125,
5792,-0.245,0.125,
5793,-0.235,0.115,
5794,-0.23,0.11,
5795,-0.23,0.105,
5796,-0.235,0.095,
5797,-0.24,0.09,
5798,-0.255,0.09,
5799,-0.235,0.08,
5800,-0.23,0.085,
5801,-0.23,0.09,
5802,-0.225,0.095,
5803,-0.215,0.105,
5804,-0.2,0.11,
5805,-0.18,0.11,
5806,-0.17,0.095,
5807,-0.175,0.09,
5808,-0.185,0.08,
5809,-0.2,0.08,
5810,-0.2,0.055,
5811,-0.21,0.065,
5812,-0.195,0.055,
5813,-0.18,0.065,
5814,-0.175,0.085,
5815,-0.175,0.085,
5816,-0.175,0.08,
5817,-0.155,0.075,
5818,-0.155,0.07,
5819,-0.145,0.055,
5820,-0.115,0.06,
5821,-0.11,0.05,
5822,-0.115,0.045,
5823,-0.11,0.04,
5824,-0.12,0.045,
5825,-0.115,0.045,
5826,-0.105,0.035,
5827,-0.095,0.04,
5828,-0.075,0.035,
5829,-0.06,0.035,
5830,-0.06,0.04,
5831,-0.045,0.02,
5832,-0.04,0.015,
5833,-0.055,0.005,
5834,-0.05,-0.005,
5835,-0.035,0.005,
5836,-0.02,0.0,
5837,-0.005,0.01,
5838,0.015,0.01,
5839,0.03,0.01,
5840,0.045,0.0,
5841,0.05,-0.015,
5842,0.045,-0.025,
5843,0.04,-0.045,
5844,0.05,-0.055,
5845,0.055,-0.06,
5846,0.065,-0.06,
5847,0.09,-0.07,
5848,0.08,-0.08,
5849,0.1,-0.075,
5850,0.105,-0.08,
5851,0.12,-0.07,
5852,0.125,-0.08,
5853,0.15,-0.08,
5854,0.165,-0.085,
5855,0.175,-0.09,
5856,0.195,-0.095,
5857,0.19,-0.1,
5858,0.175,-0.115,
5859,0.17,-0.11,
5860,0.185,-0.105,
5861,0.195,-0.115,
5862,0.21,-0.11,
5863,0.23,-0.09,
5864,0.255,-0.09,
5865,0.275,-0.09,
5866,0.275,-0.085,
5867,0.28,-0.1,
5868,0.27,-0.1,
5869,0.255,-0.085,
5870,0.235,-0.1,
5871,0.23,-0.085,
5872,0.225,-0.075,
5873,0.215,-0.05,
5874,0.225,-0.03,
5875,0.215,-0.01,
5876,0.215,0.01,
5877,0.195,0.025,
5878,0.17,0.025,
5879,0.135,0.04,
5880,0.11,0.03,
5881,0.09,0.055,
5882,0.065,0.04,
5883,0.045,0.06,
5884,0.02,0.085,
5885,0.0,0.105,
5886,-0.035,0.12,
5887,-0.065,0.125,
5888,-0.05,0.135,
5889,-0.06,0.15,
5890,-0.075,0.15,
5891,-0.095,0.16,
5892,-0.1,0.155,
5893,-0.135,0.16,
5894,-0.155,0.17,
5895,-0.17,0.165,
5896,-0.19,0.175,
5897,-0.2,0.185,
5898,-0.21,0.195,
5899,-0.205,0.21,
5900,-0.195,0.215,
5901,-0.2,0.205,
5902,-0.2,0.205,
5903,-0.21,0.195,
5904,-0.22,0.19,
5905,-0.23,0.19,
5906,-0.23,0.175,
5907,-0.24,0.19,
5908,-0.24,0.2,
5909,-0.23,0.2,
5910,-0.225,0.21,
5911,-0.215,0.195,
5912,-0.2,0.2,
5913,-0.215,0.2,
5914,-0.19,0.195,
5915,-0.2,0.2,
5916,-0.205,0.195,
5917,-0.21,0.185,
5918,-0.21,0.19,
5919,-0.215,0.18,
5920,-0.22,0.18,
5921,-0.21,0.185,
5922,-0.205,0.185,
5923,-0.2,0.19,
5924,-0.19,0.19,
5925,-0.19,0.185,
5926,-0.195,0.185,
5927,-0.195,0.185,
5928,-0.195,0.17,
5929,-0.21,0.16,
5930,-0.22,0.145,
5931,-0.225,0.155,
5932,-0.225,0.155,
5933,-0.225,0.15,
5934,-0.225,0.18,
5935,-0.225,0.18,
5936,-0.21,0.175,
5937,-0.22,0.185,
5938,-0.215,0.175,
5939,-0.235,0.17,
5940,-0.24,0.175,
5941,-0.25,0.165,
5942,-0.26,0.155,
5943,-0.265,0.145,
5944,-0.265,0.155,
5945,-0.265,0.145,
5946,-0.255,0.16,
5947,-0.255,0.16,
5948,-0.255,0.17,
5949,-0.25,0.16,
5950,-0.245,0.155,
5951,-0.255,0.145,
5952,-0.265,0.14,
5953,-0.27,0.12,
5954,-0.27,0.11,
5955,-0.285,0.135,
5956,-0.29,0.135,
5957,-0.305,0.13,
5958,-0.295,0.145,
5959,-0.295,0.145,
5960,-0.29,0.14,
5961,-0.295,0.13,
5962,-0.28,0.135,
5963,-0.285,0.13,
5964,-0.29,0.12,
5965,-0.29,0.11,
5966,-0.295,0.12,
5967,-0.305,0.125,
5968,-0.305,0.13,
5969,-0.3,0.135,
5970,-0.305,0.13,
5971,-0.305,0.13,
5972,-0.295,0.15,
5973,-0.29,0.145,
5974,-0.3,0.135,
5975,-0.29,0.135,
5976,-0.31,0.125,
5977,-0.31,0.12,
5978,-0.315,0.12,
5979,-0.33,0.12,
5980,-0.335,0.125,
5981,-0.315,0.14,
5982,-0.31,0.15,
5983,-0.305,0.165,
5984,-0.29,0.185,
5985,-0.285,0.185,
5986,-0.27,0.19,
5987,-0.27,0.195,
5988,-0.27,0.185,
5989,-0.26,0.19,
5990,-0.27,0.185,
5991,-0.27,0.17,
5992,-0.26,0.165,
5993,-0.23,0.185,
5994,-0.22,0.19,
5995,-0.22,0.195,
5996,-0.2,0.185,
5997,-0.19,0.175,
5998,-0.18,0.16,
5999,-0.16,0.15,
6000,-0.15,0.14,
6001,-0.13,0.125,
6002,-0.125,0.11,
6003,-0.14,0.125,
6004,-0.135,0.11,
6005,-0.135,0.125,
6006,-0.14,0.115,
6007,-0.155,0.115,
6008,-0.16,0.115,
6009,-0.15,0.12,
6010,-0.16,0.125,
6011,-0.18,0.12,
6012,-0.195,0.105,
6013,-0.23,0.09,
6014,-0.245,0.095,
6015,-0.255,0.08,
6016,-0.275,0.08,
6017,-0.29,0.08,
6018,-0.305,0.095,
6019,-0.3,0.1,
6020,-0.31,0.105,
6021,-0.305,0.085,
6022,-0.305,0.085,
6023,-0.315,0.075,
6024,-0.315,0.065,
6025,-0.33,0.07,
6026,-0.335,0.065,
6027,-0.345,0.065,
6028,-0.345,0.07,
6029,-0.345,0.08,
6030,-0.335,0.08,
6031,-0.33,0.09,
6032,-0.32,0.095,
6033,-0.33,0.1,
6034,-0.325,0.09,
6035,-0.335,0.09,
6036,-0.34,0.085,
6037,-0.35,0.08,
6038,-0.355,0.08,
6039,-0.36,0.08,
6040,-0.355,0.095,
6041,-0.345,0.1,
6042,-0.345,0.1,
6043,-0.345,0.115,
6044,-0.33,0.13,
6045,-0.34,0.15,
6046,-0.345,0.175,
6047,-0.36,0.21,
6048,-0.39,0.225,
6049,-0.44,0.225,
6050,-0.515,0.2,
6051,-0.575,0.175,
6052,-0.6,0.125,
6053,-0.55,0.05,
6054,-0.37,-0.01,
6055,-0.085,-0.045,
6056,0.285,-0.08,
6057,0.69,-0.095,
6058,1.065,-0.075,
6059,1.355,-0.07,
6060,1.445,-0.07,R
6061,1.28,-0.06,
6062,0.885,-0.03,
6063,0.38,0.04,
6064,-0.085,0.175,
6065,-0.4,0.335,
6066,-0.555,0.52,
6067,-0.59,0.67,
6068,-0.595,0.795,
6069,-0.6,0.865,
6070,-0.655,0.92,
6071,-0.745,0.95,
6072,-0.86,0.99,
6073,-0.97,1.005,
6074,-1.05,1.0,
6075,-1.095,0.98,
6076,-1.095,0.92,
6077,-1.075,0.85,
6078,-1.03,0.76,
6079,-0.945,0.675,
6080,-0.865,0.58,
6081,-0.76,0.48,
6082,-0.67,0.375,
6083,-0.58,0.3,
6084,-0.52,0.215,
6085,-0.46,0.155,
6086,-0.44,0.125,
6087,-0.42,0.115,
6088,-0.4,0.1,
6089,-0.375,0.11,
6090,-0.36,0.1,
6091,-0.36,0.095,
6092,-0.335,0.095,
6093,-0.315,0.09,
6094,-0.315,0.075,
6095,-0.32,0.075,
6096,-0.32,0.05,
6097,-0.315,0.04,
6098,-0.325,0.035,
6099,-0.325,0.035,
6100,-0.325,0.04,
6101,-0.315,0.035,
6102,-0.305,0.05,
6103,-0.29,0.05,
6104,-0.28,0.06,
6105,-0.285,0.055,
6106,-0.29,0.05,
6107,-0.285,0.035,
6108,-0.275,0.025,
6109,-0.275,0.025,
6110,-0.285,0.015,
6111,-0.29,0.02,
6112,-0.275,0.03,
6113,-0.295,0.03,
6114,-0.275,0.04,
6115,-0.27,0.04,
6116,-0.255,0.03,
6117,-0.24,0.025,
6118,-0.24,0.025,
6119,-0.23,0.015,
6120,-0.24,0.01,
6121,-0.235,0.005,
6122,-0.245,0.0,
6123,-0.245,0.005,
6124,-0.245,0.01,
6125,-0.23,0.0,
6126,-0.22,0.01,
6127,-0.205,0.01,
6128,-0.19,0.02,
6129,-0.185,0.0,
6130,-0.185,0.01,
6131,-0.18,-0.01,
6132,-0.185,-0.005,
6133,-0.175,-0.02,
6134,-0.18,-0.015,
6135,-0.17,-0.025,
6136,-0.165,-0.02,
6137,-0.145,-0.01,
6138,-0.14,-0.01,
6139,-0.125,-0.015,
6140,-0.1,-0.005,
6141,-0.09,-0.03,
6142,-0.085,-0.015,
6143,-0.085,-0.03,
6144,-0.085,-0.04,
6145,-0.07,-0.035,
6146,-0.065,-0.05,
6147,-0.065,-0.055,
6148,-0.06,-0.065,
6149,-0.04,-0.055,
6150,-0.035,-0.05,
6151,-0.015,-0.05,
6152,0.02,-0.055,
6153,0.02,-0.065,
6154,0.04,-0.07,
6155,0.04,-0.08,
6156,0.05,-0.09,
6157,0.06,-0.11,
6158,0.065,-0.1,
6159,0.08,-0.105,
6160,0.085,-0.115,
6161,0.11,-0.11,
6162,0.115,-0.115,
6163,0.125,-0.095,
6164,0.145,-0.1,
6165,0.15,-0.1,
6166,0.17,-0.115,
6167,0.16,-0.125,
6168,0.18,-0.115,
6169,0.17,-0.12,
6170,0.175,-0.135,
6171,0.175,-0.13,
6172,0.19,-0.13,
6173,0.2,-0.105,
6174,0.215,-0.11,
6175,0.225,-0.105,
6176,0.235,-0.105,
6177,0.245,-0.095,
6178,0.26,-0.095,
6179,0.25,-0.095,
6180,0.24,-0.105,
6181,0.245,-0.1,
6182,0.235,-0.11,
6183,0.23,-0.095,
6184,0.225,-0.085,
6185,0.22,-0.075,
6186,0.21,-0.065,
6187,0.2,-0.045,
6188,0.2,-0.03,
6189,0.18,-0.03,
6190,0.16,-0.015,
6191,0.125,-0.015,
6192,0.115,-0.025,
6193,0.085,-0.005,
6194,0.065,-0.01,
6195,0.045,0.005,
6196,0.03,0.015,
6197,0.015,0.035,
6198,-0.005,0.035,
6199,-0.035,0.06,
6200,-0.055,0.075,
6201,-0.065,0.085,
6202,-0.085,0.08,
6203,-0.1,0.08,
6204,-0.12,0.08,
6205,-0.13,0.07,
6206,-0.145,0.06,
6207,-0.17,0.075,
6208,-0.185,0.085,
6209,-0.2,0.09,
6210,-0.21,0.1,
6211,-0.21,0.12,
6212,-0.215,0.115,
6213,-0.215,0.13,
6214,-0.22,0.12,
6215,-0.23,0.12,
6216,-0.235,0.11,
6217,-0.25,0.105,
6218,-0.25,0.11,
6219,-0.265,0.1,
6220,-0.265,0.1,
6221,-0.26,0.105,
6222,-0.275,0.11,
6223,-0.265,0.125,
6224,-0.26,0.12,
6225,-0.255,0.125,
6226,-0.25,0.125,
6227,-0.255,0.12,
6228,-0.27,0.115,
6229,-0.265,0.11,
6230,-0.26,0.095,
6231,-0.27,0.11,
6232,-0.265,0.11,
6233,-0.26,0.105,
6234,-0.265,0.115,
6235,-0.26,0.125,
6236,-0.255,0.125,
6237,-0.235,0.125,
6238,-0.235,0.125,
6239,-0.235,0.12,
6240,-0.245,0.105,
6241,-0.24,0.105,
6242,-0.24,0.085,
6243,-0.245,0.095,
6244,-0.245,0.1,
6245,-0.235,0.1,
6246,-0.235,0.115,
6247,-0.23,0.12,
6248,-0.22,0.125,
6249,-0.215,0.105,
6250,-0.22,0.115,
6251,-0.23,0.115,
6252,-0.23,0.105,
6253,-0.24,0.09,
6254,-0.245,0.085,
6255,-0.26,0.095,
6256,-0.245,0.09,
6257,-0.24,0.085,
6258,-0.245,0.105,
6259,-0.235,0.105,
6260,-0.24,0.1,
6261,-0.23,0.1,
6262,-0.245,0.11,
6263,-0.245,0.095,
6264,-0.255,0.09,
6265,-0.265,0.085,
6266,-0.27,0.08,
6267,-0.265,0.085,
6268,-0.275,0.085,
6269,-0.285,0.105,
6270,-0.28,0.1,
6271,-0.28,0.11,
6272,-0.275,0.105,
6273,-0.255,0.095,
6274,-0.265,0.11,
6275,-0.26,0.1,
6276,-0.275,0.09,
6277,-0.275,0.08,
6278,-0.285,0.09,
6279,-0.295,0.08,
6280,-0.29,0.085,
6281,-0.3,0.09,
6282,-0.295,0.095,
6283,-0.295,0.09,
6284,-0.275,0.1,
6285,-0.285,0.1,
6286,-0.285,0.09,
6287,-0.285,0.1,
6288,-0.305,0.07,
6289,-0.31,0.06,
6290,-0.3,0.07,
6291,-0.31,0.07,
6292,-0.31,0.08,
6293,-0.31,0.09,
6294,-0.31,0.1,
6295,-0.3,0.095,
6296,-0.31,0.1,
6297,-0.315,0.095,
6298,-0.31,0.09,
6299,-0.3,0.09,
6300,-0.305,0.075,
6301,-0.31,0.085,
6302,-0.315,0.065,
6303,-0.315,0.08,
6304,-0.315,0.075,
6305,-0.32,0.065,
6306,-0.31,0.085,
6307,-0.31,0.065,
6308,-0.305,0.09,
6309,-0.3,0.1,
6310,-0.3,0.08,
6311,-0.3,0.085,
6312,-0.305,0.075,
6313,-0.31,0.075,
6314,-0.31,0.06,
6315,-0.32,0.065,
6316,-0.315,0.07,
6317,-0.315,0.08,
6318,-0.325,0.075,
6319,-0.315,0.085,
6320,-0.305,0.09,
6321,-0.3,0.085,
6322,-0.305,0.09,
6323,-0.3,0.07,
6324,-0.305,0.07,
6325,-0.31,0.075,
6326,-0.32,0.06,
6327,-0.315,0.065,
6328,-0.305,0.065,
6329,-0.3,0.075,
6330,-0.3,0.075,
6331,-0.295,0.08,
6332,-0.29,0.095,
6333,-0.285,0.09,
6334,-0.295,0.09,
6335,-0.295,0.085,
6336,-0.305,0.085,
6337,-0.305,0.06,
6338,-0.31,0.065,
6339,-0.32,0.06,
6340,-0.315,0.08,
6341,-0.31,0.09,
6342,-0.3,0.11,
6343,-0.3,0.12,
6344,-0.28,0.13,
6345,-0.27,0.145,
6346,-0.26,0.155,
6347,-0.25,0.16,
6348,-0.255,0.16,
6349,-0.25,0.145,
6350,-0.255,0.135,
6351,-0.25,0.13,
6352,-0.235,0.115,
6353,-0.23,0.12,
6354,-0.23,0.12,
6355,-0.215,0.11,
6356,-0.18,0.105,
6357,-0.16,0.1,
6358,-0.145,0.105,
6359,-0.13,0.075,
6360,-0.135,0.08,
6361,-0.125,0.06,
6362,-0.12,0.065,
6363,-0.135,0.06,
6364,-0.145,0.045,
6365,-0.15,0.06,
6366,-0.16,0.065,
6367,-0.175,0.085,
6368,-0.175,0.095,
6369,-0.18,0.085,
6370,-0.205,0.09,
6371,-0.215,0.07,
6372,-0.24,0.055,
6373,-0.26,0.04,
6374,-0.29,0.045,
6375,-0.295,0.03,
6376,-0.31,0.045,
6377,-0.31,0.06,
6378,-0.33,0.06,
6379,-0.325,0.055,
6380,-0.315,0.055,
6381,-0.31,0.055,
6382,-0.315,0.055,
6383,-0.315,0.055,
6384,-0.32,0.045,
6385,-0.33,0.025,
6386,-0.345,0.03,
6387,-0.345,0.03,
6388,-0.335,0.035,
6389,-0.335,0.05,
6390,-0.33,0.055,
6391,-0.335,0.055,
6392,-0.315,0.075,
6393,-0.305,0.08,
6394,-0.315,0.075,
6395,-0.31,0.085,
6396,-0.32,0.07,
6397,-0.32,0.08,
6398,-0.335,0.095,
6399,-0.335,0.095,
6400,-0.335,0.13,
6401,-0.35,0.185,
6402,-0.365,0.205,
6403,-0.395,0.23,
6404,-0.455,0.235,
6405,-0.505,0.195,
6406,-0.57,0.16,
6407,-0.55,0.1,
6408,-0.44,0.015,
6409,-0.215,-0.045,
6410,0.095,-0.09,
6411,0.485,-0.11,
6412,0.88,-0.115,
6413,1.235,-0.115,
6414,1.465,-0.09,
6415,1.51,-0.08,R
6416,1.325,-0.07,
6417,0.905,-0.045,
6418,0.405,0.035,
6419,-0.05,0.155,
6420,-0.365,0.315,
6421,-0.515,0.475,
6422,-0.545,0.63,
6423,-0.545,0.735,
6424,-0.54,0.825,
6425,-0.565,0.88,
6426,-0.655,0.915,
6427,-0.765,0.94,
6428,-0.89,0.995,
6429,-0.985,0.99,
6430,-1.065,0.975,
6431,-1.105,0.935,
6432,-1.1,0.875,
6433,-1.085,0.805,
6434,-1.02,0.72,
6435,-0.955,0.625,
6436,-0.865,0.535,
6437,-0.78,0.435,
6438,-0.695,0.355,
6439,-0.59,0.265,
6440,-0.515,0.215,
6441,-0.445,0.165,
6442,-0.415,0.15,
6443,-0.395,0.13,
6444,-0.37,0.11,
6445,-0.36,0.1,
6446,-0.36,0.075,
6447,-0.355,0.07,
6448,-0.35,0.08,
6449,-0.35,0.08,
6450,-0.33,0.07,
6451,-0.33,0.08,
6452,-0.305,0.065,
6453,-0.3,0.065,
6454,-0.29,0.06,
6455,-0.29,0.055,
6456,-0.29,0.045,
6457,-0.295,0.04,
6458,-0.3,0.03,
6459,-0.3,0.03,
6460,-0.3,0.04,
6461,-0.29,0.055,
6462,-0.285,0.05,
6463,-0.275,0.055,
6464,-0.265,0.045,
6465,-0.25,0.04,
6466,-0.255,0.04,
6467,-0.26,0.035,
6468,-0.255,0.02,
6469,-0.265,0.02,
6470,-0.26,0.02,
6471,-0.265,0.015,
6472,-0.265,0.02,
6473,-0.255,0.03,
6474,-0.25,0.03,
6475,-0.25,0.035,
6476,-0.23,0.04,
6477,-0.225,0.025,
6478,-0.225,0.04,
6479,-0.22,0.025,
6480,-0.23,0.02,
6481,-0.23,0.005,
6482,-0.23,0.005,
6483,-0.24,0.015,
6484,-0.225,0.0,
6485,-0.22,0.005,
6486,-0.21,0.02,
6487,-0.21,0.035,
6488,-0.195,0.02,
6489,-0.175,0.015,
6490,-0.175,0.01,
6491,-0.165,0.005,
6492,-0.17,-0.005,
6493,-0.17,-0.015,
6494,-0.17,-0.02,
6495,-0.16,-0.02,
6496,-0.165,-0.02,
6497,-0.155,-0.005,
6498,-0.125,-0.005,
6499,-0.12,-0.01,
6500,-0.115,-0.01,
6501,-0.1,-0.01,
6502,-0.09,-0.025,
6503,-0.075,-0.035,
6504,-0.075,-0.03,
6505,-0.065,-0.035,
6506,-0.065,-0.04,
6507,-0.055,-0.055,
6508,-0.05,-0.05,
6509,-0.045,-0.045,
6510,-0.035,-0.04,
6511,-0.015,-0.045,
6512,-0.005,-0.05,
6513,0.02,-0.05,
6514,0.03,-0.06,
6515,0.04,-0.06,
6516,0.045,-0.085,
6517,0.06,-0.085,
6518,0.06,-0.1,
6519,0.065,-0.1,
6520,0.08,-0.1,
6521,0.105,-0.11,
6522,0.11,-0.105,
6523,0.13,-0.11,
6524,0.145,-0.105,
6525,0.155,-0.1,
6526,0.17,-0.115,
6527,0.175,-0.125,
6528,0.185,-0.13,
6529,0.19,-0.135,
6530,0.195,-0.14,
6531,0.185,-0.155,
6532,0.205,-0.135,
6533,0.22,-0.135,
6534,0.22,-0.13,
6535,0.24,-0.125,
6536,0.245,-0.115,
6537,0.265,-0.12,
6538,0.265,-0.125,
6539,0.285,-0.115,
6540,0.275,-0.135,
6541,0.275,-0.13,
6542,0.27,-0.145,
6543,0.27,-0.14,
6544,0.27,-0.13,
6545,0.28,-0.12,
6546,0.29,-0.11,
6547,0.3,-0.11,
6548,0.3,-0.095,
6549,0.305,-0.09,
6550,0.29,-0.07,
6551,0.27,-0.07,
6552,0.255,-0.07,
6553,0.235,-0.08,
6554,0.205,-0.07,
6555,0.185,-0.065,
6556,0.155,-0.05,
6557,0.13,-0.02,
6558,0.12,-0.015,
6559,0.095,-0.01,
6560,0.08,0.0,
6561,0.065,0.0,
6562,0.055,0.005,
6563,0.04,0.025,
6564,0.02,0.02,
6565,-0.01,0.01,
6566,-0.04,0.03,
6567,-0.055,0.025,
6568,-0.06,0.05,
6569,-0.085,0.05,
6570,-0.1,0.06,
6571,-0.11,0.065,
6572,-0.115,0.07,
6573,-0.12,0.07,
6574,-0.145,0.085,
6575,-0.15,0.08,
6576,-0.155,0.08,
6577,-0.17,0.07,
6578,-0.19,0.065,
6579,-0.205,0.06,
6580,-0.22,0.065,
6581,-0.215,0.085,
6582,-0.21,0.085,
6583,-0.2,0.085,
6584,-0.19,0.1,
6585,-0.185,0.115,
6586,-0.195,0.11,
6587,-0.2,0.105,
6588,-0.22,0.1,
6589,-0.225,0.095,
6590,-0.235,0.095,
6591,-0.245,0.085,
6592,-0.255,0.095,
6593,-0.245,0.095,
6594,-0.235,0.1,
6595,-0.22,0.11,
6596,-0.225,0.105,
6597,-0.225,0.11,
6598,-0.22,0.12,
6599,-0.215,0.115,
6600,-0.225,0.115,
6601,-0.23,0.1,
6602,-0.235,0.085,
6603,-0.23,0.09,
6604,-0.225,0.11,
6605,-0.23,0.095,
6606,-0.225,0.105,
6607,-0.22,0.115,
6608,-0.225,0.115,
6609,-0.225,0.1,
6610,-0.23,0.105,
6611,-0.23,0.09,
6612,-0.24,0.095,
6613,-0.24,0.09,
6614,-0.24,0.08,
6615,-0.245,0.09,
6616,-0.25,0.095,
6617,-0.25,0.095,
6618,-0.25,0.095,
6619,-0.245,0.1,
6620,-0.23,0.095,
6621,-0.225,0.09,
6622,-0.24,0.105,
6623,-0.25,0.105,
6624,-0.27,0.075,
6625,-0.265,0.07,
6626,-0.27,0.065,
6627,-0.27,0.075,
6628,-0.27,0.065,
6629,-0.27,0.07,
6630,-0.26,0.075,
6631,-0.255,0.07,
6632,-0.23,0.09,
6633,-0.235,0.08,
6634,-0.25,0.09,
6635,-0.26,0.08,
6636,-0.28,0.075,
6637,-0.285,0.07,
6638,-0.295,0.055,
6639,-0.305,0.055,
6640,-0.31,0.045,
6641,-0.305,0.06,
6642,-0.29,0.075,
6643,-0.295,0.09,
6644,-0.295,0.09,
6645,-0.275,0.08,
6646,-0.275,0.075,
6647,-0.275,0.08,
6648,-0.27,0.06,
6649,-0.285,0.055,
6650,-0.275,0.05,
6651,-0.285,0.055,
6652,-0.295,0.06,
6653,-0.29,0.06,
6654,-0.295,0.065,
6655,-0.29,0.065,
6656,-0.28,0.07,
6657,-0.275,0.07,
6658,-0.295,0.075,
6659,-0.305,0.06,
6660,-0.31,0.055,
6661,-0.32,0.04,
6662,-0.315,0.045,
6663,-0.32,0.035,
6664,-0.32,0.04,
6665,-0.305,0.045,
6666,-0.3,0.05,
6667,-0.29,0.07,
6668,-0.28,0.07,
6669,-0.295,0.07,
6670,-0.31,0.06,
6671,-0.31,0.05,
6672,-0.335,0.045,
6673,-0.34,0.04,
6674,-0.33,0.045,
6675,-0.315,0.045,
6676,-0.325,0.045,
6677,-0.315,0.05,
6678,-0.305,0.06,
6679,-0.315,0.055,
6680,-0.32,0.065,
6681,-0.32,0.07,
6682,-0.32,0.06,
6683,-0.325,0.05,
6684,-0.335,0.05,
6685,-0.335,0.045,
6686,-0.335,0.045,
6687,-0.335,0.04,
6688,-0.34,0.035,
6689,-0.34,0.04,
6690,-0.33,0.06,
6691,-0.32,0.055,
6692,-0.305,0.065,
6693,-0.295,0.065,
6694,-0.305,0.06,
6695,-0.31,0.055,
6696,-0.32,0.055,
6697,-0.315,0.045,
6698,-0.34,0.055,
6699,-0.34,0.04,
6700,-0.33,0.05,
6701,-0.325,0.055,
6702,-0.325,0.045,
6703,-0.325,0.055,
6704,-0.325,0.06,
6705,-0.32,0.06,
6706,-0.315,0.06,
6707,-0.32,0.04,
6708,-0.305,0.04,
6709,-0.325,0.025,
6710,-0.325,0.03,
6711,-0.33,0.03,
6712,-0.325,0.04,
6713,-0.335,0.04,
6714,-0.325,0.05,
6715,-0.32,0.055,
6716,-0.31,0.06,
6717,-0.32,0.065,
6718,-0.32,0.06,
6719,-0.315,0.065,
6720,-0.315,0.065,
6721,-0.325,0.07,
6722,-0.345,0.07,
6723,-0.33,0.09,
6724,-0.325,0.09,
6725,-0.3,0.105,
6726,-0.28,0.13,
6727,-0.26,0.12,
6728,-0.25,0.13,
6729,-0.24,0.12,
6730,-0.255,0.11,
6731,-0.255,0.1,
6732,-0.25,0.075,
6733,-0.265,0.07,
6734,-0.275,0.065,
6735,-0.255,0.05,
6736,-0.235,0.06,
6737,-0.21,0.07,
6738,-0.18,0.065,
6739,-0.155,0.06,
6740,-0.125,0.075,
6741,-0.12,0.07,
6742,-0.125,0.065,
6743,-0.13,0.055,
6744,-0.15,0.03,
6745,-0.165,0.02,
6746,-0.165,0.005,
6747,-0.2,0.01,
6748,-0.21,0.005,
6749,-0.22,0.035,
6750,-0.225,0.05,
6751,-0.235,0.055,
6752,-0.245,0.06,
6753,-0.24,0.05,
6754,-0.245,0.04,
6755,-0.265,0.025,
6756,-0.29,0.03,
6757,-0.32,0.025,
6758,-0.335,0.02,
6759,-0.345,0.005,
6760,-0.35,0.0,
6761,-0.355,0.015,
6762,-0.35,0.025,
6763,-0.355,0.035,
6764,-0.35,0.04,
6765,-0.35,0.04,
6766,-0.355,0.025,
6767,-0.35,0.03,
6768,-0.355,0.02,
6769,-0.355,0.01,
6770,-0.365,0.005,
6771,-0.365,0.01,
6772,-0.375,0.025,
6773,-0.37,0.03,
6774,-0.35,0.03,
6775,-0.345,0.03,
6776,-0.34,0.035,
6777,-0.33,0.035,
6778,-0.345,0.035,
6779,-0.345,0.03,
6780,-0.355,0.035,
6781,-0.355,0.035,
6782,-0.37,0.04,
6783,-0.375,0.045,
6784,-0.375,0.09,
6785,-0.38,0.125,
6786,-0.385,0.145,
6787,-0.405,0.18,
6788,-0.415,0.19,
6789,-0.475,0.165,
6790,-0.545,0.12,
6791,-0.575,0.065,
6792,-0.53,-0.02,
6793,-0.385,-0.085,
6794,-0.12,-0.145,
