,MLII,V1,symbol
0,-0.095,0.01,
1,-0.095,0.01,
2,-0.095,0.01,
3,-0.095,0.01,+
4,-0.095,0.01,
5,-0.095,0.01,
6,-0.095,0.01,
7,-0.095,0.01,
8,-0.095,0.01,
9,-0.09,0.02,
10,-0.085,0.04,
11,-0.07,0.03,
12,-0.06,0.035,
13,-0.04,0.02,
14,-0.03,0.015,
15,-0.015,0.0,
16,0.01,0.0,
17,0.055,0.005,
18,0.095,0.005,
19,0.15,0.0,
20,0.215,0.01,
21,0.29,0.01,
22,0.365,0.005,
23,0.445,-0.01,
24,0.545,-0.005,
25,0.64,-0.025,
26,0.755,-0.035,
27,0.85,-0.055,
28,0.895,-0.1,
29,0.875,-0.15,
30,0.745,-0.205,
31,0.49,-0.28,
32,0.13,-0.34,
33,-0.325,-0.39,
34,-0.765,-0.4,
35,-1.15,-0.41,
36,-1.45,-0.4,
37,-1.67,-0.4,
38,-1.825,-0.435,
39,-1.955,-0.455,
40,-2.065,-0.47,
41,-2.15,-0.46,
42,-2.23,-0.415,V
43,-2.265,-0.32,
44,-2.29,-0.21,
45,-2.255,-0.045,
46,-2.215,0.12,
47,-2.14,0.3,
48,-2.05,0.455,
49,-1.93,0.595,
50,-1.82,0.715,
51,-1.715,0.805,
52,-1.59,0.87,
53,-1.505,0.915,
54,-1.43,0.955,
55,-1.36,0.995,
56,-1.29,1.025,
57,-1.21,1.035,
58,-1.11,1.005,
59,-0.995,0.955,
60,-0.88,0.85,
61,-0.78,0.68,
62,-0.7,0.46,
63,-0.63,0.225,
64,-0.575,-0.01,
65,-0.53,-0.205,
66,-0.49,-0.35,
67,-0.445,-0.425,
68,-0.345,-0.44,
69,-0.23,-0.42,
70,-0.09,-0.36,
71,0.035,-0.31,
72,0.185,-0.26,
73,0.27,-0.205,
74,0.33,-0.17,
75,0.35,-0.13,
76,0.35,-0.115,
77,0.325,-0.11,
78,0.3,-0.11,
79,0.31,-0.13,
80,0.315,-0.115,
81,0.33,-0.11,
82,0.35,-0.105,
83,0.375,-0.105,
84,0.395,-0.09,
85,0.39,-0.09,
86,0.41,-0.095,
87,0.435,-0.095,
88,0.445,-0.11,
89,0.45,-0.115,
90,0.46,-0.13,
91,0.465,-0.135,
92,0.48,-0.14,
93,0.48,-0.14,
94,0.51,-0.13,
95,0.535,-0.11,
96,0.56,-0.1,
97,0.575,-0.115,
98,0.61,-0.105,
99,0.63,-0.11,
100,0.635,-0.13,
101,0.64,-0.135,
102,0.655,-0.145,
103,0.67,-0.155,
104,0.685,-0.15,
105,0.705,-0.145,
106,0.725,-0.14,
107,0.75,-0.13,
108,0.775,-0.13,
109,0.805,-0.12,
110,0.825,-0.14,
111,0.85,-0.15,
112,0.86,-0.17,
113,0.865,-0.18,
114,0.875,-0.17,
115,0.895,-0.175,
116,0.91,-0.185,
117,0.925,-0.17,
118,0.935,-0.185,
119,0.945,-0.18,
120,0.95,-0.195,
121,0.95,-0.2,
122,0.945,-0.21,
123,0.94,-0.22,
124,0.94,-0.225,
125,0.925,-0.24,
126,0.905,-0.25,
127,0.88,-0.265,
128,0.85,-0.26,
129,0.82,-0.26,
130,0.81,-0.26,
131,0.78,-0.27,
132,0.76,-0.26,
133,0.735,-0.255,
134,0.7,-0.255,
135,0.665,-0.245,
136,0.625,-0.245,
137,0.585,-0.255,
138,0.55,-0.265,
139,0.505,-0.265,
140,0.47,-0.255,
141,0.43,-0.23,
142,0.4,-0.22,
143,0.39,-0.195,
144,0.36,-0.17,
145,0.34,-0.16,
146,0.31,-0.14,
147,0.28,-0.12,
148,0.24,-0.12,
149,0.21,-0.1,
150,0.18,-0.095,
151,0.155,-0.08,
152,0.13,-0.07,
153,0.105,-0.055,
154,0.09,-0.035,
155,0.085,-0.015,
156,0.065,0.005,
157,0.06,0.02,
158,0.04,0.03,
159,0.025,0.015,
160,0.015,0.02,
161,-0.005,0.01,
162,-0.02,0.005,
163,-0.01,0.01,
164,-0.02,0.02,
165,-0.02,0.02,
166,-0.02,0.035,
167,-0.01,0.035,
168,0.0,0.045,
169,0.01,0.025,
170,0.0,0.025,
171,-0.005,0.035,
172,-0.005,0.03,
173,-0.01,0.035,
174,-0.01,0.025,
175,-0.02,0.02,
176,-0.01,0.025,
177,-0.01,0.03,
178,-0.015,0.03,
179,-0.005,0.025,
180,-0.005,0.03,
181,0.005,0.05,
182,-0.005,0.04,
183,-0.01,0.035,
184,-0.015,0.02,
185,-0.025,0.025,
186,-0.04,0.025,
187,-0.04,0.01,
188,-0.04,0.02,
189,-0.05,0.02,
190,-0.045,0.025,
191,-0.05,0.04,
192,-0.03,0.05,
193,-0.03,0.055,
194,-0.025,0.045,
195,-0.035,0.045,
196,-0.05,0.035,
197,-0.055,0.02,
198,-0.06,0.005,
199,-0.07,-0.005,
200,-0.07,-0.005,
201,-0.065,0.015,
202,-0.055,0.025,
203,-0.045,0.04,
204,-0.04,0.045,
205,-0.04,0.05,
206,-0.05,0.035,
207,-0.055,0.03,
208,-0.06,0.01,
209,-0.065,0.005,
210,-0.08,0.0,
211,-0.08,-0.005,
212,-0.075,0.015,
213,-0.095,0.015,
214,-0.085,0.015,
215,-0.07,0.025,
216,-0.065,0.03,
217,-0.055,0.025,
218,-0.06,0.005,
219,-0.075,0.005,
220,-0.075,0.01,
221,-0.095,0.0,
222,-0.085,0.015,
223,-0.1,0.005,
224,-0.1,0.0,
225,-0.09,0.005,
226,-0.09,0.005,
227,-0.085,0.01,
228,-0.085,0.0,
229,-0.07,0.005,
230,-0.1,0.015,
231,-0.085,0.01,
232,-0.075,-0.005,
233,-0.085,-0.01,
234,-0.085,0.0,
235,-0.1,-0.02,
236,-0.1,-0.015,
237,-0.1,-0.01,
238,-0.09,-0.02,
239,-0.1,-0.01,
240,-0.085,0.005,
241,-0.08,0.015,
242,-0.09,0.01,
243,-0.095,0.02,
244,-0.085,0.005,
245,-0.085,-0.015,
246,-0.085,-0.015,
247,-0.095,-0.02,
248,-0.095,-0.015,
249,-0.09,-0.005,
250,-0.09,0.0,
251,-0.09,0.015,
252,-0.08,0.0,
253,-0.075,0.01,
254,-0.08,0.01,
255,-0.06,0.005,
256,-0.04,0.005,
257,-0.035,0.025,
258,-0.03,0.055,
259,-0.01,0.07,
260,0.01,0.115,
261,0.025,0.145,
262,0.045,0.185,
263,0.065,0.185,
264,0.08,0.175,
265,0.1,0.19,
266,0.12,0.165,
267,0.145,0.155,
268,0.18,0.125,
269,0.2,0.085,
270,0.215,0.065,
271,0.215,0.04,
272,0.215,0.01,
273,0.18,0.0,
274,0.155,-0.015,
275,0.145,0.005,
276,0.155,0.0,
277,0.165,0.01,
278,0.17,0.01,
279,0.17,-0.015,
280,0.15,-0.05,
281,0.125,-0.08,
282,0.095,-0.11,
283,0.055,-0.115,
284,0.03,-0.115,
285,0.0,-0.08,
286,-0.025,-0.045,
287,-0.035,-0.03,
288,-0.045,-0.02,
289,-0.045,-0.005,
290,-0.065,-0.02,
291,-0.085,-0.015,
292,-0.115,-0.04,
293,-0.14,-0.04,
294,-0.145,-0.05,
295,-0.145,-0.045,
296,-0.155,-0.04,
297,-0.135,-0.035,
298,-0.135,-0.04,
299,-0.135,-0.045,
300,-0.13,-0.045,
301,-0.105,-0.045,
302,-0.105,-0.055,
303,-0.095,-0.045,
304,-0.105,-0.04,
305,-0.11,-0.02,
306,-0.115,0.0,
307,-0.1,0.02,
308,-0.05,0.08,
309,0.03,0.105,
310,0.17,0.13,
311,0.36,0.075,
312,0.545,0.005,
313,0.755,-0.125,
314,0.955,-0.325,
315,1.135,-0.56,
316,1.3,-0.855,
317,1.46,-1.215,
318,1.58,-1.57,
319,1.655,-1.89,
320,1.68,-2.12,N
321,1.65,-2.22,
322,1.57,-2.205,
323,1.42,-2.11,
324,1.195,-1.96,
325,0.91,-1.765,
326,0.61,-1.55,
327,0.34,-1.305,
328,0.13,-1.06,
329,-0.015,-0.855,
330,-0.09,-0.68,
331,-0.135,-0.575,
332,-0.15,-0.475,
333,-0.17,-0.41,
334,-0.18,-0.325,
335,-0.2,-0.265,
336,-0.235,-0.185,
337,-0.28,-0.12,
338,-0.3,-0.085,
339,-0.31,-0.04,
340,-0.32,-0.025,
341,-0.33,-0.005,
342,-0.33,0.005,
343,-0.34,0.0,
344,-0.345,0.005,
345,-0.35,0.03,
346,-0.345,0.04,
347,-0.345,0.055,
348,-0.35,0.06,
349,-0.355,0.085,
350,-0.35,0.07,
351,-0.355,0.085,
352,-0.355,0.075,
353,-0.355,0.09,
354,-0.365,0.085,
355,-0.38,0.095,
356,-0.38,0.1,
357,-0.385,0.095,
358,-0.38,0.11,
359,-0.37,0.115,
360,-0.37,0.14,
361,-0.36,0.165,
362,-0.37,0.175,
363,-0.375,0.19,
364,-0.385,0.175,
365,-0.385,0.175,
366,-0.385,0.175,
367,-0.405,0.165,
368,-0.4,0.17,
369,-0.405,0.19,
370,-0.41,0.215,
371,-0.41,0.23,
372,-0.42,0.245,
373,-0.425,0.275,
374,-0.42,0.26,
375,-0.425,0.24,
376,-0.445,0.25,
377,-0.455,0.255,
378,-0.475,0.25,
379,-0.49,0.27,
380,-0.495,0.265,
381,-0.51,0.295,
382,-0.525,0.325,
383,-0.525,0.325,
384,-0.535,0.33,
385,-0.555,0.345,
386,-0.56,0.34,
387,-0.575,0.345,
388,-0.6,0.345,
389,-0.63,0.35,
390,-0.655,0.36,
391,-0.665,0.36,
392,-0.665,0.375,
393,-0.68,0.39,
394,-0.695,0.405,
395,-0.695,0.405,
396,-0.7,0.41,
397,-0.7,0.415,
398,-0.7,0.42,
399,-0.705,0.42,
400,-0.72,0.42,
401,-0.72,0.42,
402,-0.715,0.425,
403,-0.715,0.415,
404,-0.705,0.415,
405,-0.685,0.405,
406,-0.67,0.405,
407,-0.65,0.4,
408,-0.635,0.405,
409,-0.605,0.4,
410,-0.59,0.385,
411,-0.555,0.365,
412,-0.545,0.345,
413,-0.52,0.32,
414,-0.5,0.29,
415,-0.475,0.255,
416,-0.435,0.235,
417,-0.41,0.23,
418,-0.37,0.225,
419,-0.345,0.21,
420,-0.325,0.205,
421,-0.295,0.195,
422,-0.275,0.155,
423,-0.255,0.15,
424,-0.245,0.12,
425,-0.23,0.09,
426,-0.22,0.07,
427,-0.22,0.06,
428,-0.2,0.05,
429,-0.19,0.06,
430,-0.185,0.065,
431,-0.18,0.07,
432,-0.17,0.065,
433,-0.17,0.055,
434,-0.165,0.045,
435,-0.15,0.035,
436,-0.16,0.03,
437,-0.165,0.02,
438,-0.18,0.025,
439,-0.175,0.02,
440,-0.17,0.025,
441,-0.175,0.035,
442,-0.16,0.04,
443,-0.155,0.035,
444,-0.165,0.035,
445,-0.15,0.035,
446,-0.15,0.035,
447,-0.165,0.04,
448,-0.165,0.025,
449,-0.185,0.035,
450,-0.175,0.03,
451,-0.19,0.035,
452,-0.195,0.035,
453,-0.19,0.035,
454,-0.195,0.04,
455,-0.17,0.04,
456,-0.16,0.035,
457,-0.16,0.045,
458,-0.165,0.055,
459,-0.165,0.05,
460,-0.16,0.055,
461,-0.185,0.045,
462,-0.19,0.05,
463,-0.195,0.05,
464,-0.185,0.035,
465,-0.19,0.035,
466,-0.15,0.045,
467,-0.135,0.055,
468,-0.105,0.07,
469,-0.075,0.08,
470,-0.05,0.085,
471,-0.025,0.1,
472,-0.005,0.125,
473,0.0,0.145,
474,0.025,0.175,
475,0.035,0.195,
476,0.065,0.235,
477,0.085,0.275,
478,0.125,0.305,
479,0.175,0.32,
480,0.225,0.355,
481,0.3,0.37,
482,0.38,0.375,
483,0.495,0.38,
484,0.6,0.335,
485,0.715,0.28,
486,0.8,0.22,
487,0.87,0.155,
488,0.93,0.105,
489,0.98,0.065,
490,1.02,0.025,
491,1.105,0.0,
492,1.195,-0.025,
493,1.285,-0.075,
494,1.39,-0.135,
495,1.465,-0.22,
496,1.515,-0.335,
497,1.55,-0.46,
498,1.545,-0.605,
499,1.5,-0.73,
500,1.385,-0.855,
501,1.195,-0.95,
502,0.885,-1.03,
503,0.495,-1.105,
504,0.04,-1.195,
505,-0.46,-1.31,
506,-0.905,-1.42,
507,-1.265,-1.565,
508,-1.545,-1.66,
509,-1.68,-1.705,
510,-1.7,-1.71,
511,-1.655,-1.65,V
512,-1.565,-1.575,
513,-1.44,-1.475,
514,-1.3,-1.34,
515,-1.2,-1.235,
516,-1.1,-1.08,
517,-1.01,-0.925,
518,-0.92,-0.765,
519,-0.805,-0.595,
520,-0.7,-0.445,
521,-0.585,-0.33,
522,-0.5,-0.25,
523,-0.455,-0.175,
524,-0.43,-0.13,
525,-0.42,-0.1,
526,-0.42,-0.065,
527,-0.425,-0.04,
528,-0.43,-0.02,
529,-0.42,-0.005,
530,-0.41,0.01,
531,-0.41,0.005,
532,-0.405,0.015,
533,-0.405,0.015,
534,-0.415,0.0,
535,-0.41,0.01,
536,-0.42,0.015,
537,-0.43,0.045,
538,-0.43,0.055,
539,-0.415,0.06,
540,-0.415,0.075,
541,-0.39,0.075,
542,-0.4,0.07,
543,-0.4,0.08,
544,-0.405,0.085,
545,-0.42,0.085,
546,-0.415,0.095,
547,-0.415,0.08,
548,-0.425,0.1,
549,-0.425,0.11,
550,-0.425,0.12,
551,-0.43,0.12,
552,-0.43,0.125,
553,-0.42,0.135,
554,-0.415,0.145,
555,-0.415,0.15,
556,-0.42,0.17,
557,-0.42,0.175,
558,-0.43,0.16,
559,-0.435,0.17,
560,-0.435,0.175,
561,-0.43,0.195,
562,-0.43,0.22,
563,-0.415,0.245,
564,-0.41,0.265,
565,-0.405,0.275,
566,-0.405,0.285,
567,-0.375,0.295,
568,-0.37,0.3,
569,-0.375,0.31,
570,-0.36,0.325,
571,-0.35,0.33,
572,-0.33,0.34,
573,-0.325,0.37,
574,-0.305,0.385,
575,-0.285,0.41,
576,-0.27,0.425,
577,-0.245,0.44,
578,-0.235,0.435,
579,-0.225,0.44,
580,-0.205,0.43,
581,-0.2,0.42,
582,-0.2,0.425,
583,-0.19,0.435,
584,-0.185,0.435,
585,-0.175,0.445,
586,-0.17,0.435,
587,-0.17,0.445,
588,-0.16,0.445,
589,-0.145,0.43,
590,-0.155,0.425,
591,-0.15,0.415,
592,-0.16,0.395,
593,-0.175,0.38,
594,-0.19,0.35,
595,-0.2,0.345,
596,-0.23,0.325,
597,-0.245,0.315,
598,-0.24,0.295,
599,-0.245,0.285,
600,-0.25,0.26,
601,-0.275,0.255,
602,-0.285,0.24,
603,-0.305,0.22,
604,-0.315,0.205,
605,-0.335,0.175,
606,-0.35,0.145,
607,-0.35,0.14,
608,-0.365,0.12,
609,-0.36,0.11,
610,-0.37,0.11,
611,-0.365,0.12,
612,-0.365,0.13,
613,-0.365,0.13,
614,-0.355,0.115,
615,-0.375,0.11,
616,-0.38,0.09,
617,-0.38,0.085,
618,-0.38,0.08,
619,-0.39,0.075,
620,-0.395,0.075,
621,-0.41,0.08,
622,-0.4,0.09,
623,-0.4,0.1,
624,-0.395,0.09,
625,-0.39,0.11,
626,-0.38,0.105,
627,-0.38,0.105,
628,-0.375,0.085,
629,-0.395,0.075,
630,-0.4,0.065,
631,-0.415,0.065,
632,-0.42,0.065,
633,-0.415,0.08,
634,-0.4,0.095,
635,-0.4,0.11,
636,-0.385,0.115,
637,-0.375,0.105,
638,-0.37,0.105,
639,-0.38,0.105,
640,-0.38,0.085,
641,-0.385,0.085,
642,-0.395,0.09,
643,-0.41,0.085,
644,-0.415,0.09,
645,-0.4,0.085,
646,-0.4,0.085,
647,-0.39,0.095,
648,-0.395,0.1,
649,-0.375,0.1,
650,-0.385,0.095,
651,-0.385,0.09,
652,-0.39,0.085,
653,-0.395,0.09,
654,-0.405,0.07,
655,-0.41,0.055,
656,-0.41,0.06,
657,-0.42,0.065,
658,-0.43,0.085,
659,-0.425,0.08,
660,-0.415,0.085,
661,-0.405,0.095,
662,-0.4,0.095,
663,-0.405,0.095,
664,-0.41,0.065,
665,-0.415,0.06,
666,-0.425,0.055,
667,-0.415,0.06,
668,-0.435,0.055,
669,-0.425,0.05,
670,-0.425,0.06,
671,-0.415,0.085,
672,-0.415,0.085,
673,-0.41,0.08,
674,-0.41,0.095,
675,-0.42,0.07,
676,-0.41,0.065,
677,-0.42,0.055,
678,-0.43,0.04,
679,-0.435,0.055,
680,-0.42,0.055,
681,-0.405,0.07,
682,-0.39,0.095,
683,-0.37,0.115,
684,-0.355,0.145,
685,-0.33,0.17,
686,-0.32,0.195,
687,-0.31,0.225,
688,-0.3,0.24,
689,-0.28,0.24,
690,-0.28,0.235,
691,-0.275,0.235,
692,-0.265,0.24,
693,-0.235,0.22,
694,-0.195,0.205,
695,-0.175,0.2,
696,-0.145,0.185,
697,-0.115,0.155,
698,-0.11,0.125,
699,-0.135,0.105,
700,-0.155,0.075,
701,-0.185,0.065,
702,-0.205,0.07,
703,-0.205,0.06,
704,-0.22,0.045,
705,-0.2,0.045,
706,-0.195,0.03,
707,-0.195,0.005,
708,-0.2,-0.005,
709,-0.225,-0.015,
710,-0.27,-0.035,
711,-0.3,-0.035,
712,-0.335,-0.04,
713,-0.375,-0.015,
714,-0.4,-0.01,
715,-0.415,0.0,
716,-0.435,0.01,
717,-0.445,0.005,
718,-0.45,0.015,
719,-0.465,0.025,
720,-0.475,0.035,
721,-0.465,0.045,
722,-0.49,0.04,
723,-0.495,0.04,
724,-0.495,0.025,
725,-0.51,0.005,
726,-0.5,0.005,
727,-0.51,0.0,
728,-0.515,0.0,
729,-0.505,0.0,
730,-0.5,0.015,
731,-0.495,0.015,
732,-0.485,0.035,
733,-0.48,0.02,
734,-0.49,0.045,
735,-0.47,0.07,
736,-0.46,0.09,
737,-0.43,0.13,
738,-0.36,0.16,
739,-0.245,0.195,
740,-0.09,0.17,
741,0.11,0.08,
742,0.315,-0.03,
743,0.515,-0.195,
744,0.695,-0.395,
745,0.865,-0.65,
746,1.035,-0.98,
747,1.165,-1.35,
748,1.285,-1.715,
749,1.34,-2.015,N
750,1.345,-2.21,
751,1.29,-2.265,
752,1.165,-2.22,
753,1.0,-2.11,
754,0.76,-1.94,
755,0.47,-1.76,
756,0.19,-1.53,
757,-0.055,-1.27,
758,-0.235,-1.02,
759,-0.36,-0.77,
760,-0.44,-0.615,
761,-0.48,-0.475,
762,-0.51,-0.405,
763,-0.53,-0.345,
764,-0.55,-0.275,
765,-0.58,-0.21,
766,-0.62,-0.12,
767,-0.63,-0.05,
768,-0.65,0.025,
769,-0.66,0.065,
770,-0.66,0.075,
771,-0.665,0.09,
772,-0.67,0.08,
773,-0.68,0.07,
774,-0.695,0.085,
775,-0.69,0.09,
776,-0.71,0.11,
777,-0.715,0.12,
778,-0.705,0.14,
779,-0.705,0.155,
780,-0.7,0.18,
781,-0.705,0.175,
782,-0.7,0.18,
783,-0.705,0.175,
784,-0.7,0.18,
785,-0.72,0.19,
786,-0.735,0.175,
787,-0.735,0.2,
788,-0.745,0.2,
789,-0.74,0.225,
790,-0.725,0.235,
791,-0.725,0.24,
792,-0.715,0.245,
793,-0.725,0.26,
794,-0.715,0.245,
795,-0.72,0.265,
796,-0.72,0.255,
797,-0.74,0.26,
798,-0.745,0.28,
799,-0.745,0.275,
800,-0.755,0.28,
801,-0.755,0.295,
802,-0.755,0.295,
803,-0.76,0.315,
804,-0.755,0.33,
805,-0.75,0.345,
806,-0.76,0.345,
807,-0.77,0.355,
808,-0.79,0.365,
809,-0.8,0.375,
810,-0.81,0.375,
811,-0.83,0.38,
812,-0.84,0.38,
813,-0.845,0.39,
814,-0.865,0.41,
815,-0.87,0.41,
816,-0.875,0.435,
817,-0.87,0.445,
818,-0.9,0.455,
819,-0.905,0.465,
820,-0.925,0.48,
821,-0.94,0.465,
822,-0.95,0.465,
823,-0.97,0.465,
824,-0.985,0.47,
825,-1.005,0.48,
826,-1.0,0.495,
827,-1.0,0.52,
828,-1.0,0.53,
829,-1.01,0.54,
830,-1.01,0.53,
831,-1.005,0.525,
832,-1.0,0.505,
833,-0.995,0.505,
834,-0.985,0.49,
835,-0.985,0.49,
836,-0.985,0.485,
837,-0.955,0.49,
838,-0.935,0.485,
839,-0.915,0.48,
840,-0.875,0.475,
841,-0.85,0.445,
842,-0.825,0.43,
843,-0.805,0.405,
844,-0.78,0.37,
845,-0.76,0.355,
846,-0.735,0.33,
847,-0.715,0.315,
848,-0.705,0.29,
849,-0.685,0.29,
850,-0.66,0.265,
851,-0.625,0.245,
852,-0.605,0.22,
853,-0.575,0.215,
854,-0.565,0.195,
855,-0.56,0.175,
856,-0.56,0.17,
857,-0.555,0.155,
858,-0.555,0.125,
859,-0.55,0.12,
860,-0.545,0.12,
861,-0.545,0.115,
862,-0.535,0.125,
863,-0.53,0.12,
864,-0.525,0.115,
865,-0.51,0.125,
866,-0.51,0.13,
867,-0.515,0.12,
868,-0.51,0.1,
869,-0.51,0.095,
870,-0.525,0.08,
871,-0.53,0.09,
872,-0.53,0.095,
873,-0.53,0.085,
874,-0.52,0.1,
875,-0.53,0.115,
876,-0.52,0.13,
877,-0.505,0.13,
878,-0.5,0.13,
879,-0.5,0.115,
880,-0.52,0.115,
881,-0.515,0.105,
882,-0.525,0.1,
883,-0.53,0.1,
884,-0.53,0.1,
885,-0.53,0.115,
886,-0.525,0.125,
887,-0.52,0.12,
888,-0.51,0.135,
889,-0.505,0.14,
890,-0.5,0.135,
891,-0.5,0.14,
892,-0.52,0.125,
893,-0.52,0.125,
894,-0.535,0.12,
895,-0.54,0.13,
896,-0.52,0.135,
897,-0.51,0.15,
898,-0.5,0.155,
899,-0.485,0.175,
900,-0.465,0.2,
901,-0.44,0.23,
902,-0.415,0.26,
903,-0.4,0.295,
904,-0.38,0.3,
905,-0.38,0.295,
906,-0.36,0.305,
907,-0.36,0.3,
908,-0.335,0.29,
909,-0.315,0.3,
910,-0.275,0.285,
911,-0.23,0.28,
912,-0.185,0.265,
913,-0.16,0.23,
914,-0.17,0.185,
915,-0.18,0.16,
916,-0.205,0.12,
917,-0.225,0.1,
918,-0.245,0.095,
919,-0.245,0.095,
920,-0.24,0.085,
921,-0.235,0.07,
922,-0.235,0.07,
923,-0.25,0.05,
924,-0.275,0.025,
925,-0.295,0.01,
926,-0.335,0.005,
927,-0.375,0.025,
928,-0.41,0.045,
929,-0.44,0.055,
930,-0.465,0.065,
931,-0.47,0.065,
932,-0.5,0.07,
933,-0.5,0.07,
934,-0.525,0.075,
935,-0.535,0.085,
936,-0.53,0.08,
937,-0.525,0.075,
938,-0.525,0.06,
939,-0.53,0.06,
940,-0.51,0.065,
941,-0.525,0.045,
942,-0.525,0.055,
943,-0.535,0.03,
944,-0.535,0.04,
945,-0.525,0.035,
946,-0.505,0.045,
947,-0.515,0.045,
948,-0.505,0.065,
949,-0.485,0.095,
950,-0.48,0.135,
951,-0.46,0.175,
952,-0.415,0.22,
953,-0.325,0.235,
954,-0.185,0.235,
955,0.0,0.175,
956,0.195,0.06,
957,0.4,-0.09,
958,0.61,-0.255,
959,0.79,-0.51,
960,0.945,-0.795,
961,1.105,-1.15,
962,1.225,-1.54,
963,1.315,-1.885,
964,1.335,-2.13,N
965,1.305,-2.28,
966,1.225,-2.305,
967,1.095,-2.22,
968,0.9,-2.085,
969,0.655,-1.91,
970,0.37,-1.7,
971,0.095,-1.46,
972,-0.12,-1.2,
973,-0.275,-0.935,
974,-0.38,-0.735,
975,-0.445,-0.56,
976,-0.475,-0.45,
977,-0.5,-0.365,
978,-0.525,-0.295,
979,-0.54,-0.215,
980,-0.57,-0.145,
981,-0.6,-0.065,
982,-0.625,-0.01,
983,-0.63,0.04,
984,-0.625,0.085,
985,-0.63,0.105,
986,-0.62,0.11,
987,-0.63,0.12,
988,-0.625,0.125,
989,-0.65,0.135,
990,-0.645,0.135,
991,-0.65,0.125,
992,-0.655,0.14,
993,-0.655,0.15,
994,-0.655,0.17,
995,-0.65,0.175,
996,-0.645,0.195,
997,-0.63,0.215,
998,-0.63,0.21,
999,-0.65,0.23,
1000,-0.66,0.22,
1001,-0.665,0.215,
1002,-0.67,0.22,
1003,-0.675,0.23,
1004,-0.68,0.22,
1005,-0.67,0.245,
1006,-0.65,0.27,
1007,-0.65,0.28,
1008,-0.635,0.285,
1009,-0.645,0.295,
1010,-0.645,0.3,
1011,-0.645,0.3,
1012,-0.665,0.3,
1013,-0.665,0.31,
1014,-0.685,0.315,
1015,-0.69,0.33,
1016,-0.695,0.34,
1017,-0.685,0.365,
1018,-0.695,0.37,
1019,-0.7,0.395,
1020,-0.685,0.405,
1021,-0.695,0.405,
1022,-0.715,0.425,
1023,-0.72,0.415,
1024,-0.735,0.43,
1025,-0.75,0.44,
1026,-0.765,0.45,
1027,-0.77,0.475,
1028,-0.775,0.475,
1029,-0.785,0.505,
1030,-0.79,0.515,
1031,-0.795,0.525,
1032,-0.805,0.535,
1033,-0.795,0.545,
1034,-0.82,0.55,
1035,-0.81,0.56,
1036,-0.805,0.565,
1037,-0.82,0.57,
1038,-0.835,0.57,
1039,-0.835,0.565,
1040,-0.845,0.565,
1041,-0.84,0.58,
1042,-0.83,0.58,
1043,-0.815,0.595,
1044,-0.8,0.595,
1045,-0.78,0.59,
1046,-0.77,0.575,
1047,-0.75,0.57,
1048,-0.74,0.545,
1049,-0.72,0.52,
1050,-0.715,0.5,
1051,-0.695,0.48,
1052,-0.68,0.44,
1053,-0.645,0.435,
1054,-0.625,0.42,
1055,-0.605,0.405,
1056,-0.575,0.385,
1057,-0.55,0.36,
1058,-0.54,0.33,
1059,-0.52,0.295,
1060,-0.515,0.27,
1061,-0.505,0.24,
1062,-0.49,0.215,
1063,-0.485,0.225,
1064,-0.48,0.19,
1065,-0.465,0.185,
1066,-0.465,0.175,
1067,-0.445,0.175,
1068,-0.435,0.175,
1069,-0.42,0.155,
1070,-0.43,0.145,
1071,-0.42,0.13,
1072,-0.425,0.11,
1073,-0.415,0.105,
1074,-0.41,0.11,
1075,-0.415,0.105,
1076,-0.395,0.105,
1077,-0.375,0.115,
1078,-0.36,0.12,
1079,-0.34,0.11,
1080,-0.295,0.12,
1081,-0.27,0.105,
1082,-0.23,0.115,
1083,-0.19,0.11,
1084,-0.145,0.105,
1085,-0.105,0.1,
1086,-0.045,0.085,
1087,0.02,0.08,
1088,0.1,0.07,
1089,0.19,0.065,
1090,0.28,0.045,
1091,0.4,0.05,
1092,0.5,0.035,
1093,0.555,-0.005,
1094,0.53,-0.04,
1095,0.42,-0.11,
1096,0.18,-0.18,
1097,-0.185,-0.26,
1098,-0.625,-0.32,
1099,-1.085,-0.345,
1100,-1.48,-0.36,
1101,-1.78,-0.345,
1102,-2.005,-0.355,
1103,-2.14,-0.355,
1104,-2.23,-0.385,
1105,-2.32,-0.41,
1106,-2.38,-0.405,
1107,-2.435,-0.355,V
1108,-2.47,-0.265,
1109,-2.47,-0.135,
1110,-2.455,0.035,
1111,-2.42,0.23,
1112,-2.335,0.42,
1113,-2.24,0.605,
1114,-2.13,0.75,
1115,-2.015,0.895,
1116,-1.895,0.995,
1117,-1.79,1.09,
1118,-1.68,1.17,
1119,-1.6,1.205,
1120,-1.55,1.24,
1121,-1.49,1.24,
1122,-1.405,1.22,
1123,-1.29,1.14,
1124,-1.16,0.965,
1125,-1.02,0.725,
1126,-0.925,0.435,
1127,-0.86,0.11,
1128,-0.82,-0.16,
1129,-0.79,-0.355,
1130,-0.74,-0.44,
1131,-0.65,-0.43,
1132,-0.52,-0.38,
1133,-0.365,-0.3,
1134,-0.18,-0.245,
1135,-0.025,-0.19,
1136,0.08,-0.16,
1137,0.15,-0.135,
1138,0.17,-0.12,
1139,0.15,-0.095,
1140,0.135,-0.08,
1141,0.115,-0.07,
1142,0.105,-0.05,
1143,0.115,-0.05,
1144,0.135,-0.05,
1145,0.155,-0.055,
1146,0.165,-0.05,
1147,0.185,-0.055,
1148,0.2,-0.04,
1149,0.205,-0.035,
1150,0.22,-0.02,
1151,0.245,-0.02,
1152,0.275,-0.015,
1153,0.29,-0.015,
1154,0.31,-0.035,
1155,0.315,-0.04,
1156,0.335,-0.06,
1157,0.34,-0.06,
1158,0.355,-0.06,
1159,0.37,-0.06,
1160,0.38,-0.05,
1161,0.405,-0.05,
1162,0.435,-0.04,
1163,0.455,-0.04,
1164,0.49,-0.035,
1165,0.5,-0.055,
1166,0.53,-0.05,
1167,0.555,-0.065,
1168,0.555,-0.075,
1169,0.57,-0.07,
1170,0.585,-0.065,
1171,0.61,-0.075,
1172,0.645,-0.08,
1173,0.665,-0.085,
1174,0.69,-0.085,
1175,0.71,-0.09,
1176,0.735,-0.075,
1177,0.755,-0.085,
1178,0.77,-0.09,
1179,0.775,-0.1,
1180,0.775,-0.115,
1181,0.78,-0.125,
1182,0.77,-0.135,
1183,0.76,-0.15,
1184,0.76,-0.155,
1185,0.745,-0.16,
1186,0.755,-0.155,
1187,0.745,-0.165,
1188,0.73,-0.175,
1189,0.71,-0.18,
1190,0.685,-0.175,
1191,0.65,-0.19,
1192,0.605,-0.215,
1193,0.56,-0.22,
1194,0.515,-0.21,
1195,0.475,-0.21,
1196,0.445,-0.205,
1197,0.415,-0.185,
1198,0.375,-0.165,
1199,0.345,-0.15,
1200,0.305,-0.145,
1201,0.26,-0.135,
1202,0.23,-0.11,
1203,0.185,-0.11,
1204,0.14,-0.09,
1205,0.1,-0.075,
1206,0.065,-0.065,
1207,0.03,-0.035,
1208,0.005,-0.005,
1209,-0.02,0.015,
1210,-0.05,0.02,
1211,-0.06,0.04,
1212,-0.06,0.055,
1213,-0.08,0.07,
1214,-0.11,0.075,
1215,-0.125,0.085,
1216,-0.145,0.085,
1217,-0.16,0.08,
1218,-0.18,0.08,
1219,-0.19,0.09,
1220,-0.185,0.085,
1221,-0.19,0.095,
1222,-0.2,0.11,
1223,-0.19,0.115,
1224,-0.18,0.12,
1225,-0.195,0.105,
1226,-0.19,0.115,
1227,-0.205,0.1,
1228,-0.215,0.105,
1229,-0.215,0.09,
1230,-0.225,0.08,
1231,-0.24,0.085,
1232,-0.23,0.09,
1233,-0.22,0.115,
1234,-0.215,0.115,
1235,-0.21,0.12,
1236,-0.2,0.12,
1237,-0.195,0.125,
1238,-0.195,0.115,
1239,-0.19,0.1,
1240,-0.21,0.09,
1241,-0.21,0.095,
1242,-0.215,0.075,
1243,-0.225,0.095,
1244,-0.22,0.1,
1245,-0.22,0.11,
1246,-0.225,0.105,
1247,-0.225,0.115,
1248,-0.21,0.12,
1249,-0.21,0.1,
1250,-0.205,0.1,
1251,-0.21,0.1,
1252,-0.22,0.09,
1253,-0.235,0.085,
1254,-0.235,0.095,
1255,-0.245,0.09,
1256,-0.25,0.095,
1257,-0.24,0.085,
1258,-0.24,0.095,
1259,-0.235,0.095,
1260,-0.22,0.1,
1261,-0.225,0.11,
1262,-0.23,0.1,
1263,-0.24,0.095,
1264,-0.24,0.08,
1265,-0.255,0.075,
1266,-0.26,0.075,
1267,-0.26,0.065,
1268,-0.27,0.07,
1269,-0.27,0.08,
1270,-0.255,0.075,
1271,-0.26,0.09,
1272,-0.245,0.095,
1273,-0.25,0.085,
1274,-0.235,0.095,
1275,-0.235,0.085,
1276,-0.24,0.07,
1277,-0.24,0.07,
1278,-0.255,0.06,
1279,-0.26,0.065,
1280,-0.265,0.07,
1281,-0.245,0.065,
1282,-0.245,0.07,
1283,-0.235,0.065,
1284,-0.23,0.075,
1285,-0.23,0.06,
1286,-0.24,0.065,
1287,-0.245,0.055,
1288,-0.245,0.045,
1289,-0.255,0.05,
1290,-0.255,0.05,
1291,-0.245,0.05,
1292,-0.24,0.055,
1293,-0.245,0.06,
1294,-0.25,0.06,
1295,-0.24,0.06,
1296,-0.23,0.075,
1297,-0.22,0.07,
1298,-0.23,0.08,
1299,-0.22,0.075,
1300,-0.225,0.055,
1301,-0.235,0.04,
1302,-0.245,0.03,
1303,-0.23,0.04,
1304,-0.23,0.035,
1305,-0.24,0.055,
1306,-0.235,0.065,
1307,-0.225,0.065,
1308,-0.2,0.065,
1309,-0.2,0.06,
1310,-0.2,0.065,
1311,-0.2,0.05,
1312,-0.21,0.035,
1313,-0.22,0.04,
1314,-0.21,0.035,
1315,-0.21,0.045,
1316,-0.19,0.055,
1317,-0.175,0.075,
1318,-0.155,0.09,
1319,-0.12,0.125,
1320,-0.105,0.165,
1321,-0.08,0.19,
1322,-0.07,0.22,
1323,-0.045,0.235,
1324,-0.04,0.24,
1325,-0.045,0.235,
1326,-0.05,0.23,
1327,-0.03,0.22,
1328,-0.005,0.215,
1329,0.035,0.205,
1330,0.07,0.18,
1331,0.125,0.155,
1332,0.16,0.13,
1333,0.165,0.11,
1334,0.15,0.1,
1335,0.11,0.07,
1336,0.08,0.045,
1337,0.075,0.02,
1338,0.065,0.03,
1339,0.06,0.005,
1340,0.08,0.015,
1341,0.09,-0.005,
1342,0.085,-0.03,
1343,0.065,-0.055,
1344,0.055,-0.055,
1345,0.015,-0.07,
1346,-0.025,-0.065,
1347,-0.045,-0.065,
1348,-0.07,-0.055,
1349,-0.115,-0.03,
1350,-0.135,-0.035,
1351,-0.155,-0.035,
1352,-0.17,-0.025,
1353,-0.19,0.005,
1354,-0.195,-0.005,
1355,-0.19,0.015,
1356,-0.19,0.025,
1357,-0.205,0.01,
1358,-0.2,0.0,
1359,-0.2,-0.005,
1360,-0.205,-0.02,
1361,-0.205,-0.03,
1362,-0.2,-0.04,
1363,-0.21,-0.03,
1364,-0.21,-0.03,
1365,-0.205,-0.025,
1366,-0.2,-0.015,
1367,-0.19,-0.01,
1368,-0.185,0.015,
1369,-0.17,0.035,
1370,-0.15,0.07,
1371,-0.11,0.105,
1372,-0.05,0.145,
1373,0.055,0.15,
1374,0.205,0.135,
1375,0.38,0.04,
1376,0.585,-0.095,
1377,0.79,-0.265,
1378,0.98,-0.475,
1379,1.14,-0.735,
1380,1.315,-1.055,
1381,1.445,-1.41,
1382,1.57,-1.77,
1383,1.64,-2.065,N
1384,1.635,-2.27,
1385,1.58,-2.345,
1386,1.48,-2.305,
1387,1.325,-2.215,
1388,1.095,-2.06,
1389,0.83,-1.88,
1390,0.545,-1.655,
1391,0.305,-1.405,
1392,0.12,-1.135,
1393,-0.015,-0.885,
1394,-0.085,-0.705,
1395,-0.14,-0.565,
1396,-0.175,-0.485,
1397,-0.19,-0.405,
1398,-0.23,-0.345,
1399,-0.27,-0.28,
1400,-0.3,-0.205,
1401,-0.325,-0.125,
1402,-0.335,-0.06,
1403,-0.345,-0.005,
1404,-0.345,0.03,
1405,-0.34,0.04,
1406,-0.345,0.035,
1407,-0.34,0.03,
1408,-0.355,0.045,
1409,-0.365,0.04,
1410,-0.37,0.045,
1411,-0.39,0.05,
1412,-0.38,0.08,
1413,-0.37,0.085,
1414,-0.38,0.1,
1415,-0.37,0.11,
1416,-0.375,0.13,
1417,-0.365,0.125,
1418,-0.375,0.13,
1419,-0.37,0.13,
1420,-0.37,0.14,
1421,-0.39,0.14,
1422,-0.39,0.13,
1423,-0.405,0.145,
1424,-0.4,0.155,
1425,-0.405,0.175,
1426,-0.395,0.185,
1427,-0.39,0.185,
1428,-0.39,0.185,
1429,-0.395,0.21,
1430,-0.405,0.205,
1431,-0.4,0.22,
1432,-0.405,0.21,
1433,-0.43,0.225,
1434,-0.43,0.215,
1435,-0.44,0.22,
1436,-0.435,0.24,
1437,-0.45,0.24,
1438,-0.445,0.25,
1439,-0.445,0.28,
1440,-0.445,0.285,
1441,-0.46,0.295,
1442,-0.475,0.31,
1443,-0.495,0.3,
1444,-0.51,0.3,
1445,-0.525,0.305,
1446,-0.545,0.305,
1447,-0.56,0.32,
1448,-0.57,0.33,
1449,-0.59,0.345,
1450,-0.6,0.375,
1451,-0.605,0.37,
1452,-0.61,0.39,
1453,-0.63,0.4,
1454,-0.64,0.4,
1455,-0.66,0.395,
1456,-0.68,0.385,
1457,-0.705,0.395,
1458,-0.715,0.38,
1459,-0.735,0.385,
1460,-0.745,0.405,
1461,-0.74,0.42,
1462,-0.745,0.43,
1463,-0.74,0.435,
1464,-0.74,0.44,
1465,-0.725,0.435,
1466,-0.73,0.44,
1467,-0.725,0.425,
1468,-0.725,0.405,
1469,-0.725,0.41,
1470,-0.705,0.395,
1471,-0.7,0.39,
1472,-0.68,0.385,
1473,-0.655,0.38,
1474,-0.625,0.365,
1475,-0.6,0.36,
1476,-0.565,0.36,
1477,-0.545,0.34,
1478,-0.515,0.305,
1479,-0.485,0.295,
1480,-0.465,0.275,
1481,-0.44,0.24,
1482,-0.415,0.22,
1483,-0.39,0.195,
1484,-0.37,0.18,
1485,-0.34,0.165,
1486,-0.3,0.145,
1487,-0.275,0.13,
1488,-0.255,0.115,
1489,-0.24,0.105,
1490,-0.225,0.085,
1491,-0.195,0.07,
1492,-0.2,0.06,
1493,-0.195,0.04,
1494,-0.19,0.025,
1495,-0.195,0.015,
1496,-0.185,0.015,
1497,-0.175,0.025,
1498,-0.175,0.025,
1499,-0.155,0.045,
1500,-0.155,0.035,
1501,-0.145,0.025,
1502,-0.15,0.025,
1503,-0.15,0.005,
1504,-0.155,0.0,
1505,-0.15,0.005,
1506,-0.16,-0.005,
1507,-0.15,0.005,
1508,-0.155,0.02,
1509,-0.145,0.02,
1510,-0.14,0.005,
1511,-0.135,0.03,
1512,-0.12,0.02,
1513,-0.12,0.02,
1514,-0.13,0.015,
1515,-0.13,0.015,
1516,-0.135,0.01,
1517,-0.135,0.01,
1518,-0.145,0.01,
1519,-0.155,0.01,
1520,-0.15,0.01,
1521,-0.145,0.015,
1522,-0.145,0.03,
1523,-0.135,0.03,
1524,-0.115,0.045,
1525,-0.12,0.04,
1526,-0.12,0.05,
1527,-0.115,0.05,
1528,-0.11,0.045,
1529,-0.11,0.045,
1530,-0.105,0.03,
1531,-0.1,0.035,
1532,-0.08,0.02,
1533,-0.06,0.04,
1534,-0.03,0.055,
1535,0.0,0.07,
1536,0.035,0.115,
1537,0.06,0.125,
1538,0.07,0.155,
1539,0.095,0.205,
1540,0.125,0.23,
1541,0.145,0.255,
1542,0.18,0.275,
1543,0.225,0.29,
1544,0.285,0.3,
1545,0.35,0.335,
1546,0.44,0.36,
1547,0.555,0.365,
1548,0.67,0.325,
1549,0.79,0.285,
1550,0.875,0.21,
1551,0.965,0.135,
1552,1.015,0.06,
1553,1.06,0.005,
1554,1.105,-0.05,
1555,1.175,-0.08,
1556,1.265,-0.1,
1557,1.35,-0.15,
1558,1.45,-0.215,
1559,1.525,-0.315,
1560,1.575,-0.43,
1561,1.595,-0.57,
1562,1.565,-0.72,
1563,1.475,-0.855,
1564,1.315,-0.98,
1565,1.075,-1.08,
1566,0.725,-1.15,
1567,0.3,-1.23,
1568,-0.18,-1.315,
1569,-0.645,-1.415,
1570,-1.045,-1.525,
1571,-1.36,-1.66,
1572,-1.555,-1.71,
1573,-1.64,-1.725,
1574,-1.64,-1.71,V
1575,-1.57,-1.66,
1576,-1.48,-1.615,
1577,-1.355,-1.52,
1578,-1.24,-1.41,
1579,-1.15,-1.295,
1580,-1.075,-1.16,
1581,-0.99,-1.02,
1582,-0.895,-0.84,
1583,-0.77,-0.675,
1584,-0.665,-0.53,
1585,-0.55,-0.41,
1586,-0.445,-0.29,
1587,-0.35,-0.225,
1588,-0.32,-0.17,
1589,-0.28,-0.13,
1590,-0.295,-0.115,
1591,-0.305,-0.09,
1592,-0.305,-0.075,
1593,-0.295,-0.05,
1594,-0.285,-0.02,
1595,-0.285,-0.01,
1596,-0.275,0.005,
1597,-0.265,0.01,
1598,-0.255,0.005,
1599,-0.245,0.005,
1600,-0.26,0.015,
1601,-0.26,0.0,
1602,-0.27,-0.01,
1603,-0.26,0.005,
1604,-0.27,0.025,
1605,-0.255,0.045,
1606,-0.245,0.06,
1607,-0.255,0.06,
1608,-0.245,0.06,
1609,-0.24,0.07,
1610,-0.23,0.075,
1611,-0.24,0.06,
1612,-0.245,0.065,
1613,-0.25,0.06,
1614,-0.25,0.07,
1615,-0.26,0.08,
1616,-0.255,0.09,
1617,-0.255,0.1,
1618,-0.24,0.11,
1619,-0.235,0.125,
1620,-0.23,0.135,
1621,-0.23,0.145,
1622,-0.23,0.14,
1623,-0.235,0.155,
1624,-0.245,0.15,
1625,-0.24,0.165,
1626,-0.245,0.18,
1627,-0.24,0.185,
1628,-0.23,0.2,
1629,-0.225,0.205,
1630,-0.225,0.225,
1631,-0.195,0.245,
1632,-0.18,0.26,
1633,-0.17,0.28,
1634,-0.165,0.3,
1635,-0.145,0.3,
1636,-0.135,0.31,
1637,-0.14,0.325,
1638,-0.125,0.325,
1639,-0.125,0.34,
1640,-0.11,0.35,
1641,-0.085,0.365,
1642,-0.065,0.39,
1643,-0.05,0.41,
1644,-0.025,0.425,
1645,-0.005,0.43,
1646,0.01,0.44,
1647,0.025,0.435,
1648,0.035,0.435,
1649,0.02,0.425,
1650,0.02,0.415,
1651,0.025,0.42,
1652,0.04,0.425,
1653,0.045,0.44,
1654,0.045,0.44,
1655,0.07,0.42,
1656,0.065,0.415,
1657,0.07,0.4,
1658,0.06,0.39,
1659,0.045,0.365,
1660,0.03,0.35,
1661,0.015,0.325,
1662,-0.005,0.31,
1663,-0.02,0.295,
1664,-0.02,0.295,
1665,-0.035,0.26,
1666,-0.04,0.26,
1667,-0.05,0.225,
1668,-0.055,0.225,
1669,-0.06,0.195,
1670,-0.07,0.185,
1671,-0.08,0.15,
1672,-0.11,0.14,
1673,-0.115,0.115,
1674,-0.12,0.11,
1675,-0.135,0.105,
1676,-0.13,0.1,
1677,-0.135,0.08,
1678,-0.125,0.09,
1679,-0.14,0.08,
1680,-0.12,0.085,
1681,-0.13,0.075,
1682,-0.13,0.08,
1683,-0.135,0.06,
1684,-0.145,0.06,
1685,-0.16,0.04,
1686,-0.155,0.045,
1687,-0.16,0.04,
1688,-0.17,0.03,
1689,-0.16,0.045,
1690,-0.16,0.04,
1691,-0.14,0.05,
1692,-0.135,0.065,
1693,-0.13,0.065,
1694,-0.135,0.05,
1695,-0.14,0.055,
1696,-0.135,0.04,
1697,-0.14,0.03,
1698,-0.14,0.015,
1699,-0.145,0.025,
1700,-0.145,0.03,
1701,-0.13,0.055,
1702,-0.12,0.06,
1703,-0.115,0.075,
1704,-0.095,0.06,
1705,-0.105,0.055,
1706,-0.11,0.055,
1707,-0.12,0.035,
1708,-0.12,0.035,
1709,-0.12,0.03,
1710,-0.115,0.02,
1711,-0.125,0.02,
1712,-0.13,0.045,
1713,-0.125,0.05,
1714,-0.11,0.045,
1715,-0.11,0.055,
1716,-0.105,0.06,
1717,-0.105,0.055,
1718,-0.105,0.05,
1719,-0.11,0.04,
1720,-0.12,0.035,
1721,-0.12,0.03,
1722,-0.125,0.025,
1723,-0.135,0.025,
1724,-0.14,0.02,
1725,-0.125,0.02,
1726,-0.115,0.025,
1727,-0.115,0.04,
1728,-0.11,0.04,
1729,-0.105,0.035,
1730,-0.12,0.03,
1731,-0.11,0.04,
1732,-0.12,0.03,
1733,-0.125,0.025,
1734,-0.12,0.015,
1735,-0.115,0.015,
1736,-0.115,0.01,
1737,-0.115,0.01,
1738,-0.11,0.02,
1739,-0.11,0.035,
1740,-0.105,0.035,
1741,-0.095,0.025,
1742,-0.115,0.025,
1743,-0.11,0.02,
1744,-0.115,0.005,
1745,-0.105,-0.005,
1746,-0.125,-0.02,
1747,-0.115,-0.015,
1748,-0.11,-0.01,
1749,-0.09,0.005,
1750,-0.08,0.025,
1751,-0.065,0.03,
1752,-0.05,0.055,
1753,-0.03,0.07,
1754,-0.015,0.095,
1755,-0.005,0.11,
1756,0.005,0.13,
1757,0.01,0.15,
1758,0.01,0.17,
1759,0.035,0.19,
1760,0.045,0.185,
1761,0.04,0.21,
1762,0.065,0.205,
1763,0.09,0.195,
1764,0.135,0.195,
1765,0.16,0.17,
1766,0.19,0.145,
1767,0.23,0.115,
1768,0.235,0.08,
1769,0.22,0.045,
1770,0.21,0.03,
1771,0.185,0.015,
1772,0.165,0.015,
1773,0.155,0.01,
1774,0.16,0.005,
1775,0.165,0.005,
1776,0.18,-0.005,
1777,0.19,-0.03,
1778,0.17,-0.05,
1779,0.16,-0.08,
1780,0.13,-0.11,
1781,0.09,-0.115,
1782,0.06,-0.12,
1783,0.025,-0.11,
1784,-0.005,-0.095,
1785,-0.04,-0.07,
1786,-0.055,-0.045,
1787,-0.06,-0.025,
1788,-0.065,-0.02,
1789,-0.095,-0.035,
1790,-0.095,-0.02,
1791,-0.105,-0.035,
1792,-0.13,-0.03,
1793,-0.145,-0.05,
1794,-0.155,-0.045,
1795,-0.15,-0.06,
1796,-0.155,-0.06,
1797,-0.145,-0.055,
1798,-0.12,-0.055,
1799,-0.125,-0.05,
1800,-0.12,-0.045,
1801,-0.11,-0.04,
1802,-0.105,-0.035,
1803,-0.1,-0.05,
1804,-0.1,-0.05,
1805,-0.11,-0.04,
1806,-0.09,-0.005,
1807,-0.065,0.05,
1808,-0.02,0.11,
1809,0.085,0.14,
1810,0.24,0.13,
1811,0.43,0.055,
1812,0.625,-0.07,
1813,0.835,-0.245,
1814,1.01,-0.46,
1815,1.175,-0.735,
1816,1.33,-1.06,
1817,1.465,-1.42,
1818,1.57,-1.795,
1819,1.625,-2.115,N
1820,1.635,-2.32,
1821,1.575,-2.39,
1822,1.47,-2.35,
1823,1.32,-2.24,
1824,1.095,-2.085,
1825,0.835,-1.895,
1826,0.555,-1.655,
1827,0.335,-1.4,
1828,0.14,-1.125,
1829,0.04,-0.885,
1830,-0.05,-0.705,
1831,-0.085,-0.575,
1832,-0.105,-0.48,
1833,-0.13,-0.39,
1834,-0.155,-0.31,
1835,-0.19,-0.22,
1836,-0.22,-0.14,
1837,-0.245,-0.075,
1838,-0.255,-0.035,
1839,-0.27,-0.01,
1840,-0.28,-0.005,
1841,-0.285,0.0,
1842,-0.295,0.01,
1843,-0.295,0.02,
1844,-0.295,0.025,
1845,-0.295,0.05,
1846,-0.295,0.075,
1847,-0.285,0.095,
1848,-0.29,0.1,
1849,-0.285,0.105,
1850,-0.29,0.11,
1851,-0.29,0.115,
1852,-0.3,0.105,
1853,-0.305,0.125,
1854,-0.32,0.12,
1855,-0.315,0.125,
1856,-0.32,0.14,
1857,-0.305,0.155,
1858,-0.315,0.17,
1859,-0.305,0.18,
1860,-0.31,0.185,
1861,-0.315,0.18,
1862,-0.315,0.19,
1863,-0.31,0.195,
1864,-0.33,0.195,
1865,-0.335,0.195,
1866,-0.34,0.205,
1867,-0.35,0.22,
1868,-0.355,0.23,
1869,-0.36,0.24,
1870,-0.365,0.25,
1871,-0.37,0.27,
1872,-0.365,0.27,
1873,-0.355,0.29,
1874,-0.36,0.295,
1875,-0.38,0.295,
1876,-0.4,0.295,
1877,-0.41,0.3,
1878,-0.435,0.29,
1879,-0.465,0.305,
1880,-0.47,0.315,
1881,-0.475,0.33,
1882,-0.49,0.345,
1883,-0.495,0.365,
1884,-0.5,0.39,
1885,-0.51,0.39,
1886,-0.52,0.385,
1887,-0.535,0.39,
1888,-0.55,0.395,
1889,-0.56,0.39,
1890,-0.575,0.39,
1891,-0.59,0.405,
1892,-0.605,0.42,
1893,-0.605,0.425,
1894,-0.62,0.45,
1895,-0.625,0.44,
1896,-0.61,0.45,
1897,-0.585,0.44,
1898,-0.58,0.435,
1899,-0.58,0.425,
1900,-0.57,0.425,
1901,-0.565,0.41,
1902,-0.56,0.405,
1903,-0.55,0.39,
1904,-0.53,0.395,
1905,-0.51,0.375,
1906,-0.49,0.37,
1907,-0.47,0.365,
1908,-0.43,0.355,
1909,-0.395,0.32,
1910,-0.385,0.305,
1911,-0.35,0.29,
1912,-0.335,0.265,
1913,-0.315,0.245,
1914,-0.305,0.205,
1915,-0.285,0.2,
1916,-0.255,0.17,
1917,-0.23,0.15,
1918,-0.2,0.14,
1919,-0.175,0.135,
1920,-0.15,0.125,
1921,-0.13,0.105,
1922,-0.125,0.08,
1923,-0.1,0.065,
1924,-0.11,0.055,
1925,-0.11,0.035,
1926,-0.115,0.02,
1927,-0.125,0.025,
1928,-0.115,0.02,
1929,-0.11,0.01,
1930,-0.095,0.015,
1931,-0.1,0.03,
1932,-0.09,0.03,
1933,-0.09,0.02,
1934,-0.08,0.015,
1935,-0.08,0.015,
1936,-0.085,-0.005,
1937,-0.085,-0.02,
1938,-0.09,-0.025,
1939,-0.1,-0.01,
1940,-0.095,-0.015,
1941,-0.09,0.005,
1942,-0.085,0.02,
1943,-0.09,0.02,
1944,-0.08,0.025,
1945,-0.09,0.01,
1946,-0.085,0.015,
1947,-0.095,-0.005,
1948,-0.1,0.0,
1949,-0.095,0.0,
1950,-0.095,0.0,
1951,-0.1,0.0,
1952,-0.1,0.005,
1953,-0.095,0.01,
1954,-0.095,0.01,
1955,-0.095,0.02,
1956,-0.1,0.015,
1957,-0.08,0.02,
1958,-0.085,0.03,
1959,-0.08,0.02,
1960,-0.085,0.015,
1961,-0.09,0.015,
1962,-0.095,0.02,
1963,-0.1,0.025,
1964,-0.09,0.025,
1965,-0.075,0.035,
1966,-0.06,0.03,
1967,-0.05,0.055,
1968,-0.045,0.075,
1969,-0.015,0.085,
1970,-0.005,0.11,
1971,0.02,0.135,
1972,0.04,0.145,
1973,0.05,0.17,
1974,0.07,0.17,
1975,0.075,0.18,
1976,0.09,0.19,
1977,0.11,0.19,
1978,0.12,0.2,
1979,0.155,0.195,
1980,0.185,0.185,
1981,0.235,0.155,
1982,0.24,0.12,
1983,0.255,0.06,
1984,0.245,0.03,
1985,0.225,0.005,
1986,0.195,-0.025,
1987,0.185,-0.03,
1988,0.165,-0.02,
1989,0.155,-0.02,
1990,0.19,-0.02,
1991,0.19,-0.04,
1992,0.195,-0.06,
1993,0.18,-0.09,
1994,0.155,-0.1,
1995,0.125,-0.115,
1996,0.085,-0.115,
1997,0.05,-0.11,
1998,0.015,-0.085,
1999,0.005,-0.06,
2000,-0.025,-0.05,
2001,-0.02,-0.04,
2002,-0.035,-0.04,
2003,-0.045,-0.035,
2004,-0.06,-0.045,
2005,-0.07,-0.04,
2006,-0.08,-0.035,
2007,-0.09,-0.035,
2008,-0.1,-0.05,
2009,-0.105,-0.05,
2010,-0.105,-0.055,
2011,-0.11,-0.055,
2012,-0.1,-0.065,
2013,-0.1,-0.065,
2014,-0.085,-0.065,
2015,-0.075,-0.055,
2016,-0.065,-0.045,
2017,-0.065,-0.04,
2018,-0.075,-0.035,
2019,-0.075,-0.045,
2020,-0.095,-0.04,
2021,-0.085,-0.02,
2022,-0.07,0.01,
2023,-0.04,0.06,
2024,0.025,0.1,
2025,0.155,0.125,
2026,0.295,0.12,
2027,0.49,0.05,
2028,0.695,-0.085,
2029,0.9,-0.265,
2030,1.08,-0.49,
2031,1.255,-0.795,
2032,1.41,-1.155,
2033,1.515,-1.55,
2034,1.6,-1.925,
2035,1.635,-2.21,N
2036,1.61,-2.37,
2037,1.54,-2.4,
2038,1.415,-2.33,
2039,1.225,-2.21,
2040,1.015,-2.02,
2041,0.74,-1.815,
2042,0.485,-1.555,
2043,0.28,-1.29,
2044,0.115,-1.05,
2045,0.025,-0.81,
2046,-0.03,-0.65,
2047,-0.08,-0.545,
2048,-0.085,-0.465,
2049,-0.095,-0.4,
2050,-0.125,-0.325,
2051,-0.15,-0.245,
2052,-0.185,-0.18,
2053,-0.205,-0.12,
2054,-0.23,-0.065,
2055,-0.225,-0.035,
2056,-0.23,-0.02,
2057,-0.23,-0.015,
2058,-0.24,-0.02,
2059,-0.255,-0.01,
2060,-0.255,0.005,
2061,-0.26,0.01,
2062,-0.26,0.025,
2063,-0.26,0.05,
2064,-0.255,0.065,
2065,-0.255,0.075,
2066,-0.25,0.08,
2067,-0.26,0.08,
2068,-0.265,0.09,
2069,-0.265,0.085,
2070,-0.26,0.075,
2071,-0.28,0.09,
2072,-0.28,0.11,
2073,-0.285,0.12,
2074,-0.27,0.13,
2075,-0.26,0.145,
2076,-0.265,0.16,
2077,-0.26,0.155,
2078,-0.27,0.165,
2079,-0.28,0.165,
2080,-0.29,0.17,
2081,-0.3,0.175,
2082,-0.305,0.17,
2083,-0.31,0.185,
2084,-0.325,0.195,
2085,-0.34,0.215,
2086,-0.34,0.24,
2087,-0.32,0.25,
2088,-0.325,0.255,
2089,-0.325,0.26,
2090,-0.345,0.265,
2091,-0.345,0.27,
2092,-0.365,0.29,
2093,-0.375,0.3,
2094,-0.4,0.3,
2095,-0.41,0.315,
2096,-0.42,0.325,
2097,-0.435,0.345,
2098,-0.445,0.355,
2099,-0.455,0.385,
2100,-0.46,0.405,
2101,-0.47,0.415,
2102,-0.475,0.41,
2103,-0.495,0.425,
2104,-0.5,0.41,
2105,-0.52,0.41,
2106,-0.525,0.41,
2107,-0.54,0.42,
2108,-0.54,0.425,
2109,-0.56,0.435,
2110,-0.54,0.455,
2111,-0.525,0.46,
2112,-0.525,0.465,
2113,-0.515,0.47,
2114,-0.5,0.46,
2115,-0.49,0.44,
2116,-0.49,0.435,
2117,-0.475,0.405,
2118,-0.465,0.385,
2119,-0.45,0.355,
2120,-0.44,0.35,
2121,-0.4,0.335,
2122,-0.375,0.325,
2123,-0.35,0.295,
2124,-0.32,0.28,
2125,-0.3,0.23,
2126,-0.285,0.215,
2127,-0.27,0.185,
2128,-0.26,0.155,
2129,-0.26,0.12,
2130,-0.245,0.095,
2131,-0.245,0.075,
2132,-0.235,0.06,
2133,-0.215,0.06,
2134,-0.205,0.05,
2135,-0.2,0.035,
2136,-0.19,0.025,
2137,-0.19,0.015,
2138,-0.18,0.01,
2139,-0.19,0.0,
2140,-0.185,-0.01,
2141,-0.19,-0.02,
2142,-0.205,-0.025,
2143,-0.2,-0.045,
2144,-0.195,-0.03,
2145,-0.205,-0.03,
2146,-0.16,-0.03,
2147,-0.15,-0.015,
2148,-0.125,-0.01,
2149,-0.085,0.0,
2150,-0.065,-0.015,
2151,-0.02,-0.02,
2152,0.03,-0.03,
2153,0.08,-0.05,
2154,0.14,-0.06,
2155,0.195,-0.065,
2156,0.28,-0.065,
2157,0.36,-0.055,
2158,0.48,-0.07,
2159,0.59,-0.08,
2160,0.68,-0.115,
2161,0.7,-0.16,
2162,0.62,-0.245,
2163,0.39,-0.325,
2164,0.0,-0.415,
2165,-0.49,-0.485,
2166,-1.015,-0.515,
2167,-1.475,-0.515,
2168,-1.835,-0.515,
2169,-2.09,-0.52,
2170,-2.24,-0.53,
2171,-2.345,-0.535,
2172,-2.4,-0.52,
2173,-2.445,-0.455,V
2174,-2.455,-0.345,
2175,-2.445,-0.205,
2176,-2.43,-0.045,
2177,-2.39,0.135,
2178,-2.33,0.32,
2179,-2.25,0.475,
2180,-2.13,0.63,
2181,-2.015,0.77,
2182,-1.89,0.885,
2183,-1.77,0.995,
2184,-1.67,1.055,
2185,-1.6,1.1,
2186,-1.545,1.135,
2187,-1.48,1.15,
2188,-1.4,1.115,
2189,-1.28,1.025,
2190,-1.16,0.85,
2191,-1.04,0.605,
2192,-0.955,0.32,
2193,-0.89,0.03,
2194,-0.85,-0.23,
2195,-0.82,-0.425,
2196,-0.775,-0.55,
2197,-0.715,-0.58,
2198,-0.615,-0.55,
2199,-0.47,-0.495,
2200,-0.305,-0.44,
2201,-0.155,-0.395,
2202,-0.015,-0.345,
2203,0.065,-0.305,
2204,0.105,-0.285,
2205,0.125,-0.24,
2206,0.115,-0.22,
2207,0.095,-0.205,
2208,0.095,-0.195,
2209,0.11,-0.185,
2210,0.12,-0.18,
2211,0.145,-0.175,
2212,0.145,-0.175,
2213,0.16,-0.18,
2214,0.17,-0.175,
2215,0.17,-0.185,
2216,0.185,-0.19,
2217,0.21,-0.185,
2218,0.215,-0.185,
2219,0.235,-0.165,
2220,0.255,-0.175,
2221,0.285,-0.175,
2222,0.295,-0.175,
2223,0.305,-0.195,
2224,0.31,-0.205,
2225,0.315,-0.22,
2226,0.33,-0.215,
2227,0.345,-0.22,
2228,0.36,-0.205,
2229,0.385,-0.2,
2230,0.41,-0.2,
2231,0.43,-0.185,
2232,0.47,-0.195,
2233,0.505,-0.2,
2234,0.5,-0.195,
2235,0.52,-0.21,
2236,0.55,-0.225,
2237,0.565,-0.22,
2238,0.57,-0.225,
2239,0.575,-0.23,
2240,0.6,-0.24,
2241,0.61,-0.25,
2242,0.615,-0.245,
2243,0.635,-0.245,
2244,0.65,-0.255,
2245,0.65,-0.26,
2246,0.655,-0.26,
2247,0.645,-0.265,
2248,0.625,-0.28,
2249,0.6,-0.3,
2250,0.575,-0.305,
2251,0.555,-0.315,
2252,0.535,-0.325,
2253,0.52,-0.33,
2254,0.505,-0.33,
2255,0.465,-0.325,
2256,0.435,-0.315,
2257,0.405,-0.32,
2258,0.36,-0.335,
2259,0.3,-0.33,
2260,0.24,-0.345,
2261,0.2,-0.345,
2262,0.155,-0.335,
2263,0.12,-0.31,
2264,0.07,-0.305,
2265,0.04,-0.275,
2266,0.015,-0.26,
2267,-0.02,-0.235,
2268,-0.05,-0.23,
2269,-0.085,-0.205,
2270,-0.12,-0.195,
2271,-0.16,-0.175,
2272,-0.19,-0.16,
2273,-0.22,-0.155,
2274,-0.26,-0.13,
2275,-0.305,-0.115,
2276,-0.335,-0.09,
2277,-0.36,-0.08,
2278,-0.37,-0.065,
2279,-0.38,-0.05,
2280,-0.39,-0.035,
2281,-0.395,-0.02,
2282,-0.41,-0.03,
2283,-0.43,-0.035,
2284,-0.45,-0.035,
2285,-0.47,-0.025,
2286,-0.49,-0.01,
2287,-0.51,-0.015,
2288,-0.515,-0.015,
2289,-0.515,-0.01,
2290,-0.505,-0.015,
2291,-0.515,-0.02,
2292,-0.52,-0.005,
2293,-0.51,-0.01,
2294,-0.525,-0.005,
2295,-0.525,0.0,
2296,-0.54,0.0,
2297,-0.55,0.0,
2298,-0.565,-0.01,
2299,-0.57,-0.015,
2300,-0.57,-0.02,
2301,-0.585,-0.02,
2302,-0.575,-0.015,
2303,-0.56,0.0,
2304,-0.565,0.015,
2305,-0.56,0.01,
2306,-0.565,0.015,
2307,-0.56,0.005,
2308,-0.57,0.005,
2309,-0.565,-0.02,
2310,-0.57,-0.035,
2311,-0.58,-0.035,
2312,-0.58,-0.035,
2313,-0.6,-0.025,
2314,-0.6,0.01,
2315,-0.625,0.015,
2316,-0.625,0.03,
2317,-0.62,0.025,
2318,-0.625,-0.005,
2319,-0.61,-0.005,
2320,-0.62,-0.025,
2321,-0.63,-0.03,
2322,-0.635,-0.035,
2323,-0.665,-0.02,
2324,-0.675,0.005,
2325,-0.675,0.01,
2326,-0.67,0.035,
2327,-0.67,0.045,
2328,-0.67,0.035,
2329,-0.655,0.015,
2330,-0.66,0.01,
2331,-0.675,0.0,
2332,-0.69,0.005,
2333,-0.685,-0.01,
2334,-0.695,0.0,
2335,-0.69,-0.005,
2336,-0.695,0.005,
2337,-0.695,0.0,
2338,-0.685,0.005,
2339,-0.695,-0.015,
2340,-0.685,-0.015,
2341,-0.69,-0.015,
2342,-0.705,-0.025,
2343,-0.705,-0.025,
2344,-0.72,-0.02,
2345,-0.725,-0.01,
2346,-0.735,-0.02,
2347,-0.75,-0.015,
2348,-0.74,0.0,
2349,-0.735,-0.015,
2350,-0.72,0.015,
2351,-0.705,0.0,
2352,-0.69,-0.01,
2353,-0.685,-0.01,
2354,-0.71,-0.01,
2355,-0.725,-0.005,
2356,-0.74,-0.01,
2357,-0.755,-0.015,
2358,-0.765,-0.045,
2359,-0.765,-0.08,
2360,-0.765,-0.08,
2361,-0.77,-0.065,
2362,-0.765,-0.02,
2363,-0.77,0.02,
2364,-0.77,0.045,
2365,-0.78,0.03,
2366,-0.785,0.005,
2367,-0.8,-0.02,
2368,-0.8,-0.03,
2369,-0.795,-0.04,
2370,-0.805,-0.055,
2371,-0.8,-0.05,
2372,-0.785,-0.03,
2373,-0.795,-0.015,
2374,-0.79,0.005,
2375,-0.785,0.015,
2376,-0.79,0.03,
2377,-0.795,0.03,
2378,-0.795,0.035,
2379,-0.78,0.005,
2380,-0.78,0.0,
2381,-0.785,0.005,
2382,-0.79,0.015,
2383,-0.81,0.015,
2384,-0.825,0.015,
2385,-0.83,0.0,
2386,-0.825,0.01,
2387,-0.8,0.025,
2388,-0.78,0.065,
2389,-0.735,0.105,
2390,-0.715,0.16,
2391,-0.715,0.205,
2392,-0.725,0.22,
2393,-0.73,0.235,
2394,-0.73,0.215,
2395,-0.725,0.215,
2396,-0.705,0.2,
2397,-0.665,0.205,
2398,-0.645,0.21,
2399,-0.61,0.195,
2400,-0.58,0.17,
2401,-0.575,0.15,
2402,-0.555,0.13,
2403,-0.565,0.12,
2404,-0.585,0.09,
2405,-0.585,0.07,
2406,-0.585,0.06,
2407,-0.59,0.035,
2408,-0.58,0.03,
2409,-0.59,0.015,
2410,-0.605,0.01,
2411,-0.655,0.005,
2412,-0.675,-0.005,
2413,-0.72,-0.015,
2414,-0.76,-0.015,
2415,-0.8,-0.015,
2416,-0.84,0.015,
2417,-0.855,0.04,
2418,-0.865,0.065,
2419,-0.89,0.055,
2420,-0.9,0.04,
2421,-0.905,0.025,
2422,-0.905,0.01,
2423,-0.905,0.02,
2424,-0.905,0.01,
2425,-0.9,0.01,
2426,-0.91,0.02,
2427,-0.92,0.005,
2428,-0.935,0.005,
2429,-0.945,0.005,
2430,-0.96,0.005,
2431,-0.94,0.005,
2432,-0.94,0.02,
2433,-0.94,0.02,
2434,-0.93,0.02,
2435,-0.93,0.05,
2436,-0.91,0.09,
2437,-0.87,0.13,
2438,-0.84,0.16,
2439,-0.72,0.18,
2440,-0.565,0.17,
2441,-0.36,0.11,
2442,-0.125,0.04,
2443,0.095,-0.095,
2444,0.32,-0.28,
2445,0.52,-0.495,
2446,0.705,-0.76,
2447,0.87,-1.06,
2448,1.005,-1.385,
2449,1.08,-1.67,N
2450,1.09,-1.855,
2451,1.025,-1.955,
2452,0.85,-1.96,
2453,0.595,-1.86,
2454,0.26,-1.725,
2455,-0.115,-1.505,
2456,-0.465,-1.28,
2457,-0.72,-1.045,
2458,-0.87,-0.82,
2459,-0.92,-0.625,
2460,-0.91,-0.485,
2461,-0.89,-0.385,
2462,-0.885,-0.315,
2463,-0.89,-0.25,
2464,-0.93,-0.19,
2465,-0.975,-0.125,
2466,-1.03,-0.07,
2467,-1.065,-0.015,
2468,-1.075,0.01,
2469,-1.08,0.05,
2470,-1.08,0.075,
2471,-1.08,0.1,
2472,-1.065,0.105,
2473,-1.055,0.125,
2474,-1.07,0.135,
2475,-1.07,0.145,
2476,-1.09,0.15,
2477,-1.12,0.135,
2478,-1.125,0.13,
2479,-1.135,0.135,
2480,-1.125,0.155,
2481,-1.12,0.165,
2482,-1.11,0.185,
2483,-1.105,0.2,
2484,-1.11,0.215,
2485,-1.1,0.205,
2486,-1.1,0.215,
2487,-1.105,0.21,
2488,-1.115,0.195,
2489,-1.125,0.205,
2490,-1.135,0.205,
2491,-1.145,0.22,
2492,-1.145,0.23,
2493,-1.125,0.245,
2494,-1.13,0.24,
2495,-1.105,0.26,
2496,-1.105,0.255,
2497,-1.12,0.255,
2498,-1.125,0.255,
2499,-1.13,0.26,
2500,-1.14,0.26,
2501,-1.16,0.27,
2502,-1.16,0.285,
2503,-1.195,0.31,
2504,-1.18,0.295,
2505,-1.19,0.31,
2506,-1.19,0.325,
2507,-1.195,0.325,
2508,-1.195,0.345,
2509,-1.195,0.355,
2510,-1.205,0.355,
2511,-1.225,0.36,
2512,-1.245,0.355,
2513,-1.255,0.36,
2514,-1.27,0.365,
2515,-1.305,0.365,
2516,-1.3,0.38,
2517,-1.32,0.395,
2518,-1.325,0.405,
2519,-1.32,0.425,
2520,-1.325,0.435,
2521,-1.34,0.45,
2522,-1.35,0.45,
2523,-1.38,0.45,
2524,-1.38,0.44,
2525,-1.39,0.445,
2526,-1.41,0.43,
2527,-1.42,0.44,
2528,-1.425,0.435,
2529,-1.435,0.46,
2530,-1.435,0.47,
2531,-1.43,0.49,
2532,-1.425,0.5,
2533,-1.425,0.495,
2534,-1.425,0.5,
2535,-1.42,0.485,
2536,-1.415,0.46,
2537,-1.395,0.45,
2538,-1.385,0.44,
2539,-1.37,0.435,
2540,-1.345,0.435,
2541,-1.34,0.44,
2542,-1.31,0.44,
2543,-1.28,0.43,
2544,-1.25,0.42,
2545,-1.22,0.395,
2546,-1.19,0.375,
2547,-1.155,0.355,
2548,-1.13,0.325,
2549,-1.1,0.31,
2550,-1.08,0.29,
2551,-1.06,0.275,
2552,-1.03,0.255,
2553,-1.01,0.25,
2554,-0.98,0.235,
2555,-0.95,0.22,
2556,-0.94,0.205,
2557,-0.9,0.205,
2558,-0.905,0.195,
2559,-0.88,0.175,
2560,-0.855,0.175,
2561,-0.865,0.165,
2562,-0.87,0.15,
2563,-0.88,0.14,
2564,-0.87,0.14,
2565,-0.86,0.145,
2566,-0.865,0.15,
2567,-0.855,0.155,
2568,-0.855,0.165,
2569,-0.845,0.16,
2570,-0.86,0.155,
2571,-0.86,0.14,
2572,-0.86,0.14,
2573,-0.845,0.145,
2574,-0.855,0.125,
2575,-0.855,0.135,
2576,-0.855,0.13,
2577,-0.855,0.14,
2578,-0.845,0.155,
2579,-0.84,0.165,
2580,-0.83,0.175,
2581,-0.815,0.165,
2582,-0.805,0.16,
2583,-0.8,0.14,
2584,-0.8,0.14,
2585,-0.82,0.12,
2586,-0.83,0.135,
2587,-0.845,0.155,
2588,-0.84,0.165,
2589,-0.835,0.175,
2590,-0.83,0.195,
2591,-0.825,0.19,
2592,-0.815,0.18,
2593,-0.825,0.175,
2594,-0.805,0.165,
2595,-0.795,0.17,
2596,-0.805,0.175,
2597,-0.8,0.17,
2598,-0.805,0.175,
2599,-0.8,0.175,
2600,-0.795,0.185,
2601,-0.79,0.19,
2602,-0.78,0.185,
2603,-0.76,0.19,
2604,-0.75,0.2,
2605,-0.745,0.225,
2606,-0.73,0.23,
2607,-0.715,0.27,
2608,-0.695,0.285,
2609,-0.685,0.285,
2610,-0.675,0.3,
2611,-0.665,0.3,
2612,-0.645,0.295,
2613,-0.65,0.3,
2614,-0.635,0.305,
2615,-0.61,0.315,
2616,-0.585,0.33,
2617,-0.545,0.325,
2618,-0.51,0.285,
2619,-0.485,0.26,
2620,-0.47,0.23,
2621,-0.475,0.185,
2622,-0.48,0.155,
2623,-0.505,0.125,
2624,-0.52,0.13,
2625,-0.525,0.15,
2626,-0.515,0.155,
2627,-0.51,0.165,
2628,-0.5,0.155,
2629,-0.49,0.14,
2630,-0.495,0.12,
2631,-0.505,0.095,
2632,-0.545,0.07,
2633,-0.58,0.045,
2634,-0.605,0.04,
2635,-0.64,0.05,
2636,-0.655,0.07,
2637,-0.665,0.085,
2638,-0.685,0.125,
2639,-0.695,0.135,
2640,-0.7,0.14,
2641,-0.72,0.13,
2642,-0.73,0.13,
2643,-0.745,0.12,
2644,-0.75,0.105,
2645,-0.765,0.1,
2646,-0.77,0.1,
2647,-0.77,0.1,
2648,-0.765,0.105,
2649,-0.765,0.11,
2650,-0.76,0.11,
2651,-0.755,0.105,
2652,-0.75,0.105,
2653,-0.74,0.1,
2654,-0.735,0.11,
2655,-0.72,0.11,
2656,-0.72,0.11,
2657,-0.72,0.12,
2658,-0.73,0.14,
2659,-0.705,0.185,
2660,-0.645,0.215,
2661,-0.56,0.26,
2662,-0.41,0.27,
2663,-0.215,0.235,
2664,0.01,0.155,
2665,0.265,0.035,
2666,0.48,-0.155,
2667,0.695,-0.4,
2668,0.885,-0.72,
2669,1.05,-1.065,
2670,1.18,-1.44,
2671,1.265,-1.76,N
2672,1.28,-1.96,
2673,1.21,-2.055,
2674,1.07,-2.025,
2675,0.85,-1.91,
2676,0.535,-1.73,
2677,0.175,-1.515,
2678,-0.19,-1.27,
2679,-0.44,-1.015,
2680,-0.62,-0.795,
2681,-0.71,-0.6,
2682,-0.745,-0.47,
2683,-0.725,-0.36,
2684,-0.72,-0.28,
2685,-0.725,-0.2,
2686,-0.74,-0.12,
2687,-0.77,-0.035,
2688,-0.785,0.035,
2689,-0.815,0.09,
2690,-0.82,0.135,
2691,-0.815,0.135,
2692,-0.82,0.14,
2693,-0.83,0.145,
2694,-0.835,0.165,
2695,-0.85,0.165,
2696,-0.845,0.165,
2697,-0.85,0.185,
2698,-0.84,0.2,
2699,-0.835,0.21,
2700,-0.82,0.215,
2701,-0.815,0.23,
2702,-0.825,0.24,
2703,-0.835,0.23,
2704,-0.835,0.235,
2705,-0.84,0.235,
2706,-0.845,0.23,
2707,-0.855,0.235,
2708,-0.845,0.245,
2709,-0.84,0.25,
2710,-0.855,0.27,
2711,-0.85,0.29,
2712,-0.845,0.295,
2713,-0.845,0.315,
2714,-0.835,0.295,
2715,-0.85,0.295,
2716,-0.865,0.29,
2717,-0.85,0.3,
2718,-0.86,0.315,
2719,-0.865,0.325,
2720,-0.875,0.34,
2721,-0.865,0.345,
2722,-0.855,0.365,
2723,-0.855,0.375,
2724,-0.855,0.385,
2725,-0.875,0.39,
2726,-0.875,0.4,
2727,-0.9,0.415,
2728,-0.905,0.415,
2729,-0.915,0.43,
2730,-0.93,0.435,
2731,-0.955,0.435,
2732,-0.945,0.435,
2733,-0.96,0.45,
2734,-0.96,0.465,
2735,-0.97,0.475,
2736,-0.965,0.495,
2737,-0.975,0.515,
2738,-0.965,0.505,
2739,-0.98,0.515,
2740,-0.99,0.52,
2741,-1.01,0.52,
2742,-1.025,0.535,
2743,-1.025,0.525,
2744,-1.015,0.515,
2745,-1.005,0.54,
2746,-1.0,0.55,
2747,-1.0,0.565,
2748,-0.99,0.565,
2749,-0.98,0.575,
2750,-0.97,0.56,
2751,-0.955,0.54,
2752,-0.945,0.515,
2753,-0.94,0.505,
2754,-0.915,0.49,
2755,-0.905,0.48,
2756,-0.87,0.45,
2757,-0.845,0.455,
2758,-0.81,0.44,
2759,-0.785,0.415,
2760,-0.75,0.395,
2761,-0.72,0.37,
2762,-0.7,0.345,
2763,-0.69,0.315,
2764,-0.68,0.3,
2765,-0.665,0.27,
2766,-0.665,0.255,
2767,-0.65,0.24,
2768,-0.64,0.23,
2769,-0.63,0.22,
2770,-0.62,0.22,
2771,-0.605,0.21,
2772,-0.6,0.2,
2773,-0.585,0.18,
2774,-0.59,0.18,
2775,-0.595,0.16,
2776,-0.585,0.17,
2777,-0.6,0.16,
2778,-0.605,0.155,
2779,-0.6,0.155,
2780,-0.6,0.145,
2781,-0.58,0.15,
2782,-0.575,0.13,
2783,-0.585,0.145,
2784,-0.565,0.155,
2785,-0.58,0.155,
2786,-0.575,0.165,
2787,-0.56,0.16,
2788,-0.57,0.15,
2789,-0.575,0.14,
2790,-0.58,0.13,
2791,-0.575,0.11,
2792,-0.58,0.125,
2793,-0.575,0.135,
2794,-0.58,0.145,
2795,-0.575,0.16,
2796,-0.555,0.17,
2797,-0.55,0.165,
2798,-0.545,0.155,
2799,-0.535,0.15,
2800,-0.545,0.135,
2801,-0.545,0.12,
2802,-0.55,0.12,
2803,-0.555,0.125,
2804,-0.555,0.13,
2805,-0.545,0.13,
2806,-0.555,0.14,
2807,-0.545,0.15,
2808,-0.535,0.16,
2809,-0.53,0.165,
2810,-0.51,0.15,
2811,-0.515,0.15,
2812,-0.52,0.14,
2813,-0.515,0.14,
2814,-0.51,0.145,
2815,-0.51,0.155,
2816,-0.5,0.18,
2817,-0.495,0.185,
2818,-0.465,0.205,
2819,-0.44,0.235,
2820,-0.415,0.265,
2821,-0.39,0.29,
2822,-0.38,0.31,
2823,-0.37,0.305,
2824,-0.365,0.305,
2825,-0.355,0.3,
2826,-0.34,0.29,
2827,-0.31,0.28,
2828,-0.285,0.26,
2829,-0.24,0.23,
2830,-0.215,0.23,
2831,-0.2,0.195,
2832,-0.19,0.19,
2833,-0.2,0.15,
2834,-0.215,0.13,
2835,-0.225,0.135,
2836,-0.235,0.11,
2837,-0.25,0.12,
2838,-0.24,0.105,
2839,-0.23,0.115,
2840,-0.22,0.09,
2841,-0.22,0.075,
2842,-0.23,0.055,
2843,-0.25,0.06,
2844,-0.285,0.055,
2845,-0.315,0.055,
2846,-0.35,0.06,
2847,-0.38,0.08,
2848,-0.395,0.09,
2849,-0.41,0.095,
2850,-0.425,0.085,
2851,-0.43,0.08,
2852,-0.44,0.07,
2853,-0.435,0.085,
2854,-0.445,0.095,
2855,-0.45,0.105,
2856,-0.45,0.11,
2857,-0.455,0.11,
2858,-0.455,0.1,
2859,-0.445,0.085,
2860,-0.455,0.075,
2861,-0.455,0.075,
2862,-0.465,0.065,
2863,-0.465,0.07,
2864,-0.455,0.065,
2865,-0.445,0.07,
2866,-0.445,0.075,
2867,-0.435,0.065,
2868,-0.435,0.09,
2869,-0.42,0.095,
2870,-0.41,0.115,
2871,-0.39,0.15,
2872,-0.35,0.2,
2873,-0.29,0.22,
2874,-0.17,0.25,
2875,-0.02,0.23,
2876,0.19,0.16,
2877,0.4,0.035,
2878,0.63,-0.085,
2879,0.82,-0.295,
2880,1.02,-0.545,
2881,1.2,-0.84,
2882,1.355,-1.185,
2883,1.485,-1.535,
2884,1.56,-1.82,N
2885,1.575,-2.02,
2886,1.515,-2.09,
2887,1.4,-2.07,
2888,1.225,-1.975,
2889,0.975,-1.83,
2890,0.66,-1.64,
2891,0.325,-1.43,
2892,0.055,-1.19,
2893,-0.165,-0.95,
2894,-0.3,-0.745,
2895,-0.35,-0.605,
2896,-0.37,-0.475,
2897,-0.38,-0.39,
2898,-0.385,-0.31,
2899,-0.39,-0.24,
2900,-0.425,-0.175,
2901,-0.46,-0.1,
2902,-0.52,-0.025,
2903,-0.525,0.035,
2904,-0.515,0.075,
2905,-0.515,0.1,
2906,-0.52,0.105,
2907,-0.52,0.12,
2908,-0.515,0.11,
2909,-0.53,0.095,
2910,-0.545,0.125,
2911,-0.555,0.125,
2912,-0.555,0.135,
2913,-0.555,0.15,
2914,-0.535,0.17,
2915,-0.525,0.185,
2916,-0.51,0.195,
2917,-0.515,0.195,
2918,-0.535,0.195,
2919,-0.525,0.195,
2920,-0.53,0.195,
2921,-0.535,0.195,
2922,-0.535,0.195,
2923,-0.54,0.205,
2924,-0.535,0.205,
2925,-0.525,0.215,
2926,-0.52,0.235,
2927,-0.53,0.24,
2928,-0.535,0.25,
2929,-0.53,0.25,
2930,-0.535,0.25,
2931,-0.55,0.26,
2932,-0.545,0.265,
2933,-0.555,0.25,
2934,-0.565,0.255,
2935,-0.565,0.27,
2936,-0.565,0.285,
2937,-0.565,0.29,
2938,-0.56,0.3,
2939,-0.565,0.315,
2940,-0.56,0.335,
2941,-0.57,0.33,
2942,-0.57,0.35,
2943,-0.575,0.365,
2944,-0.59,0.36,
2945,-0.6,0.355,
2946,-0.625,0.355,
2947,-0.64,0.365,
2948,-0.645,0.375,
2949,-0.655,0.395,
2950,-0.665,0.405,
2951,-0.67,0.44,
2952,-0.67,0.455,
2953,-0.665,0.47,
2954,-0.68,0.46,
2955,-0.69,0.465,
2956,-0.7,0.465,
2957,-0.715,0.455,
2958,-0.73,0.47,
2959,-0.745,0.465,
2960,-0.755,0.48,
2961,-0.76,0.505,
2962,-0.76,0.51,
2963,-0.745,0.51,
2964,-0.735,0.52,
2965,-0.73,0.515,
2966,-0.72,0.505,
2967,-0.705,0.495,
2968,-0.69,0.48,
2969,-0.68,0.47,
2970,-0.68,0.45,
2971,-0.66,0.435,
2972,-0.635,0.435,
2973,-0.605,0.415,
2974,-0.575,0.395,
2975,-0.545,0.38,
2976,-0.52,0.365,
2977,-0.495,0.345,
2978,-0.47,0.31,
2979,-0.45,0.29,
2980,-0.425,0.255,
2981,-0.41,0.23,
2982,-0.4,0.225,
2983,-0.39,0.2,
2984,-0.365,0.175,
2985,-0.345,0.165,
2986,-0.32,0.15,
2987,-0.31,0.13,
2988,-0.285,0.135,
2989,-0.265,0.115,
2990,-0.28,0.11,
2991,-0.27,0.1,
2992,-0.265,0.09,
2993,-0.28,0.08,
2994,-0.29,0.055,
2995,-0.275,0.045,
2996,-0.265,0.05,
2997,-0.25,0.05,
2998,-0.23,0.065,
2999,-0.205,0.075,
3000,-0.18,0.085,
3001,-0.135,0.065,
3002,-0.1,0.065,
3003,-0.06,0.07,
3004,-0.02,0.04,
3005,0.025,0.025,
3006,0.075,0.03,
3007,0.14,0.005,
3008,0.215,0.015,
3009,0.3,0.005,
3010,0.405,0.0,
3011,0.52,0.0,
3012,0.615,0.0,
3013,0.695,-0.02,V
3014,0.705,-0.07,
3015,0.625,-0.115,
3016,0.445,-0.185,
3017,0.145,-0.26,
3018,-0.23,-0.31,
3019,-0.63,-0.35,
3020,-0.985,-0.355,
3021,-1.3,-0.36,
3022,-1.525,-0.33,
3023,-1.675,-0.36,
3024,-1.795,-0.37,
3025,-1.885,-0.39,
3026,-1.97,-0.395,
3027,-2.05,-0.38,
3028,-2.125,-0.31,
3029,-2.175,-0.21,
3030,-2.19,-0.075,
3031,-2.175,0.09,
3032,-2.125,0.23,
3033,-2.035,0.385,
3034,-1.96,0.52,
3035,-1.87,0.635,
3036,-1.765,0.745,
3037,-1.65,0.835,
3038,-1.555,0.89,
3039,-1.46,0.96,
3040,-1.4,0.99,
3041,-1.34,1.01,
3042,-1.27,1.025,
3043,-1.195,1.015,
3044,-1.085,0.94,
3045,-0.94,0.8,
3046,-0.805,0.59,
3047,-0.695,0.325,
3048,-0.605,0.055,
3049,-0.555,-0.175,
3050,-0.525,-0.34,
3051,-0.5,-0.41,
3052,-0.445,-0.435,
3053,-0.36,-0.38,
3054,-0.25,-0.33,
3055,-0.09,-0.28,
3056,0.085,-0.215,
3057,0.21,-0.175,
3058,0.295,-0.145,
3059,0.325,-0.14,
3060,0.32,-0.125,
3061,0.3,-0.12,
3062,0.27,-0.125,
3063,0.245,-0.115,
3064,0.25,-0.105,
3065,0.255,-0.095,
3066,0.26,-0.1,
3067,0.28,-0.1,
3068,0.29,-0.1,
3069,0.31,-0.085,
3070,0.325,-0.09,
3071,0.34,-0.08,
3072,0.36,-0.09,
3073,0.37,-0.09,
3074,0.385,-0.08,
3075,0.395,-0.1,
3076,0.415,-0.11,
3077,0.405,-0.11,
3078,0.42,-0.11,
3079,0.425,-0.115,
3080,0.445,-0.12,
3081,0.455,-0.11,
3082,0.495,-0.12,
3083,0.515,-0.12,
3084,0.545,-0.11,
3085,0.56,-0.1,
3086,0.58,-0.11,
3087,0.6,-0.115,
3088,0.605,-0.12,
3089,0.635,-0.13,
3090,0.645,-0.135,
3091,0.665,-0.145,
3092,0.685,-0.155,
3093,0.705,-0.15,
3094,0.73,-0.14,
3095,0.76,-0.13,
3096,0.805,-0.135,
3097,0.82,-0.13,
3098,0.84,-0.14,
3099,0.855,-0.15,
3100,0.855,-0.175,
3101,0.86,-0.18,
3102,0.86,-0.195,
3103,0.865,-0.2,
3104,0.865,-0.195,
3105,0.875,-0.19,
3106,0.875,-0.185,
3107,0.87,-0.205,
3108,0.84,-0.195,
3109,0.83,-0.205,
3110,0.82,-0.215,
3111,0.795,-0.225,
3112,0.765,-0.245,
3113,0.73,-0.235,
3114,0.71,-0.26,
3115,0.675,-0.25,
3116,0.635,-0.26,
3117,0.615,-0.25,
3118,0.585,-0.255,
3119,0.545,-0.24,
3120,0.5,-0.225,
3121,0.475,-0.22,
3122,0.43,-0.215,
3123,0.4,-0.21,
3124,0.36,-0.2,
3125,0.31,-0.17,
3126,0.28,-0.18,
3127,0.23,-0.165,
3128,0.215,-0.155,
3129,0.18,-0.14,
3130,0.16,-0.13,
3131,0.145,-0.095,
3132,0.125,-0.075,
3133,0.105,-0.055,
3134,0.075,-0.055,
3135,0.065,-0.04,
3136,0.06,-0.03,
3137,0.035,-0.035,
3138,0.02,-0.03,
3139,0.005,-0.04,
3140,-0.01,-0.035,
3141,-0.02,-0.015,
3142,-0.025,-0.005,
3143,-0.025,0.0,
3144,-0.04,0.005,
3145,-0.035,-0.005,
3146,-0.03,-0.005,
3147,-0.035,-0.015,
3148,-0.035,-0.02,
3149,-0.045,-0.03,
3150,-0.045,-0.03,
3151,-0.06,-0.015,
3152,-0.055,-0.015,
3153,-0.05,-0.015,
3154,-0.045,-0.02,
3155,-0.035,-0.01,
3156,-0.035,-0.01,
3157,-0.025,-0.005,
3158,-0.04,-0.015,
3159,-0.035,-0.03,
3160,-0.045,-0.025,
3161,-0.045,-0.02,
3162,-0.04,-0.035,
3163,-0.055,-0.04,
3164,-0.045,-0.035,
3165,-0.055,-0.025,
3166,-0.04,-0.035,
3167,-0.05,-0.025,
3168,-0.035,-0.025,
3169,-0.03,-0.025,
3170,-0.035,-0.02,
3171,-0.03,-0.025,
3172,-0.035,-0.03,
3173,-0.055,-0.035,
3174,-0.06,-0.05,
3175,-0.07,-0.055,
3176,-0.075,-0.065,
3177,-0.065,-0.06,
3178,-0.085,-0.04,
3179,-0.07,-0.03,
3180,-0.06,-0.02,
3181,-0.05,-0.03,
3182,-0.055,-0.02,
3183,-0.04,-0.035,
3184,-0.06,-0.05,
3185,-0.07,-0.045,
3186,-0.085,-0.06,
3187,-0.085,-0.06,
3188,-0.075,-0.07,
3189,-0.075,-0.065,
3190,-0.07,-0.065,
3191,-0.07,-0.06,
3192,-0.06,-0.04,
3193,-0.06,-0.05,
3194,-0.06,-0.045,
3195,-0.065,-0.055,
3196,-0.08,-0.06,
3197,-0.1,-0.075,
3198,-0.095,-0.085,
3199,-0.1,-0.09,
3200,-0.105,-0.085,
3201,-0.09,-0.07,
3202,-0.075,-0.065,
3203,-0.075,-0.065,
3204,-0.07,-0.06,
3205,-0.06,-0.07,
3206,-0.07,-0.07,
3207,-0.075,-0.075,
3208,-0.08,-0.08,
3209,-0.09,-0.085,
3210,-0.08,-0.08,
3211,-0.085,-0.085,
3212,-0.08,-0.085,
3213,-0.1,-0.09,
3214,-0.085,-0.08,
3215,-0.08,-0.08,
3216,-0.07,-0.07,
3217,-0.05,-0.075,
3218,-0.055,-0.09,
3219,-0.055,-0.095,
3220,-0.065,-0.1,
3221,-0.065,-0.11,
3222,-0.08,-0.105,
3223,-0.07,-0.115,
3224,-0.08,-0.09,
3225,-0.07,-0.1,
3226,-0.06,-0.1,
3227,-0.065,-0.085,
3228,-0.06,-0.095,
3229,-0.05,-0.09,
3230,-0.06,-0.09,
3231,-0.05,-0.095,
3232,-0.055,-0.1,
3233,-0.06,-0.115,
3234,-0.055,-0.125,
3235,-0.06,-0.115,
3236,-0.07,-0.115,
3237,-0.055,-0.115,
3238,-0.045,-0.11,
3239,-0.05,-0.11,
3240,-0.035,-0.1,
3241,-0.025,-0.085,
3242,-0.01,-0.09,
3243,-0.01,-0.075,
3244,0.0,-0.065,
3245,0.005,-0.055,
3246,0.025,-0.04,
3247,0.04,0.0,
3248,0.065,0.03,
3249,0.09,0.045,
3250,0.095,0.045,
3251,0.11,0.07,
3252,0.13,0.06,
3253,0.145,0.06,
3254,0.165,0.03,
3255,0.195,0.01,
3256,0.22,-0.035,
3257,0.25,-0.065,
3258,0.265,-0.095,
3259,0.27,-0.105,
3260,0.26,-0.12,
3261,0.24,-0.11,
3262,0.22,-0.125,
3263,0.215,-0.115,
3264,0.22,-0.11,
3265,0.235,-0.13,
3266,0.22,-0.155,
3267,0.235,-0.19,
3268,0.23,-0.2,
3269,0.2,-0.23,
3270,0.17,-0.235,
3271,0.125,-0.225,
3272,0.1,-0.225,
3273,0.075,-0.2,
3274,0.055,-0.175,
3275,0.05,-0.165,
3276,0.045,-0.165,
3277,0.02,-0.16,
3278,0.015,-0.155,
3279,-0.005,-0.165,
3280,-0.02,-0.155,
3281,-0.03,-0.165,
3282,-0.04,-0.18,
3283,-0.05,-0.19,
3284,-0.05,-0.19,
3285,-0.04,-0.2,
3286,-0.03,-0.19,
3287,-0.025,-0.195,
3288,0.0,-0.18,
3289,0.0,-0.18,
3290,-0.005,-0.18,
3291,0.0,-0.175,
3292,-0.01,-0.175,
3293,-0.01,-0.16,
3294,-0.005,-0.145,
3295,0.0,-0.095,
3296,0.06,-0.07,
3297,0.145,-0.025,
3298,0.295,-0.025,
3299,0.485,-0.07,
3300,0.695,-0.17,
3301,0.915,-0.335,
3302,1.11,-0.55,
3303,1.29,-0.82,
3304,1.47,-1.155,
3305,1.64,-1.53,
3306,1.785,-1.915,
3307,1.875,-2.215,N
3308,1.905,-2.39,
3309,1.87,-2.43,
3310,1.76,-2.365,
3311,1.585,-2.225,
3312,1.33,-2.05,
3313,1.01,-1.84,
3314,0.69,-1.61,
3315,0.425,-1.35,
3316,0.225,-1.125,
3317,0.085,-0.92,
3318,0.025,-0.785,
3319,0.0,-0.69,
3320,0.0,-0.61,
3321,-0.015,-0.54,
3322,-0.03,-0.465,
3323,-0.055,-0.385,
3324,-0.095,-0.32,
3325,-0.12,-0.24,
3326,-0.135,-0.21,
3327,-0.145,-0.165,
3328,-0.145,-0.155,
3329,-0.155,-0.17,
3330,-0.165,-0.175,
3331,-0.16,-0.17,
3332,-0.175,-0.16,
3333,-0.16,-0.155,
3334,-0.16,-0.13,
3335,-0.16,-0.11,
3336,-0.155,-0.095,
3337,-0.16,-0.09,
3338,-0.165,-0.08,
3339,-0.17,-0.08,
3340,-0.19,-0.075,
3341,-0.175,-0.08,
3342,-0.18,-0.085,
3343,-0.18,-0.09,
3344,-0.19,-0.075,
3345,-0.185,-0.06,
3346,-0.19,-0.04,
3347,-0.185,-0.03,
3348,-0.18,-0.02,
3349,-0.17,-0.015,
3350,-0.19,-0.02,
3351,-0.185,-0.025,
3352,-0.19,-0.02,
3353,-0.19,-0.015,
3354,-0.2,0.0,
3355,-0.2,0.005,
3356,-0.215,0.015,
3357,-0.215,0.02,
3358,-0.22,0.03,
3359,-0.215,0.04,
3360,-0.225,0.045,
3361,-0.23,0.065,
3362,-0.23,0.08,
3363,-0.24,0.075,
3364,-0.255,0.085,
3365,-0.27,0.075,
3366,-0.275,0.09,
3367,-0.295,0.085,
3368,-0.3,0.09,
3369,-0.32,0.1,
3370,-0.325,0.11,
3371,-0.33,0.125,
3372,-0.34,0.15,
3373,-0.35,0.165,
3374,-0.355,0.175,
3375,-0.37,0.17,
3376,-0.395,0.185,
3377,-0.43,0.175,
3378,-0.44,0.18,
3379,-0.47,0.16,
3380,-0.48,0.18,
3381,-0.49,0.195,
3382,-0.495,0.215,
3383,-0.51,0.22,
3384,-0.5,0.24,
3385,-0.5,0.24,
3386,-0.505,0.23,
3387,-0.5,0.225,
3388,-0.5,0.215,
3389,-0.495,0.195,
3390,-0.5,0.2,
3391,-0.495,0.19,
3392,-0.49,0.2,
3393,-0.47,0.195,
3394,-0.46,0.185,
3395,-0.43,0.17,
3396,-0.4,0.175,
3397,-0.36,0.16,
3398,-0.335,0.13,
3399,-0.31,0.12,
3400,-0.285,0.09,
3401,-0.255,0.065,
3402,-0.22,0.045,
3403,-0.2,0.02,
3404,-0.16,-0.015,
3405,-0.125,-0.025,
3406,-0.09,-0.045,
3407,-0.065,-0.055,
3408,-0.03,-0.08,
3409,-0.005,-0.095,
3410,0.015,-0.11,
3411,0.015,-0.125,
3412,0.045,-0.145,
3413,0.065,-0.155,
3414,0.065,-0.175,
3415,0.065,-0.195,
3416,0.065,-0.205,
3417,0.075,-0.205,
3418,0.085,-0.2,
3419,0.08,-0.19,
3420,0.105,-0.18,
3421,0.115,-0.19,
3422,0.115,-0.195,
3423,0.125,-0.2,
3424,0.12,-0.21,
3425,0.115,-0.215,
3426,0.1,-0.22,
3427,0.095,-0.23,
3428,0.105,-0.225,
3429,0.115,-0.215,
3430,0.125,-0.2,
3431,0.125,-0.195,
3432,0.125,-0.19,
3433,0.14,-0.19,
3434,0.145,-0.195,
3435,0.145,-0.205,
3436,0.13,-0.215,
3437,0.125,-0.215,
3438,0.12,-0.225,
3439,0.13,-0.21,
3440,0.12,-0.2,
3441,0.115,-0.205,
3442,0.115,-0.195,
3443,0.14,-0.2,
3444,0.14,-0.2,
3445,0.135,-0.19,
3446,0.14,-0.19,
3447,0.14,-0.18,
3448,0.145,-0.185,
3449,0.135,-0.185,
3450,0.14,-0.195,
3451,0.135,-0.18,
3452,0.155,-0.175,
3453,0.165,-0.165,
3454,0.19,-0.14,
3455,0.21,-0.12,
3456,0.23,-0.08,
3457,0.265,-0.06,
3458,0.265,-0.035,
3459,0.28,-0.01,
3460,0.3,-0.01,
3461,0.3,-0.015,
3462,0.305,-0.025,
3463,0.32,-0.05,
3464,0.34,-0.05,
3465,0.37,-0.06,
3466,0.405,-0.08,
3467,0.445,-0.095,
3468,0.485,-0.115,
3469,0.505,-0.15,
3470,0.49,-0.175,
3471,0.46,-0.21,
3472,0.44,-0.22,
3473,0.425,-0.235,
3474,0.41,-0.23,
3475,0.415,-0.235,
3476,0.42,-0.25,
3477,0.435,-0.25,
3478,0.44,-0.265,
3479,0.42,-0.28,
3480,0.41,-0.3,
3481,0.39,-0.31,
3482,0.36,-0.33,
3483,0.33,-0.32,
3484,0.305,-0.305,
3485,0.275,-0.3,
3486,0.25,-0.27,
3487,0.24,-0.27,
3488,0.22,-0.25,
3489,0.19,-0.26,
3490,0.19,-0.26,
3491,0.19,-0.26,
3492,0.18,-0.245,
3493,0.18,-0.25,
3494,0.175,-0.26,
3495,0.18,-0.27,
3496,0.175,-0.275,
3497,0.17,-0.27,
3498,0.165,-0.28,
3499,0.17,-0.28,
3500,0.185,-0.285,
3501,0.185,-0.285,
3502,0.195,-0.29,
3503,0.2,-0.29,
3504,0.2,-0.28,
3505,0.22,-0.28,
3506,0.235,-0.25,
3507,0.255,-0.215,
3508,0.275,-0.18,
3509,0.325,-0.14,
3510,0.41,-0.1,
3511,0.535,-0.1,
3512,0.72,-0.145,
3513,0.92,-0.245,
3514,1.12,-0.385,
3515,1.305,-0.565,
3516,1.47,-0.8,
3517,1.61,-1.115,
3518,1.765,-1.495,
3519,1.9,-1.885,
3520,1.98,-2.245,
3521,2.03,-2.495,N
3522,2.02,-2.62,
3523,1.96,-2.61,
3524,1.86,-2.52,
3525,1.685,-2.375,
3526,1.45,-2.175,
3527,1.155,-1.965,
3528,0.86,-1.71,
3529,0.61,-1.445,
3530,0.405,-1.205,
3531,0.265,-0.995,
3532,0.185,-0.84,
3533,0.15,-0.725,
3534,0.135,-0.655,
3535,0.125,-0.58,
3536,0.13,-0.505,
3537,0.115,-0.445,
3538,0.105,-0.36,
3539,0.095,-0.3,
3540,0.095,-0.265,
3541,0.095,-0.25,
3542,0.075,-0.235,
3543,0.085,-0.225,
3544,0.085,-0.225,
3545,0.08,-0.225,
3546,0.075,-0.205,
3547,0.055,-0.195,
3548,0.05,-0.195,
3549,0.06,-0.19,
3550,0.06,-0.175,
3551,0.05,-0.155,
3552,0.07,-0.15,
3553,0.075,-0.14,
3554,0.075,-0.125,
3555,0.075,-0.12,
3556,0.07,-0.12,
3557,0.055,-0.125,
3558,0.055,-0.125,
3559,0.05,-0.12,
3560,0.05,-0.12,
3561,0.05,-0.105,
3562,0.04,-0.095,
3563,0.06,-0.07,
3564,0.07,-0.05,
3565,0.065,-0.045,
3566,0.07,-0.04,
3567,0.055,-0.03,
3568,0.05,-0.035,
3569,0.035,-0.035,
3570,0.025,-0.035,
3571,0.02,-0.035,
3572,0.005,-0.02,
3573,0.015,0.0,
3574,0.015,0.02,
3575,0.015,0.05,
3576,0.01,0.05,
3577,0.015,0.065,
3578,0.0,0.065,
3579,-0.005,0.065,
3580,-0.015,0.08,
3581,-0.035,0.065,
3582,-0.055,0.09,
3583,-0.07,0.095,
3584,-0.09,0.11,
3585,-0.095,0.135,
3586,-0.1,0.145,
3587,-0.1,0.165,
3588,-0.1,0.175,
3589,-0.1,0.175,
3590,-0.11,0.195,
3591,-0.115,0.19,
3592,-0.14,0.2,
3593,-0.15,0.205,
3594,-0.16,0.21,
3595,-0.17,0.21,
3596,-0.17,0.215,
3597,-0.16,0.22,
3598,-0.155,0.225,
3599,-0.14,0.24,
3600,-0.115,0.24,
3601,-0.095,0.245,
3602,-0.1,0.225,
3603,-0.075,0.23,
3604,-0.065,0.205,
3605,-0.05,0.165,
3606,-0.035,0.155,
3607,-0.01,0.125,
3608,0.015,0.1,
3609,0.05,0.09,
3610,0.075,0.065,
3611,0.1,0.035,
3612,0.13,0.025,
3613,0.165,0.0,
3614,0.19,-0.025,
3615,0.21,-0.075,
3616,0.215,-0.105,
3617,0.225,-0.135,
3618,0.23,-0.165,
3619,0.24,-0.17,
3620,0.265,-0.185,
3621,0.275,-0.185,
3622,0.29,-0.19,
3623,0.285,-0.195,
3624,0.295,-0.21,
3625,0.305,-0.225,
3626,0.31,-0.24,
3627,0.32,-0.25,
3628,0.31,-0.25,
3629,0.305,-0.27,
3630,0.29,-0.26,
3631,0.275,-0.265,
3632,0.285,-0.255,
3633,0.285,-0.265,
3634,0.295,-0.27,
3635,0.305,-0.265,
3636,0.31,-0.26,
3637,0.32,-0.27,
3638,0.32,-0.265,
3639,0.315,-0.27,
3640,0.315,-0.265,
3641,0.315,-0.265,
3642,0.305,-0.285,
3643,0.295,-0.27,
3644,0.29,-0.29,
3645,0.29,-0.28,
3646,0.3,-0.275,
3647,0.295,-0.265,
3648,0.305,-0.26,
3649,0.32,-0.255,
3650,0.32,-0.26,
3651,0.315,-0.25,
3652,0.31,-0.27,
3653,0.305,-0.285,
3654,0.295,-0.29,
3655,0.29,-0.285,
3656,0.295,-0.285,
3657,0.295,-0.285,
3658,0.3,-0.28,
3659,0.31,-0.27,
3660,0.325,-0.255,
3661,0.33,-0.25,
3662,0.33,-0.26,
3663,0.345,-0.25,
3664,0.365,-0.26,
3665,0.375,-0.25,
3666,0.38,-0.225,
3667,0.39,-0.195,
3668,0.41,-0.155,
3669,0.435,-0.125,
3670,0.445,-0.105,
3671,0.47,-0.095,
3672,0.485,-0.09,
3673,0.51,-0.095,
3674,0.545,-0.105,
3675,0.575,-0.12,
3676,0.6,-0.165,
3677,0.64,-0.19,
3678,0.65,-0.225,
3679,0.64,-0.26,
3680,0.635,-0.27,
3681,0.62,-0.295,
3682,0.605,-0.305,
3683,0.59,-0.29,
3684,0.6,-0.3,
3685,0.61,-0.295,
3686,0.615,-0.31,
3687,0.62,-0.33,
3688,0.605,-0.375,
3689,0.575,-0.4,
3690,0.535,-0.425,
3691,0.485,-0.44,
3692,0.455,-0.42,
3693,0.435,-0.38,
3694,0.41,-0.36,
3695,0.405,-0.33,
3696,0.385,-0.305,
3697,0.385,-0.32,
3698,0.37,-0.31,
3699,0.35,-0.32,
3700,0.325,-0.33,
3701,0.325,-0.35,
3702,0.295,-0.36,
3703,0.29,-0.36,
3704,0.29,-0.36,
3705,0.3,-0.34,
3706,0.325,-0.35,
3707,0.325,-0.345,
3708,0.325,-0.34,
3709,0.34,-0.35,
3710,0.35,-0.35,
3711,0.35,-0.35,
3712,0.355,-0.34,
3713,0.34,-0.345,
3714,0.33,-0.33,
3715,0.32,-0.305,
3716,0.335,-0.27,
3717,0.39,-0.22,
3718,0.48,-0.165,
3719,0.595,-0.16,
3720,0.76,-0.19,
3721,0.955,-0.27,
3722,1.155,-0.42,
3723,1.335,-0.62,
3724,1.51,-0.87,
3725,1.66,-1.18,
3726,1.815,-1.55,
3727,1.935,-1.935,
3728,2.03,-2.295,
3729,2.065,-2.53,N
3730,2.075,-2.65,
3731,2.02,-2.62,
3732,1.915,-2.51,
3733,1.75,-2.355,
3734,1.5,-2.165,
3735,1.22,-1.95,
3736,0.935,-1.7,
3737,0.71,-1.445,
3738,0.535,-1.225,
3739,0.42,-1.035,
3740,0.35,-0.895,
3741,0.33,-0.795,
3742,0.335,-0.715,
3743,0.33,-0.645,
3744,0.32,-0.565,
3745,0.295,-0.51,
3746,0.26,-0.455,
3747,0.225,-0.39,
3748,0.205,-0.35,
3749,0.185,-0.33,
3750,0.185,-0.32,
3751,0.175,-0.31,
3752,0.175,-0.3,
3753,0.18,-0.285,
3754,0.175,-0.26,
3755,0.185,-0.26,
3756,0.19,-0.245,
3757,0.195,-0.245,
3758,0.19,-0.225,
3759,0.19,-0.235,
3760,0.175,-0.225,
3761,0.175,-0.225,
3762,0.155,-0.22,
3763,0.16,-0.215,
3764,0.165,-0.215,
3765,0.165,-0.205,
3766,0.175,-0.185,
3767,0.175,-0.175,
3768,0.18,-0.155,
3769,0.18,-0.15,
3770,0.18,-0.145,
3771,0.175,-0.135,
3772,0.165,-0.125,
3773,0.165,-0.135,
3774,0.16,-0.135,
3775,0.15,-0.135,
3776,0.155,-0.125,
3777,0.145,-0.115,
3778,0.135,-0.105,
3779,0.135,-0.08,
3780,0.155,-0.065,
3781,0.16,-0.055,
3782,0.145,-0.05,
3783,0.14,-0.04,
3784,0.135,-0.04,
3785,0.115,-0.04,
3786,0.1,-0.025,
3787,0.1,-0.035,
3788,0.085,-0.02,
3789,0.07,-0.005,
3790,0.06,0.02,
3791,0.045,0.055,
3792,0.045,0.07,
3793,0.03,0.085,
3794,0.025,0.085,
3795,0.01,0.095,
3796,-0.005,0.1,
3797,-0.02,0.1,
3798,-0.04,0.105,
3799,-0.05,0.11,
3800,-0.07,0.135,
3801,-0.08,0.15,
3802,-0.09,0.155,
3803,-0.09,0.17,
3804,-0.08,0.175,
3805,-0.07,0.18,
3806,-0.08,0.175,
3807,-0.08,0.18,
3808,-0.09,0.18,
3809,-0.1,0.195,
3810,-0.085,0.18,
3811,-0.08,0.17,
3812,-0.07,0.15,
3813,-0.05,0.15,
3814,-0.025,0.14,
3815,0.005,0.125,
3816,0.03,0.11,
3817,0.055,0.095,
3818,0.08,0.075,
3819,0.095,0.055,
3820,0.12,0.035,
3821,0.135,-0.015,
3822,0.155,-0.04,
3823,0.18,-0.07,
3824,0.195,-0.1,
3825,0.225,-0.115,
3826,0.255,-0.13,
3827,0.275,-0.15,
3828,0.29,-0.17,
3829,0.315,-0.18,
3830,0.325,-0.195,
3831,0.325,-0.225,
3832,0.31,-0.24,
3833,0.335,-0.26,
3834,0.33,-0.275,
3835,0.32,-0.28,
3836,0.325,-0.285,
3837,0.33,-0.275,
3838,0.345,-0.28,
3839,0.36,-0.27,
3840,0.37,-0.265,
3841,0.375,-0.265,
3842,0.375,-0.28,
3843,0.37,-0.28,
3844,0.36,-0.305,
3845,0.36,-0.305,
3846,0.355,-0.31,
3847,0.35,-0.315,
3848,0.36,-0.31,
3849,0.35,-0.295,
3850,0.36,-0.295,
3851,0.345,-0.295,
3852,0.365,-0.28,
3853,0.365,-0.295,
3854,0.355,-0.305,
3855,0.36,-0.295,
3856,0.37,-0.295,
3857,0.365,-0.31,
3858,0.355,-0.3,
3859,0.345,-0.315,
3860,0.33,-0.315,
3861,0.335,-0.315,
3862,0.345,-0.31,
3863,0.35,-0.305,
3864,0.365,-0.295,
3865,0.37,-0.3,
3866,0.37,-0.29,
3867,0.38,-0.29,
3868,0.365,-0.3,
3869,0.36,-0.305,
3870,0.35,-0.31,
3871,0.35,-0.31,
3872,0.36,-0.315,
3873,0.355,-0.295,
3874,0.37,-0.305,
3875,0.365,-0.275,
3876,0.385,-0.265,
3877,0.415,-0.23,
3878,0.445,-0.205,
3879,0.45,-0.185,
3880,0.46,-0.165,
3881,0.475,-0.145,
3882,0.485,-0.155,
3883,0.49,-0.14,
3884,0.5,-0.13,
3885,0.515,-0.13,
3886,0.545,-0.135,
3887,0.59,-0.13,
3888,0.625,-0.16,
3889,0.67,-0.19,
3890,0.69,-0.225,
3891,0.695,-0.255,
3892,0.68,-0.29,
3893,0.66,-0.3,
3894,0.615,-0.31,
3895,0.6,-0.31,
3896,0.59,-0.315,
3897,0.595,-0.305,
3898,0.605,-0.315,
3899,0.605,-0.335,
3900,0.61,-0.355,
3901,0.6,-0.385,
3902,0.58,-0.4,
3903,0.55,-0.43,
3904,0.525,-0.415,
3905,0.48,-0.42,
3906,0.445,-0.4,
3907,0.405,-0.37,
3908,0.385,-0.365,
3909,0.365,-0.36,
3910,0.375,-0.345,
3911,0.365,-0.35,
3912,0.35,-0.345,
3913,0.345,-0.325,
3914,0.33,-0.325,
3915,0.33,-0.33,
3916,0.315,-0.35,
3917,0.315,-0.365,
3918,0.3,-0.37,
3919,0.295,-0.38,
3920,0.305,-0.39,
3921,0.31,-0.385,
3922,0.315,-0.385,
3923,0.325,-0.37,
3924,0.325,-0.355,
3925,0.325,-0.36,
3926,0.34,-0.355,
3927,0.345,-0.355,
3928,0.335,-0.35,
3929,0.34,-0.325,
3930,0.345,-0.295,
3931,0.385,-0.25,
3932,0.455,-0.19,
3933,0.565,-0.175,
3934,0.73,-0.195,
3935,0.895,-0.28,
3936,1.09,-0.42,
3937,1.275,-0.605,
3938,1.44,-0.84,
3939,1.595,-1.12,
3940,1.735,-1.46,
3941,1.86,-1.815,
3942,1.95,-2.165,
3943,1.995,-2.43,N
3944,2.01,-2.585,
3945,1.98,-2.62,
3946,1.93,-2.585,
3947,1.835,-2.475,
3948,1.665,-2.335,
3949,1.45,-2.17,
3950,1.18,-1.985,
3951,0.93,-1.775,
3952,0.71,-1.54,
3953,0.545,-1.31,
3954,0.42,-1.115,
3955,0.365,-0.97,
3956,0.335,-0.855,
3957,0.32,-0.785,
3958,0.325,-0.705,
3959,0.31,-0.645,
3960,0.275,-0.575,
3961,0.255,-0.5,
3962,0.21,-0.425,
3963,0.185,-0.39,
3964,0.175,-0.345,
3965,0.165,-0.325,
3966,0.16,-0.33,
3967,0.15,-0.315,
3968,0.145,-0.32,
3969,0.16,-0.305,
3970,0.155,-0.295,
3971,0.165,-0.28,
3972,0.16,-0.25,
3973,0.15,-0.24,
3974,0.155,-0.225,
3975,0.145,-0.225,
3976,0.135,-0.225,
3977,0.125,-0.215,
3978,0.105,-0.23,
3979,0.12,-0.23,
3980,0.11,-0.215,
3981,0.115,-0.2,
3982,0.125,-0.195,
3983,0.13,-0.17,
3984,0.135,-0.16,
3985,0.14,-0.16,
3986,0.14,-0.16,
3987,0.13,-0.15,
3988,0.125,-0.155,
3989,0.1,-0.15,
3990,0.105,-0.14,
3991,0.095,-0.13,
3992,0.095,-0.12,
3993,0.085,-0.09,
3994,0.09,-0.09,
3995,0.09,-0.065,
3996,0.09,-0.065,
3997,0.1,-0.05,
3998,0.085,-0.045,
3999,0.08,-0.04,
4000,0.065,-0.02,
4001,0.045,-0.025,
4002,0.02,-0.01,
4003,0.02,-0.005,
4004,0.015,0.005,
4005,0.0,0.02,
4006,0.0,0.03,
4007,-0.015,0.045,
4008,-0.015,0.075,
4009,-0.02,0.08,
4010,-0.03,0.1,
4011,-0.045,0.12,
4012,-0.075,0.12,
4013,-0.075,0.115,
4014,-0.105,0.125,
4015,-0.12,0.125,
4016,-0.115,0.13,
4017,-0.125,0.16,
4018,-0.125,0.155,
4019,-0.125,0.17,
4020,-0.115,0.19,
4021,-0.1,0.185,
4022,-0.1,0.195,
4023,-0.105,0.205,
4024,-0.09,0.175,
4025,-0.085,0.17,
4026,-0.08,0.145,
4027,-0.085,0.13,
4028,-0.065,0.13,
4029,-0.045,0.12,
4030,-0.01,0.12,
4031,0.015,0.115,
4032,0.04,0.1,
4033,0.07,0.07,
4034,0.085,0.03,
4035,0.115,0.005,
4036,0.12,-0.025,
4037,0.14,-0.06,
4038,0.155,-0.085,
4039,0.155,-0.1,
4040,0.18,-0.14,
4041,0.195,-0.15,
4042,0.215,-0.15,
4043,0.24,-0.17,
4044,0.26,-0.175,
4045,0.275,-0.2,
4046,0.28,-0.205,
4047,0.285,-0.24,
4048,0.285,-0.25,
4049,0.28,-0.265,
4050,0.28,-0.27,
4051,0.28,-0.275,
4052,0.28,-0.285,
4053,0.285,-0.285,
4054,0.29,-0.28,
4055,0.295,-0.29,
4056,0.3,-0.285,
4057,0.31,-0.29,
4058,0.3,-0.285,
4059,0.3,-0.285,
4060,0.31,-0.29,
4061,0.29,-0.295,
4062,0.285,-0.305,
4063,0.28,-0.295,
4064,0.27,-0.31,
4065,0.28,-0.305,
4066,0.29,-0.31,
4067,0.3,-0.315,
4068,0.3,-0.315,
4069,0.315,-0.295,
4070,0.31,-0.295,
4071,0.31,-0.285,
4072,0.31,-0.295,
4073,0.29,-0.305,
4074,0.295,-0.305,
4075,0.28,-0.31,
4076,0.285,-0.315,
4077,0.275,-0.305,
4078,0.285,-0.3,
4079,0.285,-0.285,
4080,0.29,-0.28,
4081,0.29,-0.275,
4082,0.29,-0.285,
4083,0.285,-0.275,
4084,0.29,-0.295,
4085,0.28,-0.31,
4086,0.275,-0.315,
4087,0.265,-0.31,
4088,0.27,-0.305,
4089,0.27,-0.3,
4090,0.275,-0.28,
4091,0.285,-0.25,
4092,0.32,-0.245,
4093,0.335,-0.235,
4094,0.36,-0.2,
4095,0.375,-0.19,
4096,0.39,-0.155,
4097,0.405,-0.14,
4098,0.405,-0.125,
4099,0.42,-0.12,
4100,0.415,-0.13,
4101,0.43,-0.115,
4102,0.46,-0.11,
4103,0.495,-0.12,
4104,0.52,-0.125,
4105,0.575,-0.145,
4106,0.6,-0.18,
4107,0.62,-0.215,
4108,0.615,-0.245,
4109,0.6,-0.275,
4110,0.55,-0.285,
4111,0.545,-0.305,
4112,0.52,-0.31,
4113,0.52,-0.31,
4114,0.535,-0.31,
4115,0.545,-0.305,
4116,0.54,-0.315,
4117,0.55,-0.35,
4118,0.52,-0.37,
4119,0.495,-0.385,
4120,0.46,-0.405,
4121,0.415,-0.405,
4122,0.395,-0.405,
4123,0.35,-0.385,
4124,0.335,-0.37,
4125,0.32,-0.35,
4126,0.315,-0.335,
4127,0.305,-0.335,
4128,0.295,-0.335,
4129,0.285,-0.32,
4130,0.265,-0.325,
4131,0.255,-0.32,
4132,0.235,-0.335,
4133,0.225,-0.35,
4134,0.21,-0.35,
4135,0.225,-0.375,
4136,0.22,-0.36,
4137,0.235,-0.355,
4138,0.245,-0.345,
4139,0.245,-0.34,
4140,0.255,-0.345,
4141,0.25,-0.34,
4142,0.245,-0.335,
4143,0.235,-0.34,
4144,0.23,-0.32,
4145,0.24,-0.295,
4146,0.24,-0.26,
4147,0.275,-0.21,
4148,0.34,-0.165,
4149,0.445,-0.13,
4150,0.605,-0.16,
4151,0.785,-0.235,
4152,0.965,-0.365,
4153,1.155,-0.525,
4154,1.31,-0.745,
4155,1.46,-1.02,
4156,1.61,-1.34,
4157,1.74,-1.695,
4158,1.85,-2.055,
4159,1.925,-2.355,
4160,1.96,-2.545,N
4161,1.94,-2.625,
4162,1.875,-2.595,
4163,1.8,-2.5,
4164,1.645,-2.37,
4165,1.445,-2.22,
4166,1.18,-2.05,
4167,0.92,-1.845,
4168,0.675,-1.595,
4169,0.5,-1.345,
4170,0.355,-1.13,
4171,0.27,-0.975,
4172,0.225,-0.85,
4173,0.22,-0.76,
4174,0.215,-0.695,
4175,0.195,-0.61,
4176,0.18,-0.545,
4177,0.15,-0.47,
4178,0.105,-0.4,
4179,0.065,-0.335,
4180,0.05,-0.315,
4181,0.045,-0.295,
4182,0.04,-0.31,
4183,0.04,-0.305,
4184,0.04,-0.29,
4185,0.03,-0.28,
4186,0.03,-0.26,
4187,0.04,-0.24,
4188,0.03,-0.215,
4189,0.035,-0.21,
4190,0.02,-0.2,
4191,0.025,-0.205,
4192,0.015,-0.195,
4193,0.015,-0.2,
4194,0.01,-0.205,
4195,0.0,-0.2,
4196,0.0,-0.175,
4197,-0.005,-0.18,
4198,0.0,-0.155,
4199,-0.005,-0.14,
4200,-0.005,-0.12,
4201,0.0,-0.125,
4202,0.005,-0.12,
4203,-0.005,-0.115,
4204,-0.01,-0.115,
4205,-0.01,-0.115,
4206,-0.015,-0.105,
4207,-0.025,-0.095,
4208,-0.035,-0.095,
4209,-0.04,-0.065,
4210,-0.045,-0.06,
4211,-0.04,-0.045,
4212,-0.04,-0.035,
4213,-0.04,-0.025,
4214,-0.05,-0.01,
4215,-0.055,-0.01,
4216,-0.06,-0.005,
4217,-0.075,-0.01,
4218,-0.085,0.0,
4219,-0.105,0.01,
4220,-0.12,0.025,
4221,-0.12,0.05,
4222,-0.13,0.065,
4223,-0.15,0.07,
4224,-0.145,0.095,
4225,-0.16,0.115,
4226,-0.165,0.125,
4227,-0.18,0.15,
4228,-0.185,0.14,
4229,-0.205,0.15,
4230,-0.215,0.15,
4231,-0.23,0.145,
4232,-0.245,0.17,
4233,-0.25,0.16,
4234,-0.25,0.19,
4235,-0.26,0.195,
4236,-0.27,0.225,
4237,-0.255,0.245,
4238,-0.26,0.225,
4239,-0.27,0.23,
4240,-0.265,0.215,
4241,-0.265,0.21,
4242,-0.265,0.195,
4243,-0.265,0.19,
4244,-0.26,0.19,
4245,-0.235,0.195,
4246,-0.21,0.18,
4247,-0.19,0.175,
4248,-0.165,0.165,
4249,-0.135,0.16,
4250,-0.13,0.105,
4251,-0.095,0.095,
4252,-0.09,0.06,
4253,-0.065,0.03,
4254,-0.05,-0.005,
4255,-0.03,-0.015,
4256,-0.015,-0.035,
4257,0.005,-0.06,
4258,0.03,-0.085,
4259,0.05,-0.105,
4260,0.06,-0.125,
4261,0.095,-0.14,
4262,0.1,-0.16,
4263,0.11,-0.185,
4264,0.11,-0.19,
4265,0.11,-0.205,
4266,0.1,-0.225,
4267,0.09,-0.23,
4268,0.1,-0.225,
4269,0.085,-0.24,
4270,0.095,-0.24,
4271,0.11,-0.24,
4272,0.105,-0.235,
4273,0.12,-0.235,
4274,0.105,-0.24,
4275,0.09,-0.245,
4276,0.1,-0.25,
4277,0.09,-0.265,
4278,0.095,-0.27,
4279,0.09,-0.27,
4280,0.09,-0.265,
4281,0.09,-0.26,
4282,0.09,-0.255,
4283,0.1,-0.255,
4284,0.1,-0.23,
4285,0.1,-0.235,
4286,0.1,-0.245,
4287,0.1,-0.24,
4288,0.095,-0.255,
4289,0.075,-0.26,
4290,0.075,-0.27,
4291,0.07,-0.265,
4292,0.06,-0.26,
4293,0.075,-0.255,
4294,0.07,-0.24,
4295,0.08,-0.24,
4296,0.08,-0.22,
4297,0.08,-0.23,
4298,0.075,-0.235,
4299,0.075,-0.235,
4300,0.065,-0.245,
4301,0.06,-0.255,
4302,0.05,-0.26,
4303,0.045,-0.245,
4304,0.06,-0.23,
4305,0.06,-0.235,
4306,0.08,-0.22,
4307,0.08,-0.215,
4308,0.105,-0.19,
4309,0.115,-0.18,
4310,0.13,-0.145,
4311,0.155,-0.115,
4312,0.155,-0.095,
4313,0.16,-0.08,
4314,0.18,-0.06,
4315,0.18,-0.075,
4316,0.18,-0.07,
4317,0.205,-0.075,
4318,0.225,-0.065,
4319,0.26,-0.08,
4320,0.3,-0.085,
4321,0.33,-0.105,
4322,0.36,-0.13,
4323,0.375,-0.165,
4324,0.355,-0.205,
4325,0.33,-0.22,
4326,0.29,-0.25,
4327,0.265,-0.26,
4328,0.265,-0.27,
4329,0.26,-0.255,
4330,0.27,-0.25,
4331,0.275,-0.275,
4332,0.28,-0.275,
4333,0.28,-0.29,
4334,0.25,-0.33,
4335,0.225,-0.345,
4336,0.18,-0.37,
4337,0.13,-0.355,
4338,0.1,-0.345,
4339,0.07,-0.32,
4340,0.045,-0.29,
4341,0.03,-0.265,
4342,0.015,-0.255,
4343,0.02,-0.26,
4344,0.005,-0.27,
4345,0.0,-0.27,
4346,-0.015,-0.27,
4347,-0.02,-0.28,
4348,-0.03,-0.295,
4349,-0.045,-0.295,
4350,-0.055,-0.3,
4351,-0.055,-0.3,
4352,-0.055,-0.29,
4353,-0.08,-0.3,
4354,-0.06,-0.295,
4355,-0.055,-0.285,
4356,-0.05,-0.285,
4357,-0.035,-0.28,
4358,-0.035,-0.28,
4359,-0.035,-0.26,
4360,-0.05,-0.26,
4361,-0.045,-0.225,
4362,-0.03,-0.185,
4363,0.02,-0.14,
4364,0.095,-0.11,
4365,0.22,-0.105,
4366,0.395,-0.16,
4367,0.585,-0.27,
4368,0.795,-0.425,
4369,0.985,-0.635,
4370,1.155,-0.915,
4371,1.32,-1.26,
4372,1.465,-1.64,
4373,1.57,-2.025,
4374,1.655,-2.36,
4375,1.665,-2.55,N
4376,1.62,-2.61,
4377,1.535,-2.56,
4378,1.395,-2.43,
4379,1.19,-2.24,
4380,0.92,-2.025,
4381,0.635,-1.785,
4382,0.375,-1.525,
4383,0.17,-1.275,
4384,0.025,-1.06,
4385,-0.065,-0.915,
4386,-0.11,-0.805,
4387,-0.115,-0.715,
4388,-0.115,-0.66,
4389,-0.125,-0.58,
4390,-0.16,-0.5,
4391,-0.18,-0.43,
4392,-0.21,-0.36,
4393,-0.23,-0.305,
4394,-0.25,-0.28,
4395,-0.25,-0.25,
4396,-0.25,-0.24,
4397,-0.255,-0.245,
4398,-0.27,-0.235,
4399,-0.275,-0.22,
4400,-0.285,-0.205,
4401,-0.295,-0.2,
4402,-0.3,-0.19,
4403,-0.3,-0.18,
4404,-0.295,-0.175,
4405,-0.29,-0.15,
4406,-0.3,-0.16,
4407,-0.305,-0.145,
4408,-0.305,-0.13,
4409,-0.325,-0.125,
4410,-0.325,-0.13,
4411,-0.32,-0.13,
4412,-0.33,-0.115,
4413,-0.335,-0.11,
4414,-0.34,-0.095,
4415,-0.32,-0.08,
4416,-0.325,-0.065,
4417,-0.33,-0.055,
4418,-0.33,-0.035,
4419,-0.335,-0.04,
4420,-0.34,-0.045,
4421,-0.345,-0.035,
4422,-0.365,-0.035,
4423,-0.375,-0.025,
4424,-0.39,-0.025,
4425,-0.375,0.01,
4426,-0.39,0.02,
4427,-0.38,0.035,
4428,-0.39,0.06,
4429,-0.395,0.055,
4430,-0.41,0.08,
4431,-0.42,0.08,
4432,-0.425,0.065,
4433,-0.435,0.08,
4434,-0.46,0.09,
4435,-0.475,0.085,
4436,-0.48,0.095,
4437,-0.49,0.14,
4438,-0.5,0.155,
4439,-0.51,0.165,
4440,-0.515,0.18,
4441,-0.505,0.195,
4442,-0.52,0.19,
4443,-0.53,0.195,
4444,-0.54,0.2,
4445,-0.56,0.215,
4446,-0.575,0.225,
4447,-0.585,0.225,
4448,-0.59,0.23,
4449,-0.6,0.24,
4450,-0.595,0.26,
4451,-0.595,0.26,
4452,-0.595,0.285,
4453,-0.585,0.265,
4454,-0.58,0.275,
4455,-0.575,0.27,
4456,-0.57,0.255,
4457,-0.57,0.255,
4458,-0.565,0.24,
4459,-0.55,0.215,
4460,-0.54,0.205,
4461,-0.51,0.18,
4462,-0.485,0.17,
4463,-0.46,0.165,
4464,-0.445,0.14,
4465,-0.42,0.115,
4466,-0.4,0.095,
4467,-0.38,0.07,
4468,-0.365,0.045,
4469,-0.345,0.015,
4470,-0.325,0.0,
4471,-0.315,-0.045,
4472,-0.315,-0.08,
4473,-0.295,-0.085,
4474,-0.275,-0.095,
4475,-0.26,-0.11,
4476,-0.255,-0.11,
4477,-0.23,-0.13,
4478,-0.235,-0.14,
4479,-0.22,-0.16,
4480,-0.225,-0.185,
4481,-0.235,-0.19,
4482,-0.23,-0.2,
4483,-0.235,-0.205,
4484,-0.23,-0.2,
4485,-0.225,-0.19,
4486,-0.22,-0.19,
4487,-0.21,-0.185,
4488,-0.2,-0.185,
4489,-0.2,-0.195,
4490,-0.19,-0.2,
4491,-0.175,-0.2,
4492,-0.17,-0.215,
4493,-0.15,-0.205,
4494,-0.125,-0.21,
4495,-0.105,-0.22,
4496,-0.075,-0.215,
4497,-0.03,-0.22,
4498,0.02,-0.215,
4499,0.08,-0.21,
4500,0.15,-0.215,
4501,0.22,-0.22,
4502,0.285,-0.225,
4503,0.365,-0.23,
4504,0.455,-0.255,
4505,0.55,-0.26,
4506,0.64,-0.3,
4507,0.7,-0.33,
4508,0.685,-0.385,
4509,0.565,-0.45,
4510,0.325,-0.51,
4511,-0.055,-0.575,
4512,-0.51,-0.61,
4513,-0.965,-0.62,
4514,-1.38,-0.625,
4515,-1.68,-0.62,
4516,-1.91,-0.615,
4517,-2.05,-0.63,
4518,-2.18,-0.665,
4519,-2.275,-0.68,
4520,-2.36,-0.66,
4521,-2.405,-0.58,V
4522,-2.42,-0.445,
4523,-2.4,-0.315,
4524,-2.37,-0.12,
4525,-2.32,0.09,
4526,-2.255,0.265,
4527,-2.16,0.445,
4528,-2.07,0.595,
4529,-1.965,0.7,
4530,-1.85,0.775,
4531,-1.75,0.84,
4532,-1.67,0.92,
4533,-1.59,0.97,
4534,-1.505,1.02,
4535,-1.445,1.055,
4536,-1.35,1.055,
4537,-1.25,0.995,
4538,-1.17,0.9,
4539,-1.07,0.755,
4540,-0.98,0.515,
4541,-0.905,0.275,
4542,-0.845,-0.015,
4543,-0.805,-0.285,
4544,-0.755,-0.505,
4545,-0.715,-0.665,
4546,-0.655,-0.72,
4547,-0.575,-0.72,
4548,-0.45,-0.685,
4549,-0.32,-0.61,
4550,-0.17,-0.555,
4551,-0.04,-0.515,
4552,0.065,-0.455,
4553,0.14,-0.42,
4554,0.17,-0.38,
4555,0.165,-0.36,
4556,0.15,-0.34,
4557,0.14,-0.325,
4558,0.14,-0.32,
4559,0.14,-0.325,
4560,0.16,-0.32,
4561,0.17,-0.31,
4562,0.195,-0.315,
4563,0.21,-0.31,
4564,0.225,-0.325,
4565,0.235,-0.32,
4566,0.235,-0.335,
4567,0.25,-0.345,
4568,0.25,-0.335,
4569,0.28,-0.345,
4570,0.3,-0.33,
4571,0.32,-0.33,
4572,0.34,-0.33,
4573,0.37,-0.325,
4574,0.38,-0.325,
4575,0.4,-0.335,
4576,0.41,-0.34,
4577,0.425,-0.355,
4578,0.42,-0.35,
4579,0.44,-0.35,
4580,0.455,-0.35,
4581,0.48,-0.36,
4582,0.5,-0.355,
4583,0.53,-0.345,
4584,0.545,-0.35,
4585,0.575,-0.355,
4586,0.605,-0.365,
4587,0.63,-0.365,
4588,0.645,-0.375,
4589,0.655,-0.39,
4590,0.665,-0.405,
4591,0.685,-0.4,
4592,0.68,-0.41,
4593,0.69,-0.41,
4594,0.7,-0.415,
4595,0.725,-0.425,
4596,0.725,-0.42,
4597,0.75,-0.42,
4598,0.735,-0.425,
4599,0.735,-0.43,
4600,0.705,-0.45,
4601,0.69,-0.465,
4602,0.67,-0.475,
4603,0.63,-0.49,
4604,0.61,-0.51,
4605,0.58,-0.5,
4606,0.545,-0.49,
4607,0.525,-0.495,
4608,0.5,-0.465,
4609,0.47,-0.46,
4610,0.44,-0.46,
4611,0.385,-0.46,
4612,0.34,-0.46,
4613,0.295,-0.465,
4614,0.265,-0.46,
4615,0.225,-0.455,
4616,0.185,-0.425,
4617,0.145,-0.39,
4618,0.11,-0.37,
4619,0.085,-0.345,
4620,0.055,-0.32,
4621,0.035,-0.31,
4622,0.025,-0.295,
4623,-0.01,-0.26,
4624,-0.04,-0.25,
4625,-0.065,-0.235,
4626,-0.1,-0.225,
4627,-0.115,-0.215,
4628,-0.14,-0.205,
4629,-0.16,-0.19,
4630,-0.17,-0.165,
4631,-0.185,-0.16,
4632,-0.2,-0.155,
4633,-0.205,-0.15,
4634,-0.2,-0.14,
4635,-0.215,-0.145,
4636,-0.23,-0.145,
4637,-0.24,-0.145,
4638,-0.25,-0.15,
4639,-0.265,-0.155,
4640,-0.265,-0.15,
4641,-0.265,-0.155,
4642,-0.265,-0.15,
4643,-0.255,-0.145,
4644,-0.275,-0.13,
4645,-0.265,-0.13,
4646,-0.255,-0.135,
4647,-0.26,-0.135,
4648,-0.255,-0.145,
4649,-0.27,-0.15,
4650,-0.28,-0.155,
4651,-0.275,-0.155,
4652,-0.285,-0.165,
4653,-0.28,-0.15,
4654,-0.28,-0.145,
4655,-0.275,-0.125,
4656,-0.27,-0.125,
4657,-0.26,-0.13,
4658,-0.27,-0.14,
4659,-0.255,-0.145,
4660,-0.26,-0.155,
4661,-0.27,-0.16,
4662,-0.3,-0.155,
4663,-0.285,-0.155,
4664,-0.29,-0.155,
4665,-0.295,-0.145,
4666,-0.3,-0.145,
4667,-0.295,-0.14,
4668,-0.285,-0.125,
4669,-0.3,-0.13,
4670,-0.305,-0.135,
4671,-0.31,-0.14,
4672,-0.32,-0.15,
4673,-0.325,-0.145,
4674,-0.32,-0.16,
4675,-0.33,-0.155,
4676,-0.33,-0.155,
4677,-0.345,-0.14,
4678,-0.345,-0.15,
4679,-0.35,-0.145,
4680,-0.345,-0.14,
4681,-0.325,-0.125,
4682,-0.34,-0.14,
4683,-0.325,-0.135,
4684,-0.335,-0.15,
4685,-0.33,-0.15,
4686,-0.335,-0.16,
4687,-0.345,-0.165,
4688,-0.345,-0.165,
4689,-0.34,-0.17,
4690,-0.34,-0.16,
4691,-0.345,-0.155,
4692,-0.34,-0.145,
4693,-0.33,-0.15,
4694,-0.33,-0.15,
4695,-0.35,-0.15,
4696,-0.36,-0.17,
4697,-0.355,-0.165,
4698,-0.345,-0.2,
4699,-0.355,-0.18,
4700,-0.36,-0.195,
4701,-0.36,-0.19,
4702,-0.36,-0.18,
4703,-0.345,-0.17,
4704,-0.355,-0.17,
4705,-0.34,-0.165,
4706,-0.355,-0.165,
4707,-0.35,-0.17,
4708,-0.355,-0.175,
4709,-0.36,-0.175,
4710,-0.375,-0.18,
4711,-0.37,-0.195,
4712,-0.375,-0.185,
4713,-0.38,-0.18,
4714,-0.37,-0.17,
4715,-0.38,-0.165,
4716,-0.365,-0.165,
4717,-0.36,-0.15,
4718,-0.36,-0.15,
4719,-0.365,-0.15,
4720,-0.365,-0.16,
4721,-0.38,-0.17,
4722,-0.385,-0.19,
4723,-0.38,-0.185,
4724,-0.385,-0.185,
4725,-0.375,-0.2,
4726,-0.38,-0.165,
4727,-0.355,-0.16,
4728,-0.345,-0.13,
4729,-0.32,-0.115,
4730,-0.315,-0.095,
4731,-0.29,-0.085,
4732,-0.275,-0.07,
4733,-0.265,-0.05,
4734,-0.245,-0.025,
4735,-0.24,-0.005,
4736,-0.225,0.0,
4737,-0.225,0.005,
4738,-0.21,0.01,
4739,-0.185,0.01,
4740,-0.165,0.015,
4741,-0.13,-0.005,
4742,-0.1,-0.03,
4743,-0.08,-0.065,
4744,-0.065,-0.09,
4745,-0.06,-0.12,
4746,-0.075,-0.145,
4747,-0.095,-0.155,
4748,-0.12,-0.17,
4749,-0.14,-0.18,
4750,-0.135,-0.165,
4751,-0.125,-0.16,
4752,-0.1,-0.175,
4753,-0.09,-0.2,
4754,-0.1,-0.225,
4755,-0.13,-0.25,
4756,-0.16,-0.28,
4757,-0.195,-0.29,
4758,-0.235,-0.295,
4759,-0.27,-0.28,
4760,-0.29,-0.255,
4761,-0.32,-0.225,
4762,-0.33,-0.21,
4763,-0.365,-0.205,
4764,-0.355,-0.19,
4765,-0.375,-0.195,
4766,-0.38,-0.185,
4767,-0.39,-0.185,
4768,-0.41,-0.19,
4769,-0.42,-0.2,
4770,-0.435,-0.205,
4771,-0.44,-0.22,
4772,-0.435,-0.22,
4773,-0.435,-0.22,
4774,-0.43,-0.225,
4775,-0.425,-0.225,
4776,-0.41,-0.21,
4777,-0.42,-0.21,
4778,-0.415,-0.22,
4779,-0.41,-0.205,
4780,-0.41,-0.21,
4781,-0.405,-0.19,
4782,-0.395,-0.16,
4783,-0.385,-0.11,
4784,-0.335,-0.06,
4785,-0.25,-0.035,
4786,-0.115,-0.035,
4787,0.06,-0.075,
4788,0.26,-0.175,
4789,0.47,-0.325,
4790,0.665,-0.535,
4791,0.84,-0.775,
4792,1.005,-1.065,
4793,1.145,-1.43,
4794,1.28,-1.795,
4795,1.365,-2.12,
4796,1.39,-2.36,N
4797,1.365,-2.48,
4798,1.285,-2.475,
4799,1.15,-2.39,
4800,0.945,-2.25,
4801,0.685,-2.08,
4802,0.4,-1.86,
4803,0.12,-1.605,
4804,-0.09,-1.345,
4805,-0.225,-1.1,
4806,-0.325,-0.925,
4807,-0.395,-0.785,
4808,-0.42,-0.68,
4809,-0.425,-0.595,
4810,-0.445,-0.535,
4811,-0.48,-0.46,
4812,-0.515,-0.385,
4813,-0.53,-0.31,
4814,-0.555,-0.26,
4815,-0.57,-0.22,
4816,-0.58,-0.19,
4817,-0.595,-0.19,
4818,-0.6,-0.185,
4819,-0.605,-0.17,
4820,-0.615,-0.18,
4821,-0.63,-0.155,
4822,-0.63,-0.145,
4823,-0.625,-0.12,
4824,-0.62,-0.095,
4825,-0.615,-0.08,
4826,-0.615,-0.07,
4827,-0.635,-0.055,
4828,-0.64,-0.07,
4829,-0.645,-0.075,
4830,-0.66,-0.08,
4831,-0.665,-0.065,
4832,-0.65,-0.055,
4833,-0.66,-0.045,
4834,-0.655,-0.035,
4835,-0.645,-0.015,
4836,-0.65,-0.005,
4837,-0.65,0.005,
4838,-0.67,0.01,
4839,-0.66,0.01,
4840,-0.645,0.0,
4841,-0.66,0.005,
4842,-0.665,0.015,
4843,-0.675,0.015,
4844,-0.68,0.02,
4845,-0.7,0.045,
4846,-0.695,0.055,
4847,-0.69,0.065,
4848,-0.7,0.07,
4849,-0.68,0.085,
4850,-0.7,0.085,
4851,-0.71,0.1,
4852,-0.725,0.085,
4853,-0.75,0.105,
4854,-0.765,0.1,
4855,-0.775,0.11,
4856,-0.8,0.115,
4857,-0.82,0.125,
4858,-0.825,0.135,
4859,-0.845,0.15,
4860,-0.86,0.165,
4861,-0.86,0.185,
4862,-0.885,0.195,
4863,-0.9,0.195,
4864,-0.92,0.2,
4865,-0.935,0.195,
4866,-0.96,0.185,
4867,-0.975,0.21,
4868,-0.98,0.205,
4869,-1.0,0.21,
4870,-1.01,0.22,
4871,-1.0,0.24,
4872,-1.005,0.25,
4873,-1.0,0.245,
4874,-1.005,0.25,
4875,-1.0,0.24,
4876,-1.015,0.235,
4877,-1.015,0.225,
4878,-1.02,0.215,
4879,-1.015,0.22,
4880,-0.995,0.22,
4881,-0.975,0.215,
4882,-0.95,0.215,
4883,-0.91,0.2,
4884,-0.895,0.195,
4885,-0.86,0.185,
4886,-0.825,0.16,
4887,-0.795,0.145,
4888,-0.765,0.13,
4889,-0.745,0.11,
4890,-0.725,0.085,
4891,-0.705,0.065,
4892,-0.67,0.045,
4893,-0.64,0.02,
4894,-0.63,0.005,
4895,-0.575,-0.005,
4896,-0.54,-0.02,
4897,-0.505,-0.04,
4898,-0.485,-0.055,
4899,-0.475,-0.065,
4900,-0.47,-0.07,
4901,-0.47,-0.105,
4902,-0.47,-0.12,
4903,-0.455,-0.125,
4904,-0.46,-0.135,
4905,-0.455,-0.145,
4906,-0.435,-0.145,
4907,-0.43,-0.14,
4908,-0.435,-0.13,
4909,-0.415,-0.13,
4910,-0.415,-0.14,
4911,-0.405,-0.135,
4912,-0.405,-0.145,
4913,-0.42,-0.155,
4914,-0.43,-0.165,
4915,-0.43,-0.16,
4916,-0.435,-0.17,
4917,-0.43,-0.15,
4918,-0.42,-0.15,
4919,-0.4,-0.13,
4920,-0.395,-0.125,
4921,-0.395,-0.13,
4922,-0.385,-0.135,
4923,-0.39,-0.135,
4924,-0.38,-0.135,
4925,-0.39,-0.15,
4926,-0.38,-0.15,
4927,-0.36,-0.145,
4928,-0.35,-0.14,
4929,-0.34,-0.145,
4930,-0.325,-0.135,
4931,-0.3,-0.135,
4932,-0.3,-0.12,
4933,-0.27,-0.1,
4934,-0.285,-0.09,
4935,-0.245,-0.075,
4936,-0.225,-0.06,
4937,-0.21,-0.045,
4938,-0.17,-0.055,
4939,-0.11,-0.025,
4940,-0.05,-0.005,
4941,0.025,-0.005,
4942,0.16,-0.005,
4943,0.295,-0.01,
4944,0.42,-0.015,
4945,0.54,-0.03,
4946,0.645,-0.055,
4947,0.76,-0.065,
4948,0.87,-0.1,
4949,0.97,-0.14,
4950,1.065,-0.195,
4951,1.145,-0.26,
4952,1.24,-0.335,
4953,1.325,-0.42,
4954,1.41,-0.525,V
4955,1.45,-0.675,
4956,1.415,-0.835,
4957,1.305,-0.985,
4958,1.065,-1.135,
4959,0.69,-1.225,
4960,0.18,-1.355,
4961,-0.35,-1.455,
4962,-0.835,-1.56,
4963,-1.225,-1.66,
4964,-1.505,-1.73,
4965,-1.63,-1.755,
4966,-1.64,-1.74,
4967,-1.585,-1.705,
4968,-1.48,-1.645,
4969,-1.365,-1.54,
4970,-1.265,-1.44,
4971,-1.185,-1.335,
4972,-1.11,-1.195,
4973,-1.035,-1.045,
4974,-0.96,-0.88,
4975,-0.875,-0.715,
4976,-0.78,-0.56,
4977,-0.685,-0.44,
4978,-0.595,-0.335,
4979,-0.545,-0.26,
4980,-0.53,-0.21,
4981,-0.53,-0.175,
4982,-0.54,-0.16,
4983,-0.55,-0.145,
4984,-0.545,-0.13,
4985,-0.54,-0.12,
4986,-0.54,-0.125,
4987,-0.525,-0.12,
4988,-0.525,-0.095,
4989,-0.515,-0.105,
4990,-0.52,-0.075,
4991,-0.52,-0.08,
4992,-0.515,-0.065,
4993,-0.51,-0.05,
4994,-0.505,-0.04,
4995,-0.495,-0.035,
4996,-0.51,-0.05,
4997,-0.515,-0.05,
4998,-0.515,-0.06,
4999,-0.515,-0.055,
5000,-0.51,-0.05,
5001,-0.51,-0.02,
5002,-0.505,-0.01,
5003,-0.505,0.0,
5004,-0.515,0.005,
5005,-0.505,0.02,
5006,-0.51,0.015,
5007,-0.505,0.01,
5008,-0.505,0.01,
5009,-0.51,0.0,
5010,-0.52,0.02,
5011,-0.515,0.015,
5012,-0.51,0.03,
5013,-0.505,0.045,
5014,-0.5,0.05,
5015,-0.495,0.065,
5016,-0.485,0.08,
5017,-0.485,0.075,
5018,-0.49,0.08,
5019,-0.49,0.085,
5020,-0.49,0.1,
5021,-0.5,0.095,
5022,-0.5,0.095,
5023,-0.5,0.12,
5024,-0.495,0.135,
5025,-0.48,0.14,
5026,-0.465,0.15,
5027,-0.45,0.155,
5028,-0.43,0.17,
5029,-0.41,0.18,
5030,-0.395,0.195,
5031,-0.385,0.21,
5032,-0.385,0.215,
5033,-0.37,0.23,
5034,-0.365,0.225,
5035,-0.35,0.245,
5036,-0.335,0.235,
5037,-0.325,0.25,
5038,-0.285,0.24,
5039,-0.265,0.265,
5040,-0.23,0.26,
5041,-0.22,0.29,
5042,-0.2,0.28,
5043,-0.19,0.285,
5044,-0.195,0.255,
5045,-0.19,0.25,
5046,-0.195,0.23,
5047,-0.2,0.23,
5048,-0.205,0.21,
5049,-0.21,0.205,
5050,-0.215,0.205,
5051,-0.21,0.21,
5052,-0.2,0.195,
5053,-0.21,0.19,
5054,-0.205,0.18,
5055,-0.22,0.155,
5056,-0.235,0.14,
5057,-0.24,0.105,
5058,-0.265,0.08,
5059,-0.285,0.06,
5060,-0.31,0.055,
5061,-0.315,0.05,
5062,-0.325,0.045,
5063,-0.33,0.03,
5064,-0.335,0.025,
5065,-0.335,0.01,
5066,-0.335,-0.015,
5067,-0.345,-0.02,
5068,-0.345,-0.03,
5069,-0.355,-0.05,
5070,-0.36,-0.055,
5071,-0.37,-0.065,
5072,-0.365,-0.06,
5073,-0.36,-0.06,
5074,-0.35,-0.055,
5075,-0.355,-0.065,
5076,-0.345,-0.07,
5077,-0.345,-0.065,
5078,-0.35,-0.065,
5079,-0.345,-0.06,
5080,-0.355,-0.065,
5081,-0.36,-0.06,
5082,-0.365,-0.075,
5083,-0.36,-0.08,
5084,-0.38,-0.065,
5085,-0.37,-0.08,
5086,-0.375,-0.07,
5087,-0.37,-0.065,
5088,-0.365,-0.065,
5089,-0.355,-0.045,
5090,-0.355,-0.05,
5091,-0.34,-0.05,
5092,-0.325,-0.055,
5093,-0.335,-0.06,
5094,-0.32,-0.07,
5095,-0.325,-0.08,
5096,-0.335,-0.09,
5097,-0.335,-0.085,
5098,-0.33,-0.08,
5099,-0.325,-0.065,
5100,-0.33,-0.05,
5101,-0.315,-0.055,
5102,-0.325,-0.05,
5103,-0.315,-0.06,
5104,-0.31,-0.065,
5105,-0.31,-0.08,
5106,-0.315,-0.09,
5107,-0.325,-0.095,
5108,-0.335,-0.09,
5109,-0.345,-0.085,
5110,-0.34,-0.075,
5111,-0.335,-0.08,
5112,-0.345,-0.065,
5113,-0.33,-0.075,
5114,-0.31,-0.08,
5115,-0.325,-0.09,
5116,-0.31,-0.105,
5117,-0.315,-0.095,
5118,-0.33,-0.1,
5119,-0.34,-0.09,
5120,-0.35,-0.095,
5121,-0.345,-0.09,
5122,-0.34,-0.095,
5123,-0.325,-0.085,
5124,-0.32,-0.08,
5125,-0.305,-0.09,
5126,-0.305,-0.1,
5127,-0.31,-0.105,
5128,-0.315,-0.11,
5129,-0.32,-0.115,
5130,-0.33,-0.115,
5131,-0.33,-0.12,
5132,-0.33,-0.125,
5133,-0.33,-0.12,
5134,-0.32,-0.13,
5135,-0.315,-0.12,
5136,-0.315,-0.115,
5137,-0.31,-0.105,
5138,-0.3,-0.095,
5139,-0.3,-0.11,
5140,-0.305,-0.12,
5141,-0.32,-0.125,
5142,-0.325,-0.13,
5143,-0.335,-0.13,
5144,-0.335,-0.125,
5145,-0.325,-0.13,
5146,-0.325,-0.12,
5147,-0.31,-0.11,
5148,-0.29,-0.085,
5149,-0.28,-0.09,
5150,-0.285,-0.095,
5151,-0.275,-0.105,
5152,-0.265,-0.1,
5153,-0.26,-0.11,
5154,-0.255,-0.105,
5155,-0.245,-0.08,
5156,-0.225,-0.05,
5157,-0.21,-0.005,
5158,-0.2,0.035,
5159,-0.185,0.045,
5160,-0.175,0.055,
5161,-0.15,0.065,
5162,-0.15,0.05,
5163,-0.13,0.04,
5164,-0.095,0.03,
5165,-0.065,0.0,
5166,-0.045,-0.02,
5167,-0.005,-0.04,
5168,0.02,-0.065,
5169,0.025,-0.09,
5170,0.0,-0.105,
5171,-0.015,-0.115,
5172,-0.02,-0.11,
5173,-0.01,-0.11,
5174,0.0,-0.1,
5175,-0.005,-0.105,
5176,0.005,-0.14,
5177,-0.005,-0.155,
5178,-0.025,-0.205,
5179,-0.06,-0.22,
5180,-0.1,-0.235,
5181,-0.145,-0.22,
5182,-0.185,-0.19,
5183,-0.215,-0.15,
5184,-0.235,-0.145,
5185,-0.225,-0.135,
5186,-0.25,-0.145,
5187,-0.26,-0.145,
5188,-0.28,-0.165,
5189,-0.3,-0.175,
5190,-0.32,-0.18,
5191,-0.33,-0.17,
5192,-0.34,-0.185,
5193,-0.33,-0.17,
5194,-0.32,-0.17,
5195,-0.31,-0.165,
5196,-0.305,-0.155,
5197,-0.285,-0.15,
5198,-0.29,-0.15,
5199,-0.285,-0.15,
5200,-0.29,-0.17,
5201,-0.295,-0.155,
5202,-0.3,-0.155,
5203,-0.305,-0.14,
5204,-0.315,-0.105,
5205,-0.285,-0.065,
5206,-0.255,-0.01,
5207,-0.17,0.01,
5208,-0.055,0.03,
5209,0.125,0.0,
5210,0.325,-0.085,
5211,0.53,-0.21,
5212,0.74,-0.375,
5213,0.925,-0.58,
5214,1.09,-0.825,
5215,1.24,-1.12,
5216,1.385,-1.44,
5217,1.495,-1.765,
5218,1.56,-2.035,N
5219,1.57,-2.205,
5220,1.52,-2.25,
5221,1.415,-2.215,
5222,1.215,-2.105,
5223,0.94,-1.94,
5224,0.61,-1.745,
5225,0.285,-1.49,
5226,0.02,-1.245,
5227,-0.15,-1.02,
5228,-0.235,-0.83,
5229,-0.29,-0.675,
5230,-0.29,-0.57,
5231,-0.29,-0.49,
5232,-0.3,-0.41,
5233,-0.32,-0.34,
5234,-0.37,-0.285,
5235,-0.4,-0.235,
5236,-0.44,-0.17,
5237,-0.475,-0.155,
5238,-0.49,-0.145,
5239,-0.495,-0.135,
5240,-0.48,-0.135,
5241,-0.48,-0.11,
5242,-0.485,-0.085,
5243,-0.49,-0.07,
5244,-0.505,-0.065,
5245,-0.505,-0.04,
5246,-0.5,-0.05,
5247,-0.505,-0.04,
5248,-0.505,-0.035,
5249,-0.515,-0.04,
5250,-0.525,-0.025,
5251,-0.515,-0.025,
5252,-0.505,-0.02,
5253,-0.5,-0.01,
5254,-0.495,0.005,
5255,-0.485,0.01,
5256,-0.495,-0.005,
5257,-0.495,0.005,
5258,-0.505,0.01,
5259,-0.525,0.02,
5260,-0.53,0.02,
5261,-0.54,0.02,
5262,-0.55,0.025,
5263,-0.55,0.035,
5264,-0.555,0.04,
5265,-0.555,0.045,
5266,-0.545,0.055,
5267,-0.54,0.07,
5268,-0.545,0.075,
5269,-0.545,0.085,
5270,-0.53,0.095,
5271,-0.535,0.09,
5272,-0.55,0.075,
5273,-0.57,0.085,
5274,-0.585,0.09,
5275,-0.625,0.095,
5276,-0.64,0.1,
5277,-0.66,0.115,
5278,-0.655,0.135,
5279,-0.665,0.145,
5280,-0.66,0.165,
5281,-0.65,0.175,
5282,-0.655,0.17,
5283,-0.69,0.16,
5284,-0.695,0.165,
5285,-0.72,0.17,
5286,-0.75,0.17,
5287,-0.765,0.18,
5288,-0.785,0.19,
5289,-0.8,0.205,
5290,-0.8,0.22,
5291,-0.815,0.215,
5292,-0.825,0.225,
5293,-0.815,0.23,
5294,-0.82,0.23,
5295,-0.82,0.235,
5296,-0.84,0.245,
5297,-0.855,0.225,
5298,-0.855,0.22,
5299,-0.86,0.23,
5300,-0.865,0.22,
5301,-0.865,0.225,
5302,-0.835,0.225,
5303,-0.83,0.22,
5304,-0.82,0.24,
5305,-0.8,0.235,
5306,-0.79,0.215,
5307,-0.77,0.22,
5308,-0.745,0.205,
5309,-0.735,0.2,
5310,-0.71,0.17,
5311,-0.68,0.155,
5312,-0.675,0.145,
5313,-0.635,0.125,
5314,-0.605,0.12,
5315,-0.57,0.11,
5316,-0.53,0.1,
5317,-0.495,0.09,
5318,-0.475,0.08,
5319,-0.46,0.06,
5320,-0.43,0.04,
5321,-0.425,0.02,
5322,-0.405,0.005,
5323,-0.39,-0.025,
5324,-0.37,-0.05,
5325,-0.355,-0.055,
5326,-0.34,-0.05,
5327,-0.325,-0.045,
5328,-0.32,-0.045,
5329,-0.3,-0.045,
5330,-0.31,-0.06,
5331,-0.315,-0.055,
5332,-0.31,-0.07,
5333,-0.315,-0.085,
5334,-0.32,-0.095,
5335,-0.32,-0.095,
5336,-0.325,-0.08,
5337,-0.33,-0.08,
5338,-0.33,-0.08,
5339,-0.32,-0.07,
5340,-0.34,-0.07,
5341,-0.33,-0.065,
5342,-0.325,-0.08,
5343,-0.325,-0.075,
5344,-0.325,-0.09,
5345,-0.33,-0.08,
5346,-0.315,-0.075,
5347,-0.325,-0.085,
5348,-0.305,-0.07,
5349,-0.305,-0.075,
5350,-0.31,-0.07,
5351,-0.3,-0.065,
5352,-0.3,-0.07,
5353,-0.285,-0.055,
5354,-0.29,-0.06,
5355,-0.31,-0.06,
5356,-0.3,-0.06,
5357,-0.32,-0.07,
5358,-0.315,-0.075,
5359,-0.33,-0.08,
5360,-0.325,-0.085,
5361,-0.32,-0.075,
5362,-0.33,-0.085,
5363,-0.325,-0.07,
5364,-0.315,-0.06,
5365,-0.315,-0.055,
5366,-0.3,-0.045,
5367,-0.29,-0.035,
5368,-0.29,-0.04,
5369,-0.305,-0.055,
5370,-0.3,-0.04,
5371,-0.3,-0.045,
5372,-0.29,-0.03,
5373,-0.275,-0.02,
5374,-0.26,0.015,
5375,-0.235,0.04,
5376,-0.22,0.065,
5377,-0.195,0.09,
5378,-0.185,0.1,
5379,-0.185,0.105,
5380,-0.18,0.1,
5381,-0.165,0.09,
5382,-0.175,0.08,
5383,-0.135,0.085,
5384,-0.12,0.08,
5385,-0.075,0.075,
5386,-0.035,0.065,
5387,-0.005,0.055,
5388,0.015,0.01,
5389,0.025,-0.005,
5390,0.0,-0.035,
5391,-0.025,-0.045,
5392,-0.035,-0.065,
5393,-0.055,-0.06,
5394,-0.06,-0.07,
5395,-0.055,-0.07,
5396,-0.055,-0.08,
5397,-0.055,-0.085,
5398,-0.065,-0.11,
5399,-0.08,-0.125,
5400,-0.095,-0.14,
5401,-0.12,-0.135,
5402,-0.15,-0.15,
5403,-0.18,-0.135,
5404,-0.2,-0.11,
5405,-0.235,-0.115,
5406,-0.265,-0.1,
5407,-0.285,-0.09,
5408,-0.295,-0.085,
5409,-0.305,-0.09,
5410,-0.32,-0.09,
5411,-0.32,-0.075,
5412,-0.345,-0.085,
5413,-0.34,-0.085,
5414,-0.335,-0.105,
5415,-0.33,-0.1,
5416,-0.335,-0.11,
5417,-0.345,-0.105,
5418,-0.35,-0.11,
5419,-0.35,-0.11,
5420,-0.355,-0.125,
5421,-0.345,-0.125,
5422,-0.335,-0.115,
5423,-0.325,-0.115,
5424,-0.315,-0.1,
5425,-0.29,-0.08,
5426,-0.29,-0.02,
5427,-0.265,0.005,
5428,-0.21,0.05,
5429,-0.125,0.065,
5430,0.025,0.05,
5431,0.23,-0.02,
5432,0.435,-0.125,
5433,0.665,-0.275,
5434,0.875,-0.465,
5435,1.045,-0.71,
5436,1.225,-0.99,
5437,1.36,-1.325,
5438,1.47,-1.645,
5439,1.52,-1.92,N
5440,1.515,-2.1,
5441,1.445,-2.155,
5442,1.29,-2.11,
5443,1.04,-1.985,
5444,0.715,-1.78,
5445,0.375,-1.55,
5446,0.045,-1.29,
5447,-0.155,-1.045,
5448,-0.295,-0.82,
5449,-0.34,-0.67,
5450,-0.345,-0.565,
5451,-0.33,-0.485,
5452,-0.33,-0.41,
5453,-0.345,-0.36,
5454,-0.385,-0.3,
5455,-0.435,-0.23,
5456,-0.47,-0.18,
5457,-0.49,-0.12,
5458,-0.495,-0.1,
5459,-0.49,-0.075,
5460,-0.48,-0.075,
5461,-0.485,-0.065,
5462,-0.485,-0.055,
5463,-0.49,-0.045,
5464,-0.495,-0.045,
5465,-0.5,-0.03,
5466,-0.495,-0.035,
5467,-0.5,-0.04,
5468,-0.505,-0.025,
5469,-0.495,-0.035,
5470,-0.5,-0.005,
5471,-0.495,0.025,
5472,-0.495,0.04,
5473,-0.495,0.045,
5474,-0.5,0.055,
5475,-0.505,0.05,
5476,-0.51,0.04,
5477,-0.525,0.04,
5478,-0.535,0.03,
5479,-0.54,0.035,
5480,-0.54,0.035,
5481,-0.54,0.05,
5482,-0.54,0.065,
5483,-0.535,0.09,
5484,-0.525,0.09,
5485,-0.52,0.1,
5486,-0.515,0.1,
5487,-0.53,0.1,
5488,-0.53,0.105,
5489,-0.55,0.105,
5490,-0.555,0.095,
5491,-0.565,0.115,
5492,-0.57,0.135,
5493,-0.57,0.145,
5494,-0.58,0.16,
5495,-0.585,0.175,
5496,-0.585,0.18,
5497,-0.595,0.205,
5498,-0.6,0.2,
5499,-0.625,0.21,
5500,-0.635,0.21,
5501,-0.66,0.21,
5502,-0.68,0.22,
5503,-0.7,0.23,
5504,-0.71,0.245,
5505,-0.715,0.245,
5506,-0.72,0.26,
5507,-0.725,0.27,
5508,-0.73,0.275,
5509,-0.725,0.295,
5510,-0.73,0.305,
5511,-0.735,0.325,
5512,-0.74,0.325,
5513,-0.75,0.33,
5514,-0.755,0.335,
5515,-0.75,0.34,
5516,-0.72,0.35,
5517,-0.69,0.35,
5518,-0.645,0.36,
5519,-0.595,0.39,
5520,-0.54,0.405,
5521,-0.495,0.405,
5522,-0.46,0.415,
5523,-0.425,0.405,
5524,-0.395,0.415,
5525,-0.365,0.41,
5526,-0.315,0.39,
5527,-0.295,0.385,
5528,-0.27,0.395,
5529,-0.235,0.41,
5530,-0.21,0.405,
5531,-0.195,0.405,
5532,-0.185,0.395,
5533,-0.175,0.365,
5534,-0.185,0.295,
5535,-0.22,0.25,
5536,-0.245,0.185,
5537,-0.285,0.125,
5538,-0.305,0.085,
5539,-0.32,0.06,
5540,-0.335,0.035,
5541,-0.345,0.015,
5542,-0.355,-0.01,
5543,-0.36,-0.025,
5544,-0.375,-0.04,
5545,-0.385,-0.04,
5546,-0.39,-0.055,
5547,-0.4,-0.055,
5548,-0.415,-0.06,
5549,-0.425,-0.055,
5550,-0.43,-0.07,
5551,-0.415,-0.065,
5552,-0.42,-0.08,
5553,-0.42,-0.09,
5554,-0.425,-0.095,
5555,-0.415,-0.09,
5556,-0.41,-0.09,
5557,-0.41,-0.085,
5558,-0.42,-0.09,
5559,-0.405,-0.09,
5560,-0.405,-0.105,
5561,-0.405,-0.115,
5562,-0.405,-0.12,
5563,-0.41,-0.125,
5564,-0.415,-0.14,
5565,-0.41,-0.12,
5566,-0.415,-0.105,
5567,-0.405,-0.09,
5568,-0.39,-0.08,
5569,-0.36,-0.05,
5570,-0.325,-0.01,
5571,-0.265,0.025,
5572,-0.16,0.05,
5573,-0.02,0.025,
5574,0.16,-0.035,
5575,0.355,-0.14,
5576,0.525,-0.295,
5577,0.68,-0.49,
5578,0.81,-0.73,
5579,0.925,-1.02,
5580,1.045,-1.32,
5581,1.15,-1.615,
5582,1.225,-1.835,A
5583,1.28,-1.955,
5584,1.31,-1.98,
5585,1.295,-1.925,
5586,1.19,-1.82,
5587,1.0,-1.665,
5588,0.675,-1.495,
5589,0.32,-1.305,
5590,-0.025,-1.09,
5591,-0.285,-0.89,
5592,-0.435,-0.735,
5593,-0.46,-0.62,
5594,-0.455,-0.53,
5595,-0.415,-0.465,
5596,-0.39,-0.41,
5597,-0.38,-0.345,
5598,-0.395,-0.29,
5599,-0.44,-0.23,
5600,-0.49,-0.175,
5601,-0.52,-0.125,
5602,-0.53,-0.09,
5603,-0.525,-0.075,
5604,-0.525,-0.06,
5605,-0.515,-0.06,
5606,-0.505,-0.06,
5607,-0.515,-0.05,
5608,-0.515,-0.05,
5609,-0.525,-0.03,
5610,-0.525,-0.035,
5611,-0.535,-0.025,
5612,-0.525,-0.015,
5613,-0.535,-0.005,
5614,-0.53,0.0,
5615,-0.54,0.01,
5616,-0.535,0.035,
5617,-0.53,0.055,
5618,-0.53,0.05,
5619,-0.525,0.055,
5620,-0.54,0.05,
5621,-0.555,0.055,
5622,-0.55,0.05,
5623,-0.565,0.05,
5624,-0.58,0.065,
5625,-0.565,0.075,
5626,-0.575,0.105,
5627,-0.575,0.115,
5628,-0.565,0.12,
5629,-0.57,0.12,
5630,-0.565,0.11,
5631,-0.575,0.12,
5632,-0.575,0.13,
5633,-0.58,0.12,
5634,-0.595,0.125,
5635,-0.61,0.135,
5636,-0.64,0.14,
5637,-0.63,0.165,
5638,-0.635,0.165,
5639,-0.64,0.185,
5640,-0.64,0.205,
5641,-0.63,0.2,
5642,-0.64,0.205,
5643,-0.645,0.2,
5644,-0.665,0.205,
5645,-0.68,0.205,
5646,-0.69,0.21,
5647,-0.71,0.23,
5648,-0.73,0.23,
5649,-0.735,0.24,
5650,-0.745,0.26,
5651,-0.755,0.265,
5652,-0.75,0.265,
5653,-0.745,0.285,
5654,-0.745,0.285,
5655,-0.76,0.275,
5656,-0.75,0.295,
5657,-0.76,0.285,
5658,-0.77,0.3,
5659,-0.775,0.31,
5660,-0.775,0.295,
5661,-0.765,0.3,
5662,-0.76,0.31,
5663,-0.74,0.31,
5664,-0.72,0.31,
5665,-0.695,0.31,
5666,-0.68,0.3,
5667,-0.66,0.29,
5668,-0.625,0.275,
5669,-0.62,0.255,
5670,-0.605,0.235,
5671,-0.585,0.215,
5672,-0.565,0.19,
5673,-0.54,0.175,
5674,-0.525,0.175,
5675,-0.505,0.155,
5676,-0.47,0.145,
5677,-0.44,0.13,
5678,-0.43,0.1,
5679,-0.415,0.09,
5680,-0.4,0.055,
5681,-0.39,0.045,
5682,-0.39,0.015,
5683,-0.385,0.02,
5684,-0.385,0.0,
5685,-0.38,0.005,
5686,-0.385,0.0,
5687,-0.365,0.015,
5688,-0.36,0.02,
5689,-0.37,0.025,
5690,-0.36,0.01,
5691,-0.36,0.0,
5692,-0.365,-0.015,
5693,-0.37,-0.02,
5694,-0.37,-0.03,
5695,-0.39,-0.03,
5696,-0.4,-0.025,
5697,-0.39,-0.02,
5698,-0.375,-0.01,
5699,-0.37,-0.015,
5700,-0.375,-0.015,
5701,-0.35,-0.015,
5702,-0.35,-0.025,
5703,-0.37,-0.025,
5704,-0.365,-0.035,
5705,-0.375,-0.04,
5706,-0.375,-0.025,
5707,-0.38,-0.035,
5708,-0.375,-0.03,
5709,-0.385,-0.035,
5710,-0.39,-0.025,
5711,-0.385,-0.01,
5712,-0.38,-0.015,
5713,-0.365,0.0,
5714,-0.36,-0.01,
5715,-0.36,0.0,
5716,-0.365,0.0,
5717,-0.365,-0.02,
5718,-0.365,-0.035,
5719,-0.37,-0.035,
5720,-0.38,-0.05,
5721,-0.37,-0.05,
5722,-0.375,-0.03,
5723,-0.375,-0.025,
5724,-0.37,-0.01,
5725,-0.36,-0.01,
5726,-0.36,-0.015,
5727,-0.37,-0.01,
5728,-0.36,-0.025,
5729,-0.36,-0.045,
5730,-0.37,-0.045,
5731,-0.365,-0.05,
5732,-0.36,-0.055,
5733,-0.36,-0.03,
5734,-0.34,-0.03,
5735,-0.325,-0.02,
5736,-0.31,-0.025,
5737,-0.3,-0.035,
5738,-0.28,-0.03,
5739,-0.24,-0.04,
5740,-0.205,-0.045,
5741,-0.16,-0.065,
5742,-0.13,-0.05,
5743,-0.065,-0.065,
5744,0.0,-0.055,
5745,0.065,-0.045,
5746,0.145,-0.045,
5747,0.245,-0.04,
5748,0.35,-0.05,
5749,0.455,-0.045,
5750,0.56,-0.06,
5751,0.615,-0.085,
5752,0.61,-0.12,
5753,0.52,-0.17,
5754,0.32,-0.23,
5755,0.005,-0.31,
5756,-0.4,-0.37,
5757,-0.855,-0.425,
5758,-1.29,-0.465,
5759,-1.625,-0.495,
5760,-1.89,-0.525,
5761,-2.1,-0.55,
5762,-2.265,-0.58,
5763,-2.43,-0.575,
5764,-2.55,-0.52,
5765,-2.62,-0.42,V
5766,-2.65,-0.285,
5767,-2.645,-0.12,
5768,-2.61,0.05,
5769,-2.54,0.24,
5770,-2.45,0.43,
5771,-2.33,0.6,
5772,-2.22,0.735,
5773,-2.07,0.84,
5774,-1.925,0.905,
5775,-1.8,0.95,
5776,-1.685,0.975,
5777,-1.62,0.99,
5778,-1.58,1.015,
5779,-1.51,1.005,
5780,-1.44,0.99,
5781,-1.335,0.93,
5782,-1.235,0.835,
5783,-1.145,0.685,
5784,-1.085,0.49,
5785,-1.02,0.255,
5786,-0.99,0.02,
5787,-0.95,-0.18,
5788,-0.89,-0.34,
5789,-0.815,-0.41,
5790,-0.715,-0.435,
5791,-0.595,-0.415,
5792,-0.445,-0.37,
5793,-0.295,-0.32,
5794,-0.18,-0.28,
5795,-0.075,-0.26,
5796,-0.01,-0.24,
5797,0.02,-0.21,
5798,0.01,-0.195,
5799,0.01,-0.16,
5800,0.005,-0.14,
5801,-0.005,-0.15,
5802,0.0,-0.145,
5803,0.01,-0.135,
5804,0.02,-0.15,
5805,0.045,-0.15,
5806,0.06,-0.145,
5807,0.075,-0.125,
5808,0.1,-0.135,
5809,0.12,-0.115,
5810,0.14,-0.12,
5811,0.15,-0.115,
5812,0.17,-0.13,
5813,0.175,-0.15,
5814,0.18,-0.15,
5815,0.18,-0.155,
5816,0.2,-0.16,
5817,0.215,-0.15,
5818,0.23,-0.15,
5819,0.24,-0.14,
5820,0.28,-0.135,
5821,0.315,-0.14,
5822,0.335,-0.155,
5823,0.35,-0.155,
5824,0.365,-0.165,
5825,0.385,-0.165,
5826,0.41,-0.175,
5827,0.43,-0.185,
5828,0.45,-0.165,
5829,0.48,-0.17,
5830,0.5,-0.17,
5831,0.55,-0.16,
5832,0.57,-0.165,
5833,0.61,-0.17,
5834,0.635,-0.17,
5835,0.66,-0.18,
5836,0.675,-0.19,
5837,0.69,-0.19,
5838,0.695,-0.22,
5839,0.695,-0.23,
5840,0.7,-0.235,
5841,0.7,-0.245,
5842,0.7,-0.25,
5843,0.71,-0.255,
5844,0.71,-0.24,
5845,0.725,-0.245,
5846,0.7,-0.255,
5847,0.675,-0.27,
5848,0.655,-0.285,
5849,0.63,-0.305,
5850,0.6,-0.31,
5851,0.57,-0.315,
5852,0.535,-0.325,
5853,0.495,-0.305,
5854,0.47,-0.3,
5855,0.445,-0.285,
5856,0.41,-0.265,
5857,0.395,-0.27,
5858,0.36,-0.27,
5859,0.31,-0.27,
5860,0.28,-0.255,
5861,0.22,-0.26,
5862,0.195,-0.255,
5863,0.16,-0.23,
5864,0.13,-0.21,
5865,0.095,-0.19,
5866,0.07,-0.175,
5867,0.04,-0.145,
5868,0.015,-0.12,
5869,-0.01,-0.11,
5870,-0.035,-0.105,
5871,-0.055,-0.085,
5872,-0.08,-0.075,
5873,-0.105,-0.05,
5874,-0.13,-0.05,
5875,-0.15,-0.05,
5876,-0.17,-0.04,
5877,-0.19,-0.025,
5878,-0.185,-0.01,
5879,-0.19,0.0,
5880,-0.195,0.0,
5881,-0.2,0.025,
5882,-0.195,0.01,
5883,-0.2,0.025,
5884,-0.205,0.03,
5885,-0.23,0.015,
5886,-0.22,0.005,
5887,-0.23,-0.005,
5888,-0.23,0.005,
5889,-0.24,0.005,
5890,-0.23,0.02,
5891,-0.225,0.035,
5892,-0.225,0.035,
5893,-0.22,0.025,
5894,-0.22,0.035,
5895,-0.225,0.015,
5896,-0.225,0.0,
5897,-0.23,-0.005,
5898,-0.225,-0.005,
5899,-0.235,-0.005,
5900,-0.245,0.02,
5901,-0.245,0.02,
5902,-0.25,0.025,
5903,-0.24,0.04,
5904,-0.24,0.04,
5905,-0.235,0.02,
5906,-0.23,0.02,
5907,-0.23,0.005,
5908,-0.235,-0.005,
5909,-0.24,0.005,
5910,-0.26,0.01,
5911,-0.255,-0.005,
5912,-0.265,0.0,
5913,-0.27,0.0,
5914,-0.27,-0.005,
5915,-0.27,0.005,
5916,-0.27,0.015,
5917,-0.245,0.0,
5918,-0.26,0.01,
5919,-0.265,0.0,
5920,-0.26,0.005,
5921,-0.285,0.005,
5922,-0.29,0.0,
5923,-0.295,-0.02,
5924,-0.295,-0.025,
5925,-0.305,-0.02,
5926,-0.305,-0.005,
5927,-0.305,-0.015,
5928,-0.305,0.005,
5929,-0.295,0.02,
5930,-0.295,0.015,
5931,-0.3,0.0,
5932,-0.3,-0.01,
5933,-0.31,-0.015,
5934,-0.31,-0.035,
5935,-0.315,-0.045,
5936,-0.315,-0.025,
5937,-0.32,-0.03,
5938,-0.33,-0.02,
5939,-0.315,-0.01,
5940,-0.32,0.0,
5941,-0.325,-0.01,
5942,-0.31,-0.015,
5943,-0.31,-0.015,
5944,-0.295,-0.03,
5945,-0.295,-0.03,
5946,-0.32,-0.05,
5947,-0.32,-0.035,
5948,-0.32,-0.035,
5949,-0.325,-0.035,
5950,-0.325,-0.03,
5951,-0.32,-0.035,
5952,-0.315,-0.025,
5953,-0.32,-0.025,
5954,-0.31,-0.03,
5955,-0.315,-0.03,
5956,-0.31,-0.035,
5957,-0.315,-0.04,
5958,-0.315,-0.03,
5959,-0.325,-0.035,
5960,-0.34,-0.04,
5961,-0.32,-0.04,
5962,-0.34,-0.04,
5963,-0.34,-0.04,
5964,-0.315,-0.04,
5965,-0.305,-0.03,
5966,-0.315,-0.03,
5967,-0.32,-0.025,
5968,-0.315,-0.03,
5969,-0.32,-0.03,
5970,-0.325,-0.035,
5971,-0.325,-0.055,
5972,-0.325,-0.045,
5973,-0.31,-0.06,
5974,-0.32,-0.045,
5975,-0.305,-0.03,
5976,-0.295,-0.02,
5977,-0.275,-0.005,
5978,-0.275,-0.02,
5979,-0.25,0.0,
5980,-0.245,0.015,
5981,-0.225,0.025,
5982,-0.225,0.045,
5983,-0.205,0.08,
5984,-0.205,0.1,
5985,-0.18,0.115,
5986,-0.165,0.135,
5987,-0.155,0.135,
5988,-0.145,0.135,
5989,-0.12,0.135,
5990,-0.09,0.105,
5991,-0.08,0.085,
5992,-0.03,0.075,
5993,-0.015,0.03,
5994,0.015,0.0,
5995,0.015,-0.01,
5996,0.005,-0.025,
5997,-0.01,-0.025,
5998,-0.04,-0.04,
5999,-0.06,-0.025,
6000,-0.06,-0.025,
6001,-0.04,-0.04,
6002,-0.035,-0.035,
6003,-0.035,-0.07,
6004,-0.025,-0.1,
6005,-0.05,-0.125,
6006,-0.07,-0.15,
6007,-0.115,-0.16,
6008,-0.15,-0.15,
6009,-0.18,-0.135,
6010,-0.205,-0.105,
6011,-0.215,-0.08,
6012,-0.235,-0.07,
6013,-0.24,-0.06,
6014,-0.25,-0.08,
6015,-0.265,-0.085,
6016,-0.28,-0.08,
6017,-0.3,-0.085,
6018,-0.325,-0.08,
6019,-0.34,-0.09,
6020,-0.345,-0.095,
6021,-0.355,-0.1,
6022,-0.355,-0.095,
6023,-0.345,-0.085,
6024,-0.33,-0.085,
6025,-0.32,-0.075,
6026,-0.315,-0.07,
6027,-0.31,-0.08,
6028,-0.31,-0.08,
6029,-0.315,-0.075,
6030,-0.315,-0.05,
6031,-0.305,-0.03,
6032,-0.29,0.025,
6033,-0.215,0.075,
6034,-0.1,0.1,
6035,0.06,0.07,
6036,0.27,-0.01,
6037,0.485,-0.145,
6038,0.69,-0.36,
6039,0.88,-0.615,
6040,1.055,-0.95,
6041,1.21,-1.32,
6042,1.34,-1.715,
6043,1.435,-2.025,
6044,1.475,-2.25,N
6045,1.47,-2.34,
6046,1.395,-2.31,
6047,1.26,-2.195,
6048,1.025,-2.025,
6049,0.73,-1.805,
6050,0.395,-1.55,
6051,0.11,-1.28,
6052,-0.09,-1.02,
6053,-0.235,-0.83,
6054,-0.3,-0.67,
6055,-0.325,-0.585,
6056,-0.34,-0.505,
6057,-0.345,-0.425,
6058,-0.375,-0.35,
6059,-0.41,-0.265,
6060,-0.43,-0.185,
6061,-0.46,-0.125,
6062,-0.485,-0.085,
6063,-0.495,-0.065,
6064,-0.49,-0.055,
6065,-0.5,-0.06,
6066,-0.5,-0.06,
6067,-0.515,-0.05,
6068,-0.52,-0.03,
6069,-0.525,-0.015,
6070,-0.53,0.0,
6071,-0.515,0.01,
6072,-0.53,0.035,
6073,-0.52,0.04,
6074,-0.525,0.035,
6075,-0.52,0.04,
6076,-0.535,0.045,
6077,-0.535,0.04,
6078,-0.54,0.03,
6079,-0.555,0.04,
6080,-0.57,0.045,
6081,-0.565,0.065,
6082,-0.56,0.08,
6083,-0.55,0.1,
6084,-0.545,0.11,
6085,-0.545,0.115,
6086,-0.54,0.12,
6087,-0.55,0.125,
6088,-0.56,0.13,
6089,-0.565,0.125,
6090,-0.58,0.13,
6091,-0.58,0.13,
6092,-0.585,0.145,
6093,-0.58,0.165,
6094,-0.585,0.17,
6095,-0.59,0.18,
6096,-0.605,0.19,
6097,-0.61,0.21,
6098,-0.61,0.215,
6099,-0.62,0.24,
6100,-0.63,0.245,
6101,-0.66,0.235,
6102,-0.68,0.245,
6103,-0.705,0.24,
6104,-0.725,0.245,
6105,-0.735,0.255,
6106,-0.745,0.285,
6107,-0.755,0.3,
6108,-0.77,0.335,
6109,-0.78,0.325,
6110,-0.79,0.34,
6111,-0.825,0.345,
6112,-0.84,0.34,
6113,-0.845,0.335,
6114,-0.86,0.34,
6115,-0.88,0.34,
6116,-0.9,0.345,
6117,-0.915,0.365,
6118,-0.93,0.375,
6119,-0.925,0.385,
6120,-0.915,0.395,
6121,-0.91,0.39,
6122,-0.895,0.38,
6123,-0.9,0.375,
6124,-0.91,0.375,
6125,-0.89,0.37,
6126,-0.89,0.355,
6127,-0.88,0.335,
6128,-0.86,0.34,
6129,-0.845,0.33,
6130,-0.82,0.32,
6131,-0.785,0.295,
6132,-0.75,0.285,
6133,-0.71,0.265,
6134,-0.68,0.25,
6135,-0.645,0.225,
6136,-0.605,0.21,
6137,-0.575,0.175,
6138,-0.545,0.135,
6139,-0.52,0.12,
6140,-0.5,0.09,
6141,-0.47,0.065,
6142,-0.445,0.06,
6143,-0.415,0.055,
6144,-0.39,0.055,
6145,-0.355,0.04,
6146,-0.335,0.03,
6147,-0.335,0.02,
6148,-0.315,0.01,
6149,-0.305,-0.01,
6150,-0.3,-0.04,
6151,-0.31,-0.03,
6152,-0.32,-0.045,
6153,-0.32,-0.035,
6154,-0.32,-0.04,
6155,-0.31,-0.035,
6156,-0.295,-0.025,
6157,-0.29,-0.025,
6158,-0.28,-0.045,
6159,-0.285,-0.035,
6160,-0.295,-0.05,
6161,-0.295,-0.06,
6162,-0.275,-0.045,
6163,-0.285,-0.04,
6164,-0.295,-0.04,
6165,-0.285,-0.04,
6166,-0.285,-0.03,
6167,-0.29,-0.025,
6168,-0.27,-0.035,
6169,-0.265,-0.015,
6170,-0.265,-0.02,
6171,-0.26,-0.025,
6172,-0.27,-0.03,
6173,-0.275,-0.03,
6174,-0.275,-0.025,
6175,-0.285,-0.03,
6176,-0.285,-0.035,
6177,-0.305,-0.03,
6178,-0.29,-0.035,
6179,-0.285,-0.03,
6180,-0.28,-0.01,
6181,-0.27,0.0,
6182,-0.27,-0.005,
6183,-0.275,0.0,
6184,-0.265,0.0,
6185,-0.255,0.0,
6186,-0.24,0.015,
6187,-0.24,0.015,
6188,-0.215,0.04,
6189,-0.205,0.07,
6190,-0.185,0.1,
6191,-0.16,0.14,
6192,-0.14,0.16,
6193,-0.115,0.165,
6194,-0.11,0.16,
6195,-0.11,0.155,
6196,-0.105,0.14,
6197,-0.085,0.13,
6198,-0.065,0.12,
6199,-0.045,0.085,
6200,-0.015,0.065,
6201,0.005,0.03,
6202,0.025,0.0,
6203,0.035,-0.005,
6204,0.025,-0.025,
6205,-0.01,-0.035,
6206,-0.01,-0.045,
6207,-0.01,-0.035,
6208,-0.025,-0.045,
6209,-0.025,-0.065,
6210,-0.02,-0.08,
6211,-0.01,-0.095,
6212,-0.035,-0.12,
6213,-0.06,-0.125,
6214,-0.075,-0.145,
6215,-0.1,-0.14,
6216,-0.125,-0.12,
6217,-0.155,-0.1,
6218,-0.175,-0.07,
6219,-0.195,-0.065,
6220,-0.215,-0.065,
6221,-0.23,-0.055,
6222,-0.26,-0.075,
6223,-0.27,-0.08,
6224,-0.295,-0.095,
6225,-0.305,-0.095,
6226,-0.31,-0.09,
6227,-0.325,-0.085,
6228,-0.315,-0.085,
6229,-0.3,-0.075,
6230,-0.3,-0.07,
6231,-0.295,-0.065,
6232,-0.3,-0.085,
6233,-0.29,-0.085,
6234,-0.295,-0.105,
6235,-0.295,-0.105,
6236,-0.305,-0.1,
6237,-0.3,-0.1,
6238,-0.3,-0.07,
6239,-0.29,-0.025,
6240,-0.265,0.03,
6241,-0.21,0.095,
6242,-0.135,0.12,
6243,-0.02,0.125,
6244,0.14,0.055,
6245,0.32,-0.045,
6246,0.515,-0.19,
6247,0.69,-0.395,
6248,0.85,-0.62,
6249,1.01,-0.93,
6250,1.155,-1.285,
6251,1.29,-1.655,
6252,1.405,-2.005,
6253,1.455,-2.27,N
6254,1.46,-2.405,
6255,1.4,-2.4,
6256,1.305,-2.325,
6257,1.135,-2.17,
6258,0.9,-2.0,
6259,0.61,-1.77,
6260,0.31,-1.52,
6261,0.07,-1.245,
6262,-0.11,-0.995,
6263,-0.225,-0.8,
6264,-0.285,-0.64,
6265,-0.29,-0.54,
6266,-0.285,-0.48,
6267,-0.295,-0.395,
6268,-0.315,-0.335,
6269,-0.36,-0.255,
6270,-0.395,-0.195,
6271,-0.425,-0.145,
6272,-0.46,-0.085,
6273,-0.455,-0.07,
6274,-0.455,-0.045,
6275,-0.44,-0.03,
6276,-0.435,-0.015,
6277,-0.43,-0.01,
6278,-0.425,0.0,
6279,-0.44,0.0,
6280,-0.445,0.01,
6281,-0.46,0.005,
6282,-0.46,0.015,
6283,-0.475,0.015,
6284,-0.47,0.025,
6285,-0.47,0.03,
6286,-0.465,0.06,
6287,-0.465,0.065,
6288,-0.46,0.085,
6289,-0.465,0.1,
6290,-0.46,0.1,
6291,-0.47,0.095,
6292,-0.465,0.095,
6293,-0.47,0.095,
6294,-0.495,0.105,
6295,-0.495,0.1,
6296,-0.49,0.115,
6297,-0.505,0.135,
6298,-0.5,0.145,
6299,-0.485,0.15,
6300,-0.49,0.17,
6301,-0.485,0.17,
6302,-0.485,0.18,
6303,-0.49,0.19,
6304,-0.495,0.2,
6305,-0.51,0.21,
6306,-0.51,0.22,
6307,-0.535,0.225,
6308,-0.535,0.23,
6309,-0.55,0.235,
6310,-0.56,0.26,
6311,-0.555,0.27,
6312,-0.56,0.29,
6313,-0.565,0.305,
6314,-0.575,0.33,
6315,-0.595,0.34,
6316,-0.615,0.345,
6317,-0.625,0.335,
6318,-0.635,0.355,
6319,-0.65,0.35,
6320,-0.655,0.37,
6321,-0.675,0.38,
6322,-0.675,0.405,
6323,-0.67,0.42,
6324,-0.675,0.43,
6325,-0.665,0.445,
6326,-0.675,0.455,
6327,-0.675,0.455,
6328,-0.68,0.445,
6329,-0.685,0.45,
6330,-0.68,0.445,
6331,-0.68,0.43,
6332,-0.67,0.43,
6333,-0.655,0.435,
6334,-0.65,0.44,
6335,-0.63,0.435,
6336,-0.61,0.43,
6337,-0.585,0.415,
6338,-0.56,0.39,
6339,-0.535,0.375,
6340,-0.505,0.34,
6341,-0.49,0.31,
6342,-0.49,0.275,
6343,-0.475,0.265,
6344,-0.455,0.24,
6345,-0.43,0.225,
6346,-0.415,0.205,
6347,-0.39,0.175,
6348,-0.375,0.155,
6349,-0.33,0.125,
6350,-0.32,0.11,
6351,-0.315,0.095,
6352,-0.32,0.07,
6353,-0.305,0.07,
6354,-0.305,0.035,
6355,-0.32,0.02,
6356,-0.32,0.01,
6357,-0.305,-0.005,
6358,-0.305,-0.005,
6359,-0.285,-0.005,
6360,-0.285,0.0,
6361,-0.265,-0.01,
6362,-0.27,-0.015,
6363,-0.28,-0.005,
6364,-0.275,-0.015,
6365,-0.285,-0.03,
6366,-0.29,-0.02,
6367,-0.295,-0.035,
6368,-0.29,-0.04,
6369,-0.3,-0.045,
6370,-0.3,-0.04,
6371,-0.29,-0.02,
6372,-0.29,-0.035,
6373,-0.285,-0.025,
6374,-0.285,-0.015,
6375,-0.285,-0.025,
6376,-0.275,-0.03,
6377,-0.285,-0.04,
6378,-0.3,-0.04,
6379,-0.295,-0.05,
6380,-0.31,-0.045,
6381,-0.305,-0.045,
6382,-0.295,-0.035,
6383,-0.295,-0.04,
6384,-0.295,-0.025,
6385,-0.29,-0.02,
6386,-0.295,-0.035,
6387,-0.3,-0.045,
6388,-0.29,-0.035,
6389,-0.295,-0.04,
6390,-0.295,-0.055,
6391,-0.31,-0.04,
6392,-0.315,-0.045,
6393,-0.315,-0.025,
6394,-0.31,-0.03,
6395,-0.3,-0.02,
6396,-0.29,-0.02,
6397,-0.275,-0.02,
6398,-0.26,-0.025,
6399,-0.25,0.0,
6400,-0.23,0.01,
6401,-0.215,0.04,
6402,-0.2,0.065,
6403,-0.185,0.075,
6404,-0.175,0.1,
6405,-0.155,0.12,
6406,-0.15,0.13,
6407,-0.13,0.135,
6408,-0.11,0.135,
6409,-0.08,0.14,
6410,-0.05,0.12,
6411,-0.015,0.105,
6412,0.015,0.06,
6413,0.035,0.035,
6414,0.04,-0.005,
6415,0.03,-0.02,
6416,0.01,-0.045,
6417,-0.005,-0.06,
6418,-0.025,-0.07,
6419,-0.03,-0.05,
6420,-0.02,-0.055,
6421,-0.01,-0.06,
6422,-0.005,-0.08,
6423,-0.025,-0.105,
6424,-0.03,-0.14,
6425,-0.06,-0.165,
6426,-0.095,-0.17,
6427,-0.135,-0.185,
6428,-0.165,-0.145,
6429,-0.19,-0.12,
6430,-0.215,-0.09,
6431,-0.215,-0.085,
6432,-0.225,-0.07,
6433,-0.24,-0.07,
6434,-0.25,-0.075,
6435,-0.275,-0.09,
6436,-0.3,-0.08,
6437,-0.29,-0.085,
6438,-0.31,-0.105,
6439,-0.32,-0.105,
6440,-0.32,-0.11,
6441,-0.325,-0.105,
6442,-0.31,-0.105,
6443,-0.3,-0.095,
6444,-0.285,-0.095,
6445,-0.285,-0.09,
6446,-0.285,-0.09,
6447,-0.275,-0.085,
6448,-0.275,-0.085,
6449,-0.28,-0.095,
6450,-0.275,-0.055,
6451,-0.27,-0.04,
6452,-0.245,0.015,
6453,-0.19,0.05,
6454,-0.095,0.08,
6455,0.05,0.08,
6456,0.225,0.02,
6457,0.42,-0.1,
6458,0.625,-0.275,
6459,0.805,-0.505,
6460,0.97,-0.81,
6461,1.12,-1.17,
6462,1.25,-1.56,
6463,1.36,-1.925,
6464,1.42,-2.205,N
6465,1.44,-2.38,
6466,1.41,-2.415,
6467,1.345,-2.345,
6468,1.215,-2.22,
6469,1.03,-2.055,
6470,0.765,-1.86,
6471,0.485,-1.64,
6472,0.225,-1.385,
6473,0.015,-1.13,
6474,-0.13,-0.93,
6475,-0.22,-0.765,
6476,-0.285,-0.645,
6477,-0.285,-0.56,
6478,-0.295,-0.485,
6479,-0.3,-0.415,
6480,-0.32,-0.35,
6481,-0.345,-0.28,
6482,-0.39,-0.205,
6483,-0.42,-0.145,
6484,-0.435,-0.095,
6485,-0.445,-0.08,
6486,-0.45,-0.06,
6487,-0.465,-0.06,
6488,-0.465,-0.06,
6489,-0.45,-0.045,
6490,-0.45,-0.025,
6491,-0.455,-0.015,
6492,-0.45,0.0,
6493,-0.46,0.01,
6494,-0.455,0.02,
6495,-0.46,0.035,
6496,-0.475,0.035,
6497,-0.48,0.04,
6498,-0.475,0.04,
6499,-0.49,0.035,
6500,-0.475,0.035,
6501,-0.485,0.04,
6502,-0.485,0.06,
6503,-0.48,0.06,
6504,-0.48,0.08,
6505,-0.47,0.1,
6506,-0.465,0.11,
6507,-0.475,0.115,
6508,-0.48,0.135,
6509,-0.495,0.12,
6510,-0.51,0.115,
6511,-0.515,0.125,
6512,-0.51,0.135,
6513,-0.51,0.145,
6514,-0.505,0.16,
6515,-0.51,0.17,
6516,-0.495,0.195,
6517,-0.5,0.215,
6518,-0.5,0.22,
6519,-0.52,0.215,
6520,-0.53,0.21,
6521,-0.535,0.205,
6522,-0.55,0.205,
6523,-0.57,0.235,
6524,-0.58,0.25,
6525,-0.59,0.265,
6526,-0.59,0.285,
6527,-0.6,0.305,
6528,-0.605,0.31,
6529,-0.62,0.33,
6530,-0.625,0.325,
6531,-0.64,0.34,
6532,-0.66,0.35,
6533,-0.68,0.37,
6534,-0.695,0.385,
6535,-0.695,0.385,
6536,-0.715,0.395,
6537,-0.72,0.4,
6538,-0.72,0.425,
6539,-0.72,0.41,
6540,-0.73,0.425,
6541,-0.725,0.455,
6542,-0.73,0.445,
6543,-0.735,0.455,
6544,-0.715,0.455,
6545,-0.715,0.45,
6546,-0.72,0.43,
6547,-0.715,0.44,
6548,-0.71,0.42,
6549,-0.69,0.41,
6550,-0.67,0.41,
6551,-0.64,0.4,
6552,-0.62,0.395,
6553,-0.59,0.385,
6554,-0.57,0.365,
6555,-0.55,0.34,
6556,-0.53,0.31,
6557,-0.5,0.28,
6558,-0.48,0.24,
6559,-0.47,0.215,
6560,-0.46,0.185,
6561,-0.415,0.18,
6562,-0.415,0.15,
6563,-0.375,0.13,
6564,-0.35,0.125,
6565,-0.33,0.105,
6566,-0.31,0.08,
6567,-0.31,0.07,
6568,-0.29,0.04,
6569,-0.285,0.02,
6570,-0.295,0.0,
6571,-0.29,-0.015,
6572,-0.295,-0.025,
6573,-0.285,-0.02,
6574,-0.29,-0.02,
6575,-0.28,-0.01,
6576,-0.275,-0.015,
6577,-0.265,-0.025,
6578,-0.26,-0.03,
6579,-0.26,-0.035,
6580,-0.265,-0.05,
6581,-0.27,-0.05,
6582,-0.285,-0.065,
6583,-0.285,-0.065,
6584,-0.295,-0.06,
6585,-0.285,-0.06,
6586,-0.28,-0.045,
6587,-0.275,-0.04,
6588,-0.27,-0.04,
6589,-0.26,-0.035,
6590,-0.255,-0.045,
6591,-0.255,-0.05,
6592,-0.265,-0.05,
6593,-0.27,-0.055,
6594,-0.26,-0.055,
6595,-0.27,-0.06,
6596,-0.275,-0.06,
6597,-0.27,-0.055,
6598,-0.27,-0.05,
6599,-0.265,-0.045,
6600,-0.265,-0.035,
6601,-0.255,-0.045,
6602,-0.26,-0.05,
6603,-0.26,-0.05,
6604,-0.26,-0.045,
6605,-0.26,-0.05,
6606,-0.265,-0.05,
6607,-0.28,-0.07,
6608,-0.285,-0.065,
6609,-0.295,-0.055,
6610,-0.28,-0.05,
6611,-0.265,-0.055,
6612,-0.25,-0.04,
6613,-0.23,-0.015,
6614,-0.225,0.01,
6615,-0.22,0.015,
6616,-0.2,0.04,
6617,-0.185,0.055,
6618,-0.17,0.07,
6619,-0.16,0.085,
6620,-0.14,0.105,
6621,-0.13,0.115,
6622,-0.115,0.125,
6623,-0.1,0.13,
6624,-0.09,0.13,
6625,-0.05,0.115,
6626,-0.025,0.095,
6627,0.015,0.07,
6628,0.05,0.035,
6629,0.07,0.0,
6630,0.05,-0.03,
6631,0.025,-0.055,
6632,0.005,-0.065,
6633,-0.02,-0.045,
6634,-0.03,-0.045,
6635,-0.015,-0.06,
6636,-0.01,-0.055,
6637,0.01,-0.07,
6638,0.01,-0.105,
6639,-0.015,-0.14,
6640,-0.03,-0.165,
6641,-0.065,-0.18,
6642,-0.1,-0.18,
6643,-0.125,-0.175,
6644,-0.165,-0.15,
6645,-0.185,-0.13,
6646,-0.2,-0.105,
6647,-0.21,-0.095,
6648,-0.215,-0.085,
6649,-0.225,-0.09,
6650,-0.255,-0.095,
6651,-0.27,-0.095,
6652,-0.275,-0.095,
6653,-0.29,-0.105,
6654,-0.305,-0.115,
6655,-0.31,-0.125,
6656,-0.32,-0.12,
6657,-0.305,-0.125,
6658,-0.3,-0.115,
6659,-0.3,-0.115,
6660,-0.29,-0.115,
6661,-0.27,-0.09,
6662,-0.275,-0.095,
6663,-0.275,-0.1,
6664,-0.28,-0.11,
6665,-0.295,-0.1,
6666,-0.27,-0.08,
6667,-0.265,-0.045,
6668,-0.235,0.0,
6669,-0.155,0.06,
6670,-0.05,0.085,
6671,0.11,0.06,
6672,0.3,-0.01,
6673,0.505,-0.15,
6674,0.695,-0.34,
6675,0.85,-0.58,
6676,1.02,-0.885,
6677,1.155,-1.25,
6678,1.29,-1.635,
6679,1.38,-1.985,
6680,1.44,-2.265,N
6681,1.45,-2.425,
6682,1.405,-2.43,
6683,1.335,-2.365,
6684,1.195,-2.25,
6685,0.985,-2.08,
