,MLII,V1,symbol
0,-0.08,0.135,
1,-0.08,0.135,
2,-0.08,0.135,
3,-0.08,0.135,
4,-0.08,0.135,
5,-0.08,0.135,
6,-0.08,0.135,
7,-0.08,0.135,
8,-0.075,0.135,
9,-0.075,0.145,
10,-0.09,0.155,
11,-0.065,0.175,
12,-0.055,0.18,
13,-0.05,0.175,
14,-0.05,0.165,
15,-0.065,0.145,
16,-0.07,0.145,
17,-0.075,0.15,
18,-0.08,0.15,
19,-0.08,0.15,
20,-0.085,0.15,
21,-0.085,0.155,
22,-0.095,0.155,
23,-0.075,0.17,
24,-0.07,0.175,
25,-0.065,0.17,
26,-0.06,0.145,
27,-0.07,0.14,
28,-0.075,0.135,
29,-0.075,0.15,
30,-0.08,0.155,
31,-0.075,0.145,
32,-0.07,0.14,
33,-0.06,0.145,
34,-0.065,0.17,
35,-0.055,0.185,
36,-0.055,0.17,
37,-0.05,0.17,
38,-0.05,0.15,
39,-0.05,0.14,
40,-0.06,0.135,
41,-0.065,0.145,
42,-0.065,0.145,
43,-0.08,0.145,
44,-0.065,0.15,
45,-0.065,0.14,
46,-0.06,0.16,
47,-0.055,0.17,
48,-0.055,0.17,
49,-0.05,0.17,
50,-0.05,0.14,
51,-0.065,0.14,
52,-0.065,0.13,+
53,-0.06,0.15,
54,-0.05,0.155,
55,-0.05,0.145,
56,-0.045,0.15,
57,-0.045,0.14,
58,-0.05,0.15,
59,-0.05,0.17,
60,-0.05,0.175,
61,-0.045,0.165,
62,-0.055,0.155,
63,-0.05,0.14,
64,-0.065,0.14,
65,-0.08,0.14,
66,-0.08,0.15,
67,-0.065,0.15,
68,-0.06,0.155,
69,-0.055,0.16,
70,-0.05,0.175,
71,-0.05,0.195,
72,-0.035,0.19,
73,-0.02,0.185,
74,-0.015,0.175,
75,-0.02,0.175,
76,-0.015,0.18,
77,-0.01,0.215,
78,0.005,0.195,
79,0.015,0.195,
80,0.025,0.19,
81,0.035,0.195,
82,0.06,0.205,
83,0.075,0.23,
84,0.09,0.22,
85,0.115,0.2,
86,0.135,0.18,
87,0.13,0.17,
88,0.125,0.155,
89,0.105,0.165,
90,0.095,0.165,
91,0.105,0.16,
92,0.095,0.155,
93,0.1,0.155,
94,0.105,0.175,
95,0.105,0.165,
96,0.085,0.165,
97,0.07,0.135,
98,0.045,0.1,
99,0.01,0.105,
100,-0.02,0.125,
101,-0.05,0.125,
102,-0.07,0.135,
103,-0.09,0.135,
104,-0.095,0.135,
105,-0.08,0.12,
106,-0.08,0.135,
107,-0.075,0.145,
108,-0.085,0.145,
109,-0.09,0.135,
110,-0.095,0.115,
111,-0.11,0.115,
112,-0.12,0.115,
113,-0.125,0.13,
114,-0.135,0.135,
115,-0.135,0.12,
116,-0.14,0.12,
117,-0.125,0.11,
118,-0.125,0.13,
119,-0.115,0.135,
120,-0.13,0.14,
121,-0.12,0.105,
122,-0.125,0.09,
123,-0.14,0.085,
124,-0.155,0.095,
125,-0.135,0.11,
126,-0.07,0.1,
127,0.025,0.085,
128,0.19,0.08,
129,0.395,0.075,
130,0.635,0.085,
131,0.9,0.12,
132,1.18,0.185,
133,1.415,0.26,
134,1.595,0.39,
135,1.66,0.525,N
136,1.575,0.645,
137,1.37,0.73,
138,1.065,0.735,
139,0.72,0.645,
140,0.38,0.495,
141,0.11,0.335,
142,-0.09,0.165,
143,-0.185,0.055,
144,-0.23,-0.02,
145,-0.205,-0.02,
146,-0.165,0.02,
147,-0.12,0.075,
148,-0.11,0.125,
149,-0.125,0.13,
150,-0.14,0.13,
151,-0.155,0.11,
152,-0.17,0.11,
153,-0.185,0.12,
154,-0.19,0.125,
155,-0.18,0.125,
156,-0.175,0.115,
157,-0.155,0.1,
158,-0.18,0.105,
159,-0.18,0.105,
160,-0.18,0.1,
161,-0.19,0.085,
162,-0.205,0.07,
163,-0.22,0.08,
164,-0.215,0.105,
165,-0.19,0.115,
166,-0.17,0.115,
167,-0.155,0.095,
168,-0.15,0.09,
169,-0.15,0.105,
170,-0.17,0.095,
171,-0.175,0.075,
172,-0.165,0.07,
173,-0.175,0.08,
174,-0.19,0.085,
175,-0.19,0.1,
176,-0.185,0.09,
177,-0.155,0.08,
178,-0.14,0.09,
179,-0.13,0.08,
180,-0.13,0.09,
181,-0.135,0.085,
182,-0.135,0.06,
183,-0.14,0.04,
184,-0.14,0.03,
185,-0.15,0.03,
186,-0.155,0.045,
187,-0.145,0.04,
188,-0.15,0.04,
189,-0.145,0.03,
190,-0.12,0.03,
191,-0.105,0.045,
192,-0.095,0.04,
193,-0.085,0.025,
194,-0.08,0.02,
195,-0.08,0.0,
196,-0.08,0.0,
197,-0.085,0.0,
198,-0.08,0.0,
199,-0.095,0.0,
200,-0.075,-0.01,
201,-0.07,-0.025,
202,-0.065,-0.005,
203,-0.045,0.0,
204,-0.025,-0.01,
205,-0.025,-0.01,
206,-0.02,-0.025,
207,-0.02,-0.035,
208,-0.03,-0.03,
209,-0.035,-0.04,
210,-0.03,-0.035,
211,-0.035,-0.045,
212,-0.035,-0.045,
213,-0.035,-0.04,
214,-0.035,-0.02,
215,-0.03,-0.01,
216,-0.025,-0.025,
217,-0.01,-0.03,
218,-0.01,-0.03,
219,-0.02,-0.02,
220,-0.035,-0.01,
221,-0.03,0.0,
222,-0.025,-0.005,
223,-0.01,0.0,
224,0.0,0.005,
225,0.02,0.04,
226,0.04,0.07,
227,0.065,0.085,
228,0.065,0.095,
229,0.06,0.095,
230,0.055,0.11,
231,0.075,0.12,
232,0.07,0.135,
233,0.06,0.13,
234,0.055,0.125,
235,0.045,0.11,
236,0.035,0.115,
237,0.045,0.135,
238,0.04,0.155,
239,0.045,0.15,
240,0.04,0.145,
241,0.045,0.125,
242,0.045,0.135,
243,0.03,0.15,
244,0.02,0.155,
245,0.03,0.16,
246,0.02,0.16,
247,0.025,0.14,
248,0.03,0.155,
249,0.03,0.155,
250,0.035,0.175,
251,0.035,0.18,
252,0.03,0.16,
253,0.03,0.145,
254,0.035,0.135,
255,0.035,0.14,
256,0.03,0.15,
257,0.03,0.14,
258,0.03,0.14,
259,0.025,0.13,
260,0.03,0.135,
261,0.03,0.165,
262,0.035,0.165,
263,0.04,0.175,
264,0.04,0.165,
265,0.045,0.16,
266,0.045,0.13,
267,0.03,0.125,
268,0.03,0.14,
269,0.015,0.13,
270,0.045,0.13,
271,0.045,0.135,
272,0.055,0.135,
273,0.045,0.145,
274,0.055,0.17,
275,0.06,0.175,
276,0.055,0.165,
277,0.055,0.15,
278,0.06,0.13,
279,0.045,0.11,
280,0.05,0.135,
281,0.035,0.14,
282,0.04,0.14,
283,0.05,0.13,
284,0.055,0.12,
285,0.06,0.135,
286,0.07,0.15,
287,0.08,0.175,
288,0.07,0.18,
289,0.07,0.165,
290,0.045,0.135,
291,0.045,0.125,
292,0.035,0.135,
293,0.035,0.13,
294,0.035,0.145,
295,0.045,0.13,
296,0.05,0.13,
297,0.045,0.13,
298,0.055,0.15,
299,0.06,0.165,
300,0.065,0.165,
301,0.055,0.155,
302,0.07,0.135,
303,0.065,0.135,
304,0.055,0.155,
305,0.055,0.17,
306,0.06,0.19,
307,0.08,0.175,
308,0.1,0.19,
309,0.11,0.195,
310,0.13,0.21,
311,0.13,0.23,
312,0.14,0.22,
313,0.17,0.205,
314,0.18,0.185,
315,0.195,0.175,
316,0.195,0.17,
317,0.205,0.185,
318,0.215,0.165,
319,0.21,0.165,
320,0.21,0.15,
321,0.21,0.155,
322,0.215,0.175,
323,0.215,0.175,
324,0.22,0.18,
325,0.22,0.155,
326,0.205,0.12,
327,0.18,0.095,
328,0.15,0.085,
329,0.125,0.1,
330,0.09,0.115,
331,0.07,0.115,
332,0.065,0.115,
333,0.045,0.14,
334,0.04,0.155,
335,0.04,0.155,
336,0.04,0.155,
337,0.02,0.13,
338,0.015,0.11,
339,0.01,0.09,
340,0.01,0.08,
341,-0.01,0.1,
342,-0.005,0.115,
343,-0.01,0.105,
344,-0.02,0.1,
345,-0.02,0.11,
346,-0.02,0.11,
347,-0.01,0.12,
348,-0.015,0.125,
349,-0.01,0.115,
350,-0.01,0.105,
351,-0.02,0.08,
352,-0.04,0.075,
353,-0.035,0.07,
354,-0.06,0.085,
355,-0.065,0.075,
356,-0.04,0.085,
357,0.02,0.095,
358,0.115,0.11,
359,0.24,0.105,
360,0.395,0.095,
361,0.6,0.075,
362,0.855,0.055,
363,1.11,0.06,
364,1.37,0.125,
365,1.59,0.215,
366,1.735,0.35,N
367,1.77,0.475,
368,1.64,0.585,
369,1.41,0.63,
370,1.09,0.61,
371,0.74,0.535,
372,0.425,0.38,
373,0.175,0.215,
374,-0.01,0.06,
375,-0.095,-0.045,
376,-0.11,-0.055,
377,-0.1,-0.035,
378,-0.06,0.035,
379,-0.025,0.08,
380,-0.01,0.105,
381,-0.035,0.105,
382,-0.055,0.11,
383,-0.075,0.115,
384,-0.11,0.1,
385,-0.12,0.09,
386,-0.125,0.075,
387,-0.12,0.06,
388,-0.12,0.07,
389,-0.12,0.085,
390,-0.14,0.1,
391,-0.125,0.09,
392,-0.125,0.075,
393,-0.125,0.075,
394,-0.12,0.09,
395,-0.12,0.105,
396,-0.115,0.115,
397,-0.115,0.1,
398,-0.11,0.075,
399,-0.135,0.07,
400,-0.135,0.06,
401,-0.145,0.07,
402,-0.14,0.065,
403,-0.13,0.055,
404,-0.12,0.07,
405,-0.12,0.07,
406,-0.12,0.085,
407,-0.11,0.08,
408,-0.105,0.075,
409,-0.105,0.055,
410,-0.115,0.045,
411,-0.115,0.045,
412,-0.125,0.05,
413,-0.125,0.065,
414,-0.115,0.06,
415,-0.11,0.06,
416,-0.1,0.05,
417,-0.095,0.06,
418,-0.085,0.08,
419,-0.075,0.07,
420,-0.07,0.055,
421,-0.065,0.035,
422,-0.08,0.03,
423,-0.095,0.015,
424,-0.095,0.035,
425,-0.095,0.035,
426,-0.09,0.015,
427,-0.08,0.0,
428,-0.08,0.01,
429,-0.06,0.015,
430,-0.06,0.015,
431,-0.03,0.01,
432,-0.03,0.0,
433,-0.025,-0.02,
434,-0.035,-0.015,
435,-0.035,-0.005,
436,-0.055,-0.01,
437,-0.045,-0.03,
438,-0.05,-0.06,
439,-0.04,-0.06,
440,-0.03,-0.04,
441,-0.02,-0.025,
442,0.0,-0.02,
443,0.01,-0.025,
444,0.005,-0.05,
445,0.005,-0.055,
446,-0.015,-0.05,
447,-0.025,-0.05,
448,-0.025,-0.06,
449,-0.035,-0.07,
450,-0.025,-0.075,
451,-0.02,-0.065,
452,-0.03,-0.05,
453,-0.02,-0.02,
454,0.0,-0.015,
455,0.01,-0.01,
456,0.005,-0.015,
457,0.0,-0.01,
458,0.005,0.005,
459,-0.005,0.02,
460,0.0,0.02,
461,0.0,0.02,
462,0.015,0.02,
463,0.015,0.05,
464,0.02,0.08,
465,0.04,0.11,
466,0.06,0.13,
467,0.07,0.12,
468,0.07,0.115,
469,0.07,0.11,
470,0.05,0.11,
471,0.035,0.12,
472,0.025,0.115,
473,0.02,0.1,
474,0.03,0.11,
475,0.015,0.105,
476,0.015,0.115,
477,0.02,0.14,
478,0.03,0.16,
479,0.035,0.16,
480,0.035,0.15,
481,0.04,0.14,
482,0.045,0.125,
483,0.025,0.135,
484,0.025,0.14,
485,0.015,0.135,
486,0.01,0.115,
487,0.0,0.095,
488,-0.005,0.105,
489,-0.005,0.13,
490,-0.005,0.145,
491,0.005,0.155,
492,0.02,0.135,
493,0.03,0.12,
494,0.045,0.12,
495,0.03,0.13,
496,0.03,0.12,
497,0.01,0.12,
498,-0.005,0.11,
499,-0.005,0.105,
500,0.005,0.115,
501,0.005,0.13,
502,0.01,0.15,
503,0.02,0.155,
504,0.03,0.135,
505,0.025,0.13,
506,0.025,0.115,
507,0.025,0.12,
508,0.025,0.135,
509,0.005,0.125,
510,0.025,0.115,
511,0.02,0.1,
512,0.025,0.105,
513,0.025,0.105,
514,0.03,0.14,
515,0.04,0.155,
516,0.02,0.145,
517,0.03,0.135,
518,0.03,0.12,
519,0.035,0.115,
520,0.035,0.125,
521,0.035,0.145,
522,0.04,0.13,
523,0.04,0.125,
524,0.035,0.125,
525,0.04,0.14,
526,0.035,0.155,
527,0.035,0.15,
528,0.03,0.15,
529,0.03,0.12,
530,0.035,0.11,
531,0.025,0.09,
532,0.02,0.105,
533,0.01,0.115,
534,0.025,0.125,
535,0.015,0.125,
536,0.035,0.125,
537,0.04,0.12,
538,0.025,0.15,
539,0.03,0.16,
540,0.045,0.16,
541,0.055,0.155,
542,0.06,0.15,
543,0.055,0.16,
544,0.05,0.17,
545,0.06,0.17,
546,0.07,0.175,
547,0.085,0.175,
548,0.11,0.175,
549,0.12,0.175,
550,0.14,0.185,
551,0.16,0.195,
552,0.165,0.195,
553,0.19,0.185,
554,0.205,0.165,
555,0.205,0.135,
556,0.2,0.12,
557,0.175,0.125,
558,0.155,0.14,
559,0.155,0.15,
560,0.165,0.14,
561,0.18,0.125,
562,0.195,0.13,
563,0.21,0.13,
564,0.19,0.14,
565,0.17,0.14,
566,0.155,0.11,
567,0.115,0.08,
568,0.095,0.075,
569,0.055,0.08,
570,0.035,0.11,
571,0.015,0.135,
572,0.015,0.13,
573,0.005,0.115,
574,-0.005,0.105,
575,0.0,0.09,
576,-0.025,0.09,
577,-0.035,0.105,
578,-0.04,0.105,
579,-0.04,0.1,
580,-0.05,0.07,
581,-0.065,0.055,
582,-0.08,0.085,
583,-0.09,0.1,
584,-0.08,0.105,
585,-0.075,0.115,
586,-0.08,0.095,
587,-0.065,0.105,
588,-0.06,0.1,
589,-0.07,0.12,
590,-0.07,0.105,
591,-0.07,0.08,
592,-0.075,0.065,
593,-0.105,0.04,
594,-0.11,0.04,
595,-0.11,0.06,
596,-0.075,0.095,
597,0.005,0.1,
598,0.115,0.09,
599,0.255,0.05,
600,0.435,0.035,
601,0.655,0.035,
602,0.905,0.045,
603,1.175,0.09,
604,1.44,0.135,
605,1.645,0.23,
606,1.745,0.335,N
607,1.69,0.465,
608,1.52,0.57,
609,1.245,0.6,
610,0.915,0.565,
611,0.575,0.43,
612,0.27,0.265,
613,0.045,0.13,
614,-0.09,0.005,
615,-0.15,-0.06,
616,-0.155,-0.075,
617,-0.12,-0.045,
618,-0.095,0.015,
619,-0.08,0.065,
620,-0.085,0.125,
621,-0.1,0.105,
622,-0.12,0.105,
623,-0.14,0.085,
624,-0.16,0.085,
625,-0.17,0.09,
626,-0.18,0.11,
627,-0.175,0.08,
628,-0.165,0.06,
629,-0.165,0.055,
630,-0.185,0.07,
631,-0.18,0.08,
632,-0.175,0.105,
633,-0.175,0.095,
634,-0.17,0.085,
635,-0.165,0.08,
636,-0.175,0.075,
637,-0.175,0.095,
638,-0.185,0.09,
639,-0.185,0.07,
640,-0.185,0.045,
641,-0.18,0.055,
642,-0.18,0.065,
643,-0.175,0.055,
644,-0.16,0.075,
645,-0.155,0.075,
646,-0.16,0.075,
647,-0.145,0.065,
648,-0.15,0.085,
649,-0.165,0.095,
650,-0.16,0.085,
651,-0.155,0.06,
652,-0.175,0.04,
653,-0.175,0.025,
654,-0.165,0.035,
655,-0.165,0.055,
656,-0.16,0.06,
657,-0.145,0.06,
658,-0.125,0.05,
659,-0.125,0.055,
660,-0.125,0.045,
661,-0.14,0.055,
662,-0.135,0.035,
663,-0.135,0.005,
664,-0.135,-0.005,
665,-0.14,-0.005,
666,-0.14,0.005,
667,-0.125,0.015,
668,-0.11,0.01,
669,-0.115,0.005,
670,-0.1,0.0,
671,-0.095,0.0,
672,-0.095,0.015,
673,-0.1,0.015,
674,-0.09,-0.02,
675,-0.095,-0.04,
676,-0.09,-0.065,
677,-0.095,-0.065,
678,-0.1,-0.055,
679,-0.095,-0.04,
680,-0.08,-0.035,
681,-0.055,-0.04,
682,-0.04,-0.05,
683,-0.03,-0.025,
684,-0.025,-0.02,
685,-0.025,-0.015,
686,-0.035,-0.035,
687,-0.04,-0.05,
688,-0.05,-0.08,
689,-0.055,-0.06,
690,-0.07,-0.05,
691,-0.065,-0.025,
692,-0.05,-0.04,
693,-0.04,-0.045,
694,-0.025,-0.045,
695,-0.025,-0.025,
696,-0.005,-0.02,
697,-0.02,-0.01,
698,-0.01,-0.01,
699,-0.015,-0.01,
700,-0.015,0.015,
701,-0.02,0.03,
702,-0.015,0.05,
703,-0.015,0.06,
704,0.0,0.065,
705,0.015,0.07,
706,0.015,0.11,
707,0.03,0.13,
708,0.03,0.14,
709,0.025,0.135,
710,0.015,0.12,
711,0.005,0.09,
712,-0.005,0.115,
713,-0.02,0.125,
714,-0.03,0.13,
715,-0.03,0.135,
716,-0.02,0.12,
717,-0.025,0.115,
718,-0.015,0.135,
719,-0.02,0.145,
720,-0.015,0.14,
721,-0.015,0.125,
722,-0.02,0.115,
723,-0.035,0.11,
724,-0.045,0.11,
725,-0.045,0.12,
726,-0.06,0.125,
727,-0.065,0.12,
728,-0.06,0.115,
729,-0.06,0.135,
730,-0.045,0.155,
731,-0.03,0.165,
732,-0.02,0.15,
733,-0.01,0.135,
734,-0.015,0.115,
735,-0.03,0.115,
736,-0.035,0.12,
737,-0.05,0.105,
738,-0.05,0.1,
739,-0.055,0.105,
740,-0.045,0.12,
741,-0.04,0.135,
742,-0.03,0.145,
743,-0.02,0.145,
744,-0.015,0.12,
745,-0.015,0.12,
746,-0.015,0.13,
747,-0.02,0.135,
748,-0.035,0.12,
749,-0.04,0.105,
750,-0.045,0.09,
751,-0.045,0.11,
752,-0.035,0.12,
753,-0.03,0.145,
754,-0.02,0.155,
755,-0.005,0.145,
756,0.005,0.145,
757,-0.005,0.135,
758,0.0,0.13,
759,-0.015,0.125,
760,-0.03,0.12,
761,-0.035,0.1,
762,-0.035,0.095,
763,-0.03,0.1,
764,-0.05,0.11,
765,-0.045,0.145,
766,-0.055,0.16,
767,-0.04,0.155,
768,-0.035,0.14,
769,-0.03,0.13,
770,-0.03,0.13,
771,-0.025,0.14,
772,-0.03,0.15,
773,-0.035,0.125,
774,-0.035,0.11,
775,-0.03,0.105,
776,-0.015,0.12,
777,-0.015,0.14,
778,-0.005,0.165,
779,0.02,0.185,
780,0.04,0.16,
781,0.045,0.175,
782,0.05,0.17,
783,0.045,0.18,
784,0.045,0.185,
785,0.05,0.18,
786,0.065,0.175,
787,0.085,0.165,
788,0.095,0.175,
789,0.105,0.175,
790,0.125,0.185,
791,0.13,0.185,
792,0.145,0.16,
793,0.125,0.135,
794,0.11,0.14,
795,0.12,0.13,
796,0.115,0.135,
797,0.12,0.135,
798,0.12,0.12,
799,0.105,0.105,
800,0.09,0.09,
801,0.07,0.11,
802,0.035,0.11,
803,0.025,0.12,
804,0.0,0.115,
805,-0.01,0.12,
806,-0.02,0.105,
807,-0.04,0.125,
808,-0.06,0.13,
809,-0.075,0.125,
810,-0.09,0.115,
811,-0.09,0.1,
812,-0.095,0.095,
813,-0.1,0.1,
814,-0.105,0.1,
815,-0.1,0.13,
816,-0.1,0.115,
817,-0.1,0.105,
818,-0.1,0.085,
819,-0.115,0.07,
820,-0.12,0.07,
821,-0.13,0.095,
822,-0.13,0.1,
823,-0.125,0.09,
824,-0.115,0.09,
825,-0.105,0.095,
826,-0.11,0.105,
827,-0.11,0.12,
828,-0.13,0.115,
829,-0.145,0.09,
830,-0.13,0.075,
831,-0.1,0.07,
832,-0.04,0.085,
833,0.055,0.09,
834,0.18,0.08,
835,0.36,0.055,
836,0.575,0.02,
837,0.835,0.03,
838,1.115,0.08,
839,1.375,0.17,
840,1.585,0.285,
841,1.69,0.395,N
842,1.68,0.49,
843,1.525,0.565,
844,1.255,0.6,
845,0.95,0.57,
846,0.63,0.49,
847,0.32,0.35,
848,0.085,0.19,
849,-0.06,0.05,
850,-0.135,-0.04,
851,-0.155,-0.04,
852,-0.145,-0.01,
853,-0.11,0.035,
854,-0.085,0.065,
855,-0.065,0.07,
856,-0.085,0.065,
857,-0.125,0.075,
858,-0.165,0.085,
859,-0.175,0.095,
860,-0.195,0.1,
861,-0.205,0.1,
862,-0.195,0.075,
863,-0.185,0.075,
864,-0.18,0.09,
865,-0.195,0.095,
866,-0.18,0.095,
867,-0.175,0.075,
868,-0.185,0.05,
869,-0.195,0.04,
870,-0.2,0.035,
871,-0.205,0.07,
872,-0.205,0.09,
873,-0.2,0.09,
874,-0.195,0.08,
875,-0.18,0.085,
876,-0.19,0.08,
877,-0.185,0.085,
878,-0.18,0.09,
879,-0.18,0.075,
880,-0.18,0.045,
881,-0.18,0.02,
882,-0.185,0.025,
883,-0.185,0.04,
884,-0.19,0.06,
885,-0.2,0.07,
886,-0.18,0.07,
887,-0.18,0.06,
888,-0.18,0.05,
889,-0.175,0.06,
890,-0.17,0.06,
891,-0.18,0.05,
892,-0.175,0.04,
893,-0.17,0.01,
894,-0.17,0.015,
895,-0.17,0.03,
896,-0.175,0.045,
897,-0.17,0.035,
898,-0.145,0.035,
899,-0.145,0.025,
900,-0.15,0.005,
901,-0.15,0.02,
902,-0.145,0.01,
903,-0.14,0.015,
904,-0.135,0.0,
905,-0.135,-0.03,
906,-0.125,-0.02,
907,-0.14,-0.025,
908,-0.12,-0.005,
909,-0.115,-0.005,
910,-0.11,-0.025,
911,-0.09,-0.025,
912,-0.085,-0.045,
913,-0.095,-0.035,
914,-0.095,-0.03,
915,-0.1,-0.035,
916,-0.09,-0.055,
917,-0.11,-0.08,
918,-0.09,-0.085,
919,-0.085,-0.075,
920,-0.08,-0.065,
921,-0.07,-0.05,
922,-0.075,-0.06,
923,-0.05,-0.08,
924,-0.055,-0.08,
925,-0.045,-0.08,
926,-0.05,-0.08,
927,-0.07,-0.07,
928,-0.075,-0.075,
929,-0.07,-0.105,
930,-0.08,-0.1,
931,-0.065,-0.09,
932,-0.07,-0.065,
933,-0.065,-0.05,
934,-0.045,-0.05,
935,-0.035,-0.05,
936,-0.04,-0.06,
937,-0.025,-0.045,
938,-0.025,-0.01,
939,-0.02,0.005,
940,-0.025,0.0,
941,-0.04,0.0,
942,-0.045,-0.01,
943,-0.035,0.005,
944,-0.03,0.045,
945,-0.005,0.08,
946,-0.01,0.085,
947,0.01,0.095,
948,0.01,0.09,
949,0.015,0.095,
950,0.02,0.09,
951,0.0,0.105,
952,-0.01,0.1,
953,-0.01,0.075,
954,-0.02,0.07,
955,-0.025,0.085,
956,-0.03,0.095,
957,-0.035,0.125,
958,-0.03,0.135,
959,-0.01,0.12,
960,0.0,0.105,
961,-0.01,0.1,
962,-0.01,0.105,
963,-0.02,0.11,
964,-0.03,0.12,
965,-0.03,0.12,
966,-0.04,0.095,
967,-0.045,0.095,
968,-0.035,0.1,
969,-0.04,0.11,
970,-0.035,0.125,
971,-0.03,0.11,
972,-0.015,0.095,
973,-0.01,0.09,
974,-0.01,0.105,
975,-0.015,0.105,
976,-0.01,0.11,
977,-0.025,0.09,
978,-0.035,0.075,
979,-0.04,0.075,
980,-0.045,0.095,
981,-0.04,0.125,
982,-0.04,0.12,
983,-0.03,0.12,
984,-0.015,0.105,
985,-0.015,0.095,
986,-0.025,0.095,
987,-0.01,0.11,
988,-0.02,0.11,
989,-0.03,0.09,
990,-0.02,0.08,
991,-0.025,0.085,
992,-0.025,0.1,
993,-0.035,0.12,
994,-0.035,0.115,
995,-0.035,0.115,
996,-0.01,0.1,
997,-0.01,0.095,
998,-0.01,0.12,
999,-0.025,0.12,
1000,-0.03,0.1,
1001,-0.025,0.09,
1002,-0.03,0.085,
1003,-0.045,0.115,
1004,-0.025,0.125,
1005,-0.03,0.135,
1006,-0.03,0.135,
1007,-0.02,0.11,
1008,-0.03,0.105,
1009,-0.035,0.09,
1010,-0.045,0.095,
1011,-0.045,0.095,
1012,-0.05,0.09,
1013,-0.065,0.09,
1014,-0.05,0.09,
1015,-0.055,0.12,
1016,-0.025,0.125,
1017,-0.03,0.145,
1018,-0.015,0.13,
1019,0.005,0.13,
1020,0.005,0.15,
1021,0.01,0.165,
1022,0.015,0.17,
1023,0.015,0.175,
1024,0.02,0.155,
1025,0.03,0.145,
1026,0.04,0.165,
1027,0.06,0.175,
1028,0.075,0.18,
1029,0.11,0.175,
1030,0.145,0.15,
1031,0.145,0.13,
1032,0.15,0.125,
1033,0.145,0.125,
1034,0.12,0.125,
1035,0.105,0.105,
1036,0.1,0.09,
1037,0.095,0.095,
1038,0.095,0.1,
1039,0.095,0.105,
1040,0.075,0.125,
1041,0.085,0.11,
1042,0.075,0.1,
1043,0.05,0.085,
1044,0.015,0.085,
1045,0.0,0.1,
1046,-0.025,0.11,
1047,-0.05,0.11,
1048,-0.06,0.09,
1049,-0.07,0.07,
1050,-0.095,0.075,
1051,-0.1,0.07,
1052,-0.105,0.095,
1053,-0.1,0.1,
1054,-0.09,0.085,
1055,-0.085,0.065,
1056,-0.09,0.075,
1057,-0.095,0.08,
1058,-0.105,0.09,
1059,-0.12,0.09,
1060,-0.115,0.075,
1061,-0.125,0.06,
1062,-0.13,0.06,
1063,-0.14,0.085,
1064,-0.135,0.095,
1065,-0.125,0.115,
1066,-0.125,0.1,
1067,-0.125,0.07,
1068,-0.14,0.05,
1069,-0.145,0.025,
1070,-0.16,0.04,
1071,-0.17,0.055,
1072,-0.12,0.07,
1073,-0.06,0.07,
1074,0.03,0.045,
1075,0.145,0.025,
1076,0.31,0.0,
1077,0.52,0.01,
1078,0.775,0.035,
1079,1.05,0.065,
1080,1.315,0.13,
1081,1.525,0.235,
1082,1.645,0.33,N
1083,1.65,0.445,
1084,1.505,0.56,
1085,1.26,0.595,
1086,0.955,0.59,
1087,0.63,0.505,
1088,0.335,0.365,
1089,0.1,0.22,
1090,-0.055,0.09,
1091,-0.14,-0.02,
1092,-0.165,-0.07,
1093,-0.15,-0.085,
1094,-0.12,-0.04,
1095,-0.09,0.01,
1096,-0.085,0.07,
1097,-0.09,0.09,
1098,-0.11,0.095,
1099,-0.155,0.085,
1100,-0.165,0.075,
1101,-0.185,0.075,
1102,-0.195,0.085,
1103,-0.2,0.08,
1104,-0.195,0.065,
1105,-0.19,0.06,
1106,-0.185,0.055,
1107,-0.195,0.075,
1108,-0.2,0.085,
1109,-0.2,0.08,
1110,-0.2,0.075,
1111,-0.195,0.05,
1112,-0.185,0.04,
1113,-0.185,0.055,
1114,-0.185,0.07,
1115,-0.19,0.075,
1116,-0.18,0.07,
1117,-0.175,0.05,
1118,-0.19,0.045,
1119,-0.205,0.035,
1120,-0.205,0.045,
1121,-0.2,0.05,
1122,-0.19,0.05,
1123,-0.185,0.035,
1124,-0.18,0.02,
1125,-0.165,0.035,
1126,-0.155,0.055,
1127,-0.155,0.075,
1128,-0.155,0.06,
1129,-0.145,0.035,
1130,-0.165,0.025,
1131,-0.165,0.015,
1132,-0.17,0.025,
1133,-0.18,0.035,
1134,-0.175,0.045,
1135,-0.17,0.02,
1136,-0.165,0.02,
1137,-0.165,0.015,
1138,-0.15,0.02,
1139,-0.145,0.025,
1140,-0.14,0.025,
1141,-0.125,0.005,
1142,-0.135,-0.015,
1143,-0.13,-0.03,
1144,-0.145,-0.025,
1145,-0.15,-0.005,
1146,-0.145,0.015,
1147,-0.16,0.01,
1148,-0.155,-0.01,
1149,-0.14,-0.03,
1150,-0.13,-0.025,
1151,-0.11,-0.02,
1152,-0.105,-0.005,
1153,-0.105,-0.015,
1154,-0.1,-0.03,
1155,-0.09,-0.05,
1156,-0.095,-0.075,
1157,-0.1,-0.07,
1158,-0.11,-0.055,
1159,-0.11,-0.035,
1160,-0.11,-0.045,
1161,-0.09,-0.04,
1162,-0.075,-0.05,
1163,-0.07,-0.05,
1164,-0.075,-0.04,
1165,-0.07,-0.04,
1166,-0.07,-0.05,
1167,-0.065,-0.065,
1168,-0.07,-0.075,
1169,-0.07,-0.075,
1170,-0.065,-0.06,
1171,-0.07,-0.035,
1172,-0.065,-0.02,
1173,-0.065,-0.015,
1174,-0.06,-0.03,
1175,-0.045,-0.05,
1176,-0.055,-0.045,
1177,-0.06,-0.035,
1178,-0.065,-0.02,
1179,-0.065,-0.035,
1180,-0.07,-0.04,
1181,-0.055,-0.04,
1182,-0.03,-0.03,
1183,-0.015,0.02,
1184,-0.005,0.06,
1185,0.005,0.055,
1186,0.01,0.06,
1187,0.02,0.05,
1188,0.01,0.055,
1189,0.015,0.07,
1190,0.01,0.095,
1191,-0.01,0.105,
1192,-0.02,0.1,
1193,-0.035,0.09,
1194,-0.005,0.095,
1195,-0.005,0.1,
1196,0.0,0.13,
1197,0.005,0.155,
1198,0.01,0.14,
1199,0.01,0.12,
1200,0.0,0.11,
1201,0.0,0.11,
1202,-0.015,0.115,
1203,-0.025,0.12,
1204,-0.025,0.11,
1205,-0.03,0.105,
1206,-0.03,0.09,
1207,-0.03,0.1,
1208,-0.025,0.115,
1209,-0.025,0.145,
1210,-0.01,0.155,
1211,0.005,0.14,
1212,-0.005,0.12,
1213,0.0,0.105,
1214,-0.02,0.09,
1215,-0.03,0.105,
1216,-0.045,0.11,
1217,-0.045,0.1,
1218,-0.055,0.1,
1219,-0.04,0.105,
1220,-0.04,0.11,
1221,-0.025,0.14,
1222,-0.02,0.13,
1223,-0.01,0.135,
1224,0.0,0.11,
1225,0.01,0.095,
1226,-0.005,0.095,
1227,-0.015,0.105,
1228,-0.025,0.115,
1229,-0.02,0.105,
1230,-0.025,0.105,
1231,-0.03,0.08,
1232,-0.025,0.095,
1233,-0.02,0.12,
1234,-0.015,0.145,
1235,0.0,0.15,
1236,0.0,0.135,
1237,0.0,0.125,
1238,-0.005,0.115,
1239,0.0,0.11,
1240,-0.015,0.12,
1241,-0.015,0.13,
1242,-0.025,0.105,
1243,-0.02,0.1,
1244,-0.035,0.085,
1245,-0.03,0.105,
1246,-0.02,0.13,
1247,-0.015,0.135,
1248,-0.005,0.145,
1249,0.0,0.125,
1250,-0.01,0.105,
1251,-0.015,0.095,
1252,-0.02,0.1,
1253,-0.02,0.115,
1254,-0.02,0.12,
1255,-0.03,0.105,
1256,-0.03,0.105,
1257,-0.025,0.115,
1258,-0.02,0.135,
1259,-0.015,0.14,
1260,-0.02,0.145,
1261,-0.02,0.145,
1262,-0.015,0.115,
1263,-0.01,0.105,
1264,-0.02,0.125,
1265,-0.02,0.135,
1266,0.0,0.145,
1267,0.005,0.145,
1268,0.01,0.155,
1269,0.025,0.175,
1270,0.03,0.2,
1271,0.04,0.205,
1272,0.065,0.195,
1273,0.075,0.18,
1274,0.075,0.16,
1275,0.09,0.17,
1276,0.105,0.17,
1277,0.11,0.175,
1278,0.145,0.17,
1279,0.16,0.155,
1280,0.155,0.14,
1281,0.16,0.145,
1282,0.15,0.165,
1283,0.14,0.18,
1284,0.13,0.17,
1285,0.135,0.135,
1286,0.12,0.095,
1287,0.095,0.085,
1288,0.075,0.09,
1289,0.055,0.095,
1290,0.04,0.095,
1291,0.015,0.095,
1292,0.015,0.095,
1293,0.0,0.125,
1294,-0.015,0.145,
1295,-0.02,0.16,
1296,-0.045,0.145,
1297,-0.055,0.12,
1298,-0.075,0.1,
1299,-0.1,0.095,
1300,-0.115,0.105,
1301,-0.12,0.115,
1302,-0.115,0.11,
1303,-0.11,0.1,
1304,-0.09,0.095,
1305,-0.105,0.105,
1306,-0.095,0.12,
1307,-0.095,0.13,
1308,-0.105,0.13,
1309,-0.105,0.12,
1310,-0.11,0.095,
1311,-0.125,0.09,
1312,-0.125,0.095,
1313,-0.155,0.085,
1314,-0.16,0.08,
1315,-0.17,0.055,
1316,-0.155,0.045,
1317,-0.135,0.075,
1318,-0.08,0.105,
1319,0.015,0.11,
1320,0.155,0.09,
1321,0.345,0.065,
1322,0.585,0.03,
1323,0.85,0.05,
1324,1.105,0.12,
1325,1.355,0.22,
1326,1.55,0.325,
1327,1.62,0.46,N
1328,1.55,0.575,
1329,1.33,0.66,
1330,1.005,0.655,
1331,0.64,0.55,
1332,0.305,0.375,
1333,0.03,0.2,
1334,-0.135,0.055,
1335,-0.215,-0.025,
1336,-0.215,-0.04,
1337,-0.195,-0.02,
1338,-0.16,0.02,
1339,-0.12,0.08,
1340,-0.105,0.13,
1341,-0.11,0.145,
1342,-0.135,0.15,
1343,-0.135,0.115,
1344,-0.165,0.11,
1345,-0.175,0.105,
1346,-0.185,0.1,
1347,-0.2,0.105,
1348,-0.21,0.09,
1349,-0.23,0.075,
1350,-0.225,0.065,
1351,-0.225,0.07,
1352,-0.215,0.09,
1353,-0.205,0.105,
1354,-0.195,0.105,
1355,-0.18,0.095,
1356,-0.18,0.085,
1357,-0.185,0.105,
1358,-0.19,0.11,
1359,-0.2,0.11,
1360,-0.2,0.1,
1361,-0.21,0.07,
1362,-0.21,0.075,
1363,-0.22,0.07,
1364,-0.21,0.1,
1365,-0.21,0.12,
1366,-0.185,0.115,
1367,-0.17,0.09,
1368,-0.17,0.075,
1369,-0.175,0.08,
1370,-0.19,0.085,
1371,-0.185,0.075,
1372,-0.2,0.06,
1373,-0.205,0.045,
1374,-0.2,0.055,
1375,-0.19,0.075,
1376,-0.2,0.075,
1377,-0.185,0.09,
1378,-0.175,0.07,
1379,-0.155,0.055,
1380,-0.165,0.045,
1381,-0.15,0.05,
1382,-0.15,0.055,
1383,-0.145,0.04,
1384,-0.16,0.03,
1385,-0.155,0.02,
1386,-0.175,0.025,
1387,-0.18,0.03,
1388,-0.165,0.03,
1389,-0.145,0.025,
1390,-0.145,0.025,
1391,-0.13,-0.005,
1392,-0.115,-0.01,
1393,-0.12,0.0,
1394,-0.11,0.0,
1395,-0.115,-0.005,
1396,-0.12,-0.025,
1397,-0.11,-0.04,
1398,-0.12,-0.035,
1399,-0.12,-0.015,
1400,-0.115,0.0,
1401,-0.115,0.01,
1402,-0.11,0.015,
1403,-0.105,0.0,
1404,-0.095,-0.005,
1405,-0.1,-0.005,
1406,-0.085,-0.02,
1407,-0.085,-0.025,
1408,-0.085,-0.05,
1409,-0.1,-0.055,
1410,-0.115,-0.05,
1411,-0.115,-0.015,
1412,-0.11,0.005,
1413,-0.105,0.01,
1414,-0.095,0.01,
1415,-0.08,0.005,
1416,-0.085,0.005,
1417,-0.08,0.015,
1418,-0.075,0.03,
1419,-0.07,0.025,
1420,-0.06,0.025,
1421,-0.06,0.03,
1422,-0.045,0.05,
1423,-0.04,0.085,
1424,-0.025,0.11,
1425,-0.02,0.125,
1426,-0.03,0.13,
1427,-0.025,0.12,
1428,-0.025,0.13,
1429,-0.025,0.13,
1430,-0.04,0.155,
1431,-0.045,0.14,
1432,-0.04,0.135,
1433,-0.045,0.135,
1434,-0.045,0.12,
1435,-0.05,0.15,
1436,-0.05,0.17,
1437,-0.055,0.175,
1438,-0.04,0.165,
1439,-0.04,0.165,
1440,-0.045,0.155,
1441,-0.05,0.165,
1442,-0.065,0.17,
1443,-0.085,0.185,
1444,-0.09,0.17,
1445,-0.09,0.15,
1446,-0.09,0.13,
1447,-0.085,0.135,
1448,-0.08,0.155,
1449,-0.075,0.165,
1450,-0.065,0.17,
1451,-0.05,0.15,
1452,-0.04,0.15,
1453,-0.045,0.15,
1454,-0.055,0.155,
1455,-0.06,0.175,
1456,-0.085,0.155,
1457,-0.08,0.145,
1458,-0.085,0.13,
1459,-0.08,0.14,
1460,-0.09,0.16,
1461,-0.065,0.16,
1462,-0.075,0.17,
1463,-0.045,0.155,
1464,-0.035,0.145,
1465,-0.05,0.15,
1466,-0.065,0.155,
1467,-0.07,0.165,
1468,-0.075,0.145,
1469,-0.09,0.14,
1470,-0.085,0.13,
1471,-0.095,0.145,
1472,-0.085,0.16,
1473,-0.07,0.19,
1474,-0.065,0.18,
1475,-0.045,0.16,
1476,-0.05,0.145,
1477,-0.045,0.16,
1478,-0.045,0.155,
1479,-0.065,0.145,
1480,-0.075,0.145,
1481,-0.07,0.15,
1482,-0.065,0.145,
1483,-0.075,0.17,
1484,-0.075,0.185,
1485,-0.08,0.18,
1486,-0.06,0.155,
1487,-0.06,0.155,
1488,-0.065,0.16,
1489,-0.06,0.17,
1490,-0.07,0.18,
1491,-0.065,0.17,
1492,-0.075,0.155,
1493,-0.08,0.15,
1494,-0.08,0.15,
1495,-0.085,0.17,
1496,-0.08,0.18,
1497,-0.07,0.175,
1498,-0.07,0.165,
1499,-0.06,0.17,
1500,-0.04,0.185,
1501,-0.025,0.2,
1502,-0.02,0.2,
1503,-0.02,0.205,
1504,0.0,0.21,
1505,0.0,0.2,
1506,0.01,0.22,
1507,0.02,0.235,
1508,0.035,0.25,
1509,0.045,0.24,
1510,0.06,0.235,
1511,0.08,0.215,
1512,0.105,0.21,
1513,0.115,0.205,
1514,0.105,0.195,
1515,0.1,0.17,
1516,0.09,0.16,
1517,0.075,0.16,
1518,0.055,0.17,
1519,0.055,0.185,
1520,0.05,0.165,
1521,0.05,0.155,
1522,0.045,0.155,
1523,0.035,0.145,
1524,0.005,0.16,
1525,-0.015,0.17,
1526,-0.04,0.155,
1527,-0.055,0.145,
1528,-0.07,0.14,
1529,-0.09,0.14,
1530,-0.1,0.15,
1531,-0.11,0.155,
1532,-0.115,0.15,
1533,-0.12,0.145,
1534,-0.13,0.13,
1535,-0.13,0.125,
1536,-0.13,0.145,
1537,-0.14,0.16,
1538,-0.145,0.16,
1539,-0.155,0.145,
1540,-0.15,0.135,
1541,-0.155,0.12,
1542,-0.16,0.135,
1543,-0.16,0.155,
1544,-0.165,0.18,
1545,-0.165,0.175,
1546,-0.16,0.15,
1547,-0.175,0.14,
1548,-0.18,0.135,
1549,-0.195,0.135,
1550,-0.21,0.13,
1551,-0.215,0.11,
1552,-0.2,0.105,
1553,-0.14,0.105,
1554,-0.055,0.11,
1555,0.07,0.11,
1556,0.25,0.1,
1557,0.475,0.075,
1558,0.715,0.08,
1559,0.965,0.095,
1560,1.19,0.19,
1561,1.415,0.31,
1562,1.525,0.445,N
1563,1.53,0.57,
1564,1.39,0.675,
1565,1.14,0.715,
1566,0.825,0.68,
1567,0.49,0.58,
1568,0.21,0.43,
1569,-0.01,0.24,
1570,-0.15,0.085,
1571,-0.225,0.005,
1572,-0.245,-0.02,
1573,-0.215,0.01,
1574,-0.185,0.075,
1575,-0.155,0.115,
1576,-0.15,0.125,
1577,-0.16,0.14,
1578,-0.19,0.135,
1579,-0.2,0.15,
1580,-0.21,0.135,
1581,-0.205,0.135,
1582,-0.215,0.14,
1583,-0.205,0.145,
1584,-0.22,0.135,
1585,-0.225,0.14,
1586,-0.225,0.135,
1587,-0.225,0.105,
1588,-0.24,0.1,
1589,-0.25,0.12,
1590,-0.26,0.125,
1591,-0.24,0.125,
1592,-0.225,0.135,
1593,-0.22,0.11,
1594,-0.195,0.13,
1595,-0.195,0.115,
1596,-0.2,0.13,
1597,-0.21,0.13,
1598,-0.21,0.12,
1599,-0.22,0.1,
1600,-0.24,0.09,
1601,-0.25,0.085,
1602,-0.245,0.1,
1603,-0.23,0.12,
1604,-0.235,0.125,
1605,-0.235,0.12,
1606,-0.22,0.13,
1607,-0.2,0.13,
1608,-0.19,0.135,
1609,-0.19,0.135,
1610,-0.2,0.095,
1611,-0.195,0.085,
1612,-0.21,0.085,
1613,-0.215,0.085,
1614,-0.215,0.09,
1615,-0.22,0.08,
1616,-0.195,0.065,
1617,-0.185,0.06,
1618,-0.17,0.085,
1619,-0.155,0.08,
1620,-0.155,0.075,
1621,-0.145,0.06,
1622,-0.15,0.05,
1623,-0.15,0.045,
1624,-0.16,0.055,
1625,-0.165,0.05,
1626,-0.16,0.05,
1627,-0.16,0.035,
1628,-0.13,0.035,
1629,-0.125,0.055,
1630,-0.12,0.07,
1631,-0.11,0.055,
1632,-0.11,0.045,
1633,-0.1,0.025,
1634,-0.11,0.005,
1635,-0.125,-0.01,
1636,-0.125,0.005,
1637,-0.135,0.01,
1638,-0.12,-0.01,
1639,-0.11,0.0,
1640,-0.11,0.01,
1641,-0.11,0.04,
1642,-0.105,0.035,
1643,-0.105,0.045,
1644,-0.1,0.025,
1645,-0.105,0.005,
1646,-0.115,0.01,
1647,-0.115,0.02,
1648,-0.125,0.03,
1649,-0.11,0.02,
1650,-0.1,0.015,
1651,-0.09,0.025,
1652,-0.095,0.025,
1653,-0.07,0.055,
1654,-0.065,0.1,
1655,-0.045,0.095,
1656,-0.025,0.1,
1657,-0.025,0.095,
1658,-0.015,0.105,
1659,-0.025,0.125,
1660,-0.03,0.135,
1661,-0.045,0.135,
1662,-0.04,0.13,
1663,-0.04,0.145,
1664,-0.05,0.16,
1665,-0.04,0.185,
1666,-0.035,0.215,
1667,-0.02,0.205,
1668,-0.02,0.18,
1669,-0.03,0.17,
1670,-0.04,0.175,
1671,-0.07,0.175,
1672,-0.065,0.18,
1673,-0.075,0.17,
1674,-0.07,0.16,
1675,-0.07,0.16,
1676,-0.075,0.18,
1677,-0.08,0.2,
1678,-0.07,0.21,
1679,-0.055,0.2,
1680,-0.045,0.18,
1681,-0.04,0.18,
1682,-0.05,0.185,
1683,-0.05,0.185,
1684,-0.05,0.175,
1685,-0.05,0.165,
1686,-0.05,0.17,
1687,-0.055,0.17,
1688,-0.055,0.185,
1689,-0.05,0.2,
1690,-0.04,0.2,
1691,-0.035,0.18,
1692,-0.035,0.165,
1693,-0.035,0.16,
1694,-0.04,0.16,
1695,-0.055,0.16,
1696,-0.045,0.16,
1697,-0.04,0.155,
1698,-0.04,0.155,
1699,-0.045,0.165,
1700,-0.045,0.185,
1701,-0.035,0.19,
1702,-0.025,0.18,
1703,-0.02,0.175,
1704,-0.025,0.15,
1705,-0.03,0.18,
1706,-0.035,0.185,
1707,-0.035,0.175,
1708,-0.04,0.155,
1709,-0.045,0.155,
1710,-0.035,0.15,
1711,-0.04,0.17,
1712,-0.03,0.19,
1713,-0.02,0.195,
1714,-0.025,0.195,
1715,-0.025,0.175,
1716,-0.02,0.165,
1717,-0.025,0.175,
1718,-0.025,0.165,
1719,-0.03,0.145,
1720,-0.035,0.13,
1721,-0.035,0.125,
1722,-0.04,0.155,
1723,-0.045,0.165,
1724,-0.05,0.185,
1725,-0.05,0.2,
1726,-0.05,0.195,
1727,-0.04,0.18,
1728,-0.045,0.185,
1729,-0.04,0.19,
1730,-0.05,0.18,
1731,-0.035,0.19,
1732,-0.04,0.165,
1733,-0.03,0.165,
1734,-0.015,0.17,
1735,-0.005,0.195,
1736,0.01,0.205,
1737,0.02,0.225,
1738,0.025,0.23,
1739,0.045,0.225,
1740,0.04,0.23,
1741,0.045,0.235,
1742,0.055,0.245,
1743,0.075,0.225,
1744,0.07,0.2,
1745,0.11,0.19,
1746,0.12,0.185,
1747,0.13,0.2,
1748,0.13,0.205,
1749,0.135,0.2,
1750,0.14,0.2,
1751,0.13,0.19,
1752,0.115,0.205,
1753,0.115,0.19,
1754,0.105,0.175,
1755,0.09,0.16,
1756,0.065,0.13,
1757,0.035,0.115,
1758,0.02,0.145,
1759,-0.005,0.15,
1760,-0.005,0.16,
1761,-0.02,0.16,
1762,-0.02,0.155,
1763,-0.045,0.15,
1764,-0.055,0.16,
1765,-0.075,0.165,
1766,-0.09,0.145,
1767,-0.095,0.13,
1768,-0.11,0.12,
1769,-0.12,0.14,
1770,-0.13,0.14,
1771,-0.11,0.155,
1772,-0.1,0.155,
1773,-0.095,0.135,
1774,-0.095,0.13,
1775,-0.095,0.135,
1776,-0.1,0.15,
1777,-0.11,0.16,
1778,-0.135,0.125,
1779,-0.13,0.105,
1780,-0.14,0.09,
1781,-0.16,0.095,
1782,-0.175,0.105,
1783,-0.16,0.125,
1784,-0.125,0.12,
1785,-0.06,0.12,
1786,0.045,0.12,
1787,0.16,0.115,
1788,0.325,0.11,
1789,0.52,0.1,
1790,0.76,0.095,
1791,1.015,0.11,
1792,1.255,0.15,
1793,1.47,0.255,
1794,1.61,0.365,N
1795,1.645,0.48,
1796,1.54,0.585,
1797,1.34,0.62,
1798,1.035,0.605,
1799,0.71,0.515,
1800,0.385,0.385,
1801,0.125,0.22,
1802,-0.065,0.08,
1803,-0.175,-0.035,
1804,-0.215,-0.075,
1805,-0.22,-0.05,
1806,-0.175,0.03,
1807,-0.135,0.085,
1808,-0.115,0.125,
1809,-0.11,0.13,
1810,-0.11,0.135,
1811,-0.14,0.115,
1812,-0.165,0.125,
1813,-0.175,0.12,
1814,-0.19,0.1,
1815,-0.195,0.08,
1816,-0.205,0.065,
1817,-0.215,0.065,
1818,-0.225,0.08,
1819,-0.23,0.1,
1820,-0.215,0.115,
1821,-0.22,0.095,
1822,-0.21,0.1,
1823,-0.195,0.08,
1824,-0.2,0.08,
1825,-0.2,0.11,
1826,-0.195,0.1,
1827,-0.195,0.095,
1828,-0.205,0.075,
1829,-0.205,0.06,
1830,-0.215,0.055,
1831,-0.22,0.08,
1832,-0.205,0.095,
1833,-0.205,0.1,
1834,-0.215,0.095,
1835,-0.195,0.075,
1836,-0.205,0.06,
1837,-0.195,0.06,
1838,-0.2,0.07,
1839,-0.195,0.065,
1840,-0.2,0.035,
1841,-0.205,0.03,
1842,-0.2,0.05,
1843,-0.21,0.055,
1844,-0.205,0.07,
1845,-0.195,0.07,
1846,-0.185,0.065,
1847,-0.185,0.055,
1848,-0.195,0.04,
1849,-0.185,0.055,
1850,-0.185,0.055,
1851,-0.185,0.03,
1852,-0.19,0.0,
1853,-0.19,0.0,
1854,-0.2,0.005,
1855,-0.2,0.015,
1856,-0.17,0.04,
1857,-0.155,0.04,
1858,-0.16,0.025,
1859,-0.145,0.0,
1860,-0.14,0.0,
1861,-0.14,0.01,
1862,-0.135,0.0,
1863,-0.155,-0.015,
1864,-0.165,-0.035,
1865,-0.15,-0.05,
1866,-0.15,-0.045,
1867,-0.15,-0.02,
1868,-0.14,-0.01,
1869,-0.13,-0.01,
1870,-0.12,-0.015,
1871,-0.11,-0.04,
1872,-0.11,-0.055,
1873,-0.11,-0.055,
1874,-0.12,-0.045,
1875,-0.125,-0.045,
1876,-0.125,-0.045,
1877,-0.125,-0.065,
1878,-0.125,-0.08,
1879,-0.12,-0.065,
1880,-0.115,-0.04,
1881,-0.115,-0.04,
1882,-0.105,-0.04,
1883,-0.09,-0.055,
1884,-0.095,-0.06,
1885,-0.1,-0.065,
1886,-0.12,-0.04,
1887,-0.12,-0.04,
1888,-0.13,-0.045,
1889,-0.12,-0.055,
1890,-0.12,-0.055,
1891,-0.1,-0.02,
1892,-0.095,0.01,
1893,-0.07,0.035,
1894,-0.055,0.05,
1895,-0.04,0.04,
1896,-0.05,0.045,
1897,-0.045,0.07,
1898,-0.05,0.07,
1899,-0.065,0.09,
1900,-0.07,0.08,
1901,-0.07,0.065,
1902,-0.08,0.06,
1903,-0.095,0.075,
1904,-0.09,0.085,
1905,-0.095,0.11,
1906,-0.08,0.11,
1907,-0.06,0.11,
1908,-0.06,0.09,
1909,-0.065,0.095,
1910,-0.075,0.105,
1911,-0.09,0.115,
1912,-0.095,0.11,
1913,-0.11,0.095,
1914,-0.11,0.075,
1915,-0.12,0.085,
1916,-0.12,0.11,
1917,-0.115,0.125,
1918,-0.115,0.15,
1919,-0.105,0.13,
1920,-0.105,0.11,
1921,-0.105,0.09,
1922,-0.105,0.095,
1923,-0.105,0.095,
1924,-0.12,0.11,
1925,-0.13,0.095,
1926,-0.12,0.08,
1927,-0.115,0.075,
1928,-0.12,0.075,
1929,-0.115,0.1,
1930,-0.125,0.115,
1931,-0.12,0.12,
1932,-0.1,0.095,
1933,-0.095,0.095,
1934,-0.095,0.09,
1935,-0.105,0.1,
1936,-0.095,0.11,
1937,-0.11,0.1,
1938,-0.12,0.085,
1939,-0.115,0.08,
1940,-0.115,0.06,
1941,-0.1,0.09,
1942,-0.11,0.095,
1943,-0.105,0.11,
1944,-0.1,0.095,
1945,-0.09,0.09,
1946,-0.095,0.08,
1947,-0.1,0.095,
1948,-0.115,0.1,
1949,-0.11,0.09,
1950,-0.115,0.08,
1951,-0.125,0.075,
1952,-0.125,0.06,
1953,-0.115,0.08,
1954,-0.125,0.11,
1955,-0.105,0.115,
1956,-0.11,0.115,
1957,-0.105,0.095,
1958,-0.11,0.075,
1959,-0.105,0.075,
1960,-0.11,0.085,
1961,-0.115,0.1,
1962,-0.105,0.095,
1963,-0.11,0.085,
1964,-0.105,0.085,
1965,-0.095,0.1,
1966,-0.105,0.115,
1967,-0.105,0.13,
1968,-0.115,0.11,
1969,-0.105,0.085,
1970,-0.12,0.075,
1971,-0.14,0.07,
1972,-0.135,0.09,
1973,-0.155,0.1,
1974,-0.135,0.105,
1975,-0.125,0.11,
1976,-0.085,0.11,
1977,-0.085,0.125,
1978,-0.065,0.155,
1979,-0.07,0.165,
1980,-0.07,0.16,
1981,-0.06,0.15,
1982,-0.06,0.12,
1983,-0.07,0.13,
1984,-0.06,0.14,
1985,-0.05,0.15,
1986,-0.045,0.165,
1987,-0.02,0.16,
1988,0.01,0.13,
1989,0.04,0.105,
1990,0.055,0.12,
1991,0.06,0.135,
1992,0.055,0.12,
1993,0.045,0.115,
1994,0.02,0.095,
1995,0.01,0.08,
1996,0.005,0.065,
1997,-0.01,0.095,
1998,-0.02,0.085,
1999,-0.025,0.085,
2000,-0.04,0.08,
2001,-0.05,0.055,
2002,-0.07,0.07,
2003,-0.075,0.07,
2004,-0.1,0.09,
2005,-0.105,0.105,
2006,-0.125,0.09,
2007,-0.14,0.06,
2008,-0.165,0.055,
2009,-0.195,0.05,
2010,-0.205,0.06,
2011,-0.23,0.075,
2012,-0.22,0.075,
2013,-0.225,0.05,
2014,-0.22,0.05,
2015,-0.21,0.06,
2016,-0.205,0.08,
2017,-0.215,0.085,
2018,-0.215,0.075,
2019,-0.215,0.055,
2020,-0.225,0.025,
2021,-0.24,0.015,
2022,-0.255,0.04,
2023,-0.255,0.045,
2024,-0.245,0.075,
2025,-0.255,0.06,
2026,-0.23,0.06,
2027,-0.24,0.045,
2028,-0.255,0.03,
2029,-0.265,0.03,
2030,-0.27,0.045,
2031,-0.275,0.065,
2032,-0.225,0.06,
2033,-0.16,0.05,
2034,-0.07,0.035,
2035,0.045,0.025,
2036,0.215,0.005,
2037,0.42,-0.005,
2038,0.665,0.01,
2039,0.94,0.03,
2040,1.2,0.075,
2041,1.415,0.17,
2042,1.55,0.27,N
2043,1.56,0.385,
2044,1.41,0.47,
2045,1.16,0.5,
2046,0.83,0.46,
2047,0.48,0.345,
2048,0.165,0.23,
2049,-0.06,0.085,
2050,-0.19,-0.02,
2051,-0.25,-0.09,
2052,-0.265,-0.09,
2053,-0.245,-0.07,
2054,-0.225,0.005,
2055,-0.22,0.045,
2056,-0.225,0.065,
2057,-0.24,0.055,
2058,-0.255,0.05,
2059,-0.285,0.03,
2060,-0.305,0.04,
2061,-0.32,0.055,
2062,-0.325,0.06,
2063,-0.315,0.05,
2064,-0.31,0.04,
2065,-0.31,0.03,
2066,-0.325,0.05,
2067,-0.335,0.07,
2068,-0.34,0.055,
2069,-0.35,0.03,
2070,-0.345,0.03,
2071,-0.35,0.01,
2072,-0.335,0.04,
2073,-0.33,0.05,
2074,-0.32,0.06,
2075,-0.31,0.06,
2076,-0.3,0.035,
2077,-0.31,0.035,
2078,-0.315,0.03,
2079,-0.33,0.02,
2080,-0.34,0.025,
2081,-0.33,0.015,
2082,-0.34,0.0,
2083,-0.34,0.005,
2084,-0.325,0.02,
2085,-0.32,0.04,
2086,-0.305,0.055,
2087,-0.3,0.06,
2088,-0.305,0.03,
2089,-0.305,0.02,
2090,-0.305,0.0,
2091,-0.315,0.015,
2092,-0.32,0.01,
2093,-0.33,0.01,
2094,-0.335,-0.015,
2095,-0.32,-0.02,
2096,-0.315,-0.015,
2097,-0.305,-0.005,
2098,-0.29,0.025,
2099,-0.275,0.025,
2100,-0.27,0.0,
2101,-0.265,-0.02,
2102,-0.265,-0.04,
2103,-0.275,-0.04,
2104,-0.285,-0.02,
2105,-0.3,-0.02,
2106,-0.305,-0.025,
2107,-0.29,-0.045,
2108,-0.285,-0.045,
2109,-0.265,-0.045,
2110,-0.265,-0.03,
2111,-0.25,-0.03,
2112,-0.25,-0.035,
2113,-0.25,-0.055,
2114,-0.235,-0.075,
2115,-0.25,-0.1,
2116,-0.235,-0.11,
2117,-0.25,-0.09,
2118,-0.24,-0.075,
2119,-0.245,-0.075,
2120,-0.245,-0.085,
2121,-0.22,-0.1,
2122,-0.21,-0.085,
2123,-0.21,-0.075,
2124,-0.205,-0.07,
2125,-0.21,-0.075,
2126,-0.215,-0.095,
2127,-0.215,-0.11,
2128,-0.215,-0.12,
2129,-0.21,-0.105,
2130,-0.21,-0.095,
2131,-0.225,-0.08,
2132,-0.215,-0.08,
2133,-0.22,-0.085,
2134,-0.215,-0.08,
2135,-0.2,-0.075,
2136,-0.195,-0.045,
2137,-0.19,-0.045,
2138,-0.19,-0.05,
2139,-0.195,-0.06,
2140,-0.205,-0.065,
2141,-0.175,-0.08,
2142,-0.185,-0.055,
2143,-0.175,-0.02,
2144,-0.165,-0.005,
2145,-0.165,0.0,
2146,-0.17,0.0,
2147,-0.15,0.015,
2148,-0.16,0.015,
2149,-0.15,0.055,
2150,-0.155,0.065,
2151,-0.165,0.06,
2152,-0.165,0.045,
2153,-0.17,0.035,
2154,-0.185,0.045,
2155,-0.18,0.07,
2156,-0.16,0.085,
2157,-0.15,0.1,
2158,-0.15,0.1,
2159,-0.155,0.085,
2160,-0.155,0.075,
2161,-0.17,0.07,
2162,-0.165,0.06,
2163,-0.175,0.08,
2164,-0.185,0.06,
2165,-0.19,0.05,
2166,-0.205,0.045,
2167,-0.195,0.035,
2168,-0.2,0.055,
2169,-0.19,0.075,
2170,-0.18,0.085,
2171,-0.16,0.08,
2172,-0.165,0.07,
2173,-0.165,0.055,
2174,-0.18,0.055,
2175,-0.19,0.06,
2176,-0.19,0.075,
2177,-0.19,0.075,
2178,-0.18,0.075,
2179,-0.185,0.06,
2180,-0.205,0.055,
2181,-0.185,0.075,
2182,-0.19,0.08,
2183,-0.175,0.09,
2184,-0.185,0.06,
2185,-0.18,0.06,
2186,-0.18,0.05,
2187,-0.18,0.055,
2188,-0.175,0.055,
2189,-0.19,0.065,
2190,-0.19,0.055,
2191,-0.2,0.045,
2192,-0.195,0.03,
2193,-0.185,0.045,
2194,-0.17,0.07,
2195,-0.175,0.105,
2196,-0.17,0.1,
2197,-0.165,0.075,
2198,-0.165,0.055,
2199,-0.175,0.05,
2200,-0.17,0.04,
2201,-0.18,0.05,
2202,-0.19,0.06,
2203,-0.18,0.055,
2204,-0.175,0.055,
2205,-0.19,0.055,
2206,-0.18,0.065,
2207,-0.18,0.075,
2208,-0.175,0.075,
2209,-0.175,0.06,
2210,-0.175,0.05,
2211,-0.18,0.035,
2212,-0.18,0.045,
2213,-0.175,0.065,
2214,-0.17,0.065,
2215,-0.175,0.055,
2216,-0.185,0.045,
2217,-0.185,0.05,
2218,-0.205,0.065,
2219,-0.185,0.085,
2220,-0.205,0.085,
2221,-0.2,0.065,
2222,-0.19,0.05,
2223,-0.18,0.035,
2224,-0.19,0.045,
2225,-0.18,0.065,
2226,-0.165,0.07,
2227,-0.16,0.075,
2228,-0.135,0.075,
2229,-0.13,0.09,
2230,-0.11,0.095,
2231,-0.105,0.135,
2232,-0.105,0.135,
2233,-0.085,0.125,
2234,-0.09,0.11,
2235,-0.09,0.09,
2236,-0.085,0.095,
2237,-0.08,0.105,
2238,-0.055,0.105,
2239,-0.025,0.095,
2240,-0.005,0.075,
2241,0.01,0.08,
2242,0.0,0.075,
2243,-0.01,0.085,
2244,-0.03,0.06,
2245,-0.04,0.055,
2246,-0.035,0.035,
2247,-0.045,0.025,
2248,-0.055,0.01,
2249,-0.075,0.02,
2250,-0.085,0.02,
2251,-0.105,0.015,
2252,-0.11,0.005,
2253,-0.13,0.02,
2254,-0.155,0.04,
2255,-0.165,0.055,
2256,-0.18,0.055,
2257,-0.195,0.04,
2258,-0.22,0.025,
2259,-0.23,0.025,
2260,-0.255,0.01,
2261,-0.27,0.025,
2262,-0.28,0.035,
2263,-0.275,0.025,
2264,-0.27,0.01,
2265,-0.26,0.02,
2266,-0.25,0.02,
2267,-0.25,0.04,
2268,-0.26,0.035,
2269,-0.26,0.035,
2270,-0.265,0.015,
2271,-0.285,0.015,
2272,-0.29,0.005,
2273,-0.29,0.01,
2274,-0.3,0.035,
2275,-0.305,-0.01,
2276,-0.315,-0.015,
2277,-0.33,-0.04,
2278,-0.305,-0.045,
2279,-0.285,-0.01,
2280,-0.235,0.02,
2281,-0.15,0.015,
2282,-0.04,-0.005,
2283,0.115,-0.05,
2284,0.305,-0.07,
2285,0.53,-0.075,
2286,0.79,-0.03,
2287,1.045,0.045,
2288,1.275,0.135,
2289,1.43,0.255,N
2290,1.46,0.385,
2291,1.34,0.49,
2292,1.08,0.535,
2293,0.76,0.495,
2294,0.415,0.375,
2295,0.12,0.205,
2296,-0.12,0.055,
2297,-0.27,-0.07,
2298,-0.335,-0.125,
2299,-0.345,-0.135,
2300,-0.32,-0.115,
2301,-0.28,-0.055,
2302,-0.255,0.0,
2303,-0.25,0.055,
2304,-0.265,0.065,
2305,-0.275,0.045,
2306,-0.305,0.015,
2307,-0.32,0.0,
2308,-0.355,-0.015,
2309,-0.355,-0.01,
2310,-0.37,-0.03,
2311,-0.36,-0.03,
2312,-0.345,-0.025,
2313,-0.345,-0.025,
2314,-0.36,0.0,
2315,-0.36,0.015,
2316,-0.35,0.015,
2317,-0.345,-0.01,
2318,-0.36,-0.025,
2319,-0.355,-0.05,
2320,-0.365,-0.025,
2321,-0.37,-0.015,
2322,-0.37,0.005,
2323,-0.37,-0.005,
2324,-0.365,-0.02,
2325,-0.36,-0.015,
2326,-0.355,-0.01,
2327,-0.35,0.01,
2328,-0.345,0.005,
2329,-0.34,-0.005,
2330,-0.33,-0.04,
2331,-0.335,-0.04,
2332,-0.34,-0.04,
2333,-0.34,-0.025,
2334,-0.355,-0.04,
2335,-0.345,-0.045,
2336,-0.335,-0.05,
2337,-0.335,-0.035,
2338,-0.35,-0.025,
2339,-0.33,-0.01,
2340,-0.33,-0.02,
2341,-0.33,-0.03,
2342,-0.32,-0.045,
2343,-0.32,-0.055,
2344,-0.335,-0.065,
2345,-0.335,-0.055,
2346,-0.325,-0.06,
2347,-0.32,-0.08,
2348,-0.315,-0.08,
2349,-0.31,-0.085,
2350,-0.3,-0.075,
2351,-0.29,-0.065,
2352,-0.295,-0.08,
2353,-0.295,-0.095,
2354,-0.29,-0.12,
2355,-0.285,-0.105,
2356,-0.285,-0.11,
2357,-0.285,-0.105,
2358,-0.29,-0.105,
2359,-0.285,-0.12,
2360,-0.265,-0.115,
2361,-0.255,-0.115,
2362,-0.245,-0.085,
2363,-0.235,-0.09,
2364,-0.235,-0.105,
2365,-0.235,-0.125,
2366,-0.24,-0.14,
2367,-0.245,-0.14,
2368,-0.24,-0.12,
2369,-0.24,-0.12,
2370,-0.235,-0.13,
2371,-0.23,-0.14,
2372,-0.225,-0.14,
2373,-0.235,-0.125,
2374,-0.22,-0.105,
2375,-0.225,-0.095,
2376,-0.23,-0.105,
2377,-0.23,-0.115,
2378,-0.22,-0.13,
2379,-0.245,-0.115,
2380,-0.235,-0.12,
2381,-0.24,-0.105,
2382,-0.225,-0.105,
2383,-0.21,-0.115,
2384,-0.2,-0.095,
2385,-0.18,-0.065,
2386,-0.17,-0.03,
2387,-0.155,0.0,
2388,-0.14,0.0,
2389,-0.135,-0.005,
2390,-0.15,-0.025,
2391,-0.155,-0.025,
2392,-0.165,0.0,
2393,-0.175,0.005,
2394,-0.18,0.005,
2395,-0.17,0.01,
2396,-0.17,0.005,
2397,-0.17,0.03,
2398,-0.16,0.035,
2399,-0.155,0.04,
2400,-0.16,0.04,
2401,-0.16,0.03,
2402,-0.165,0.02,
2403,-0.18,0.02,
2404,-0.195,0.01,
2405,-0.2,0.035,
2406,-0.21,0.05,
2407,-0.205,0.025,
2408,-0.21,0.03,
2409,-0.205,0.015,
2410,-0.2,0.03,
2411,-0.185,0.035,
2412,-0.185,0.055,
2413,-0.175,0.035,
2414,-0.18,0.02,
2415,-0.19,0.0,
2416,-0.2,-0.01,
2417,-0.205,0.02,
2418,-0.23,0.02,
2419,-0.21,0.01,
2420,-0.21,0.01,
2421,-0.2,0.015,
2422,-0.2,0.02,
2423,-0.185,0.04,
2424,-0.18,0.04,
2425,-0.19,0.03,
2426,-0.17,0.02,
2427,-0.18,0.005,
2428,-0.185,0.0,
2429,-0.2,0.015,
2430,-0.205,0.045,
2431,-0.205,0.04,
2432,-0.195,0.03,
2433,-0.195,0.02,
2434,-0.19,0.02,
2435,-0.185,0.045,
2436,-0.185,0.055,
2437,-0.175,0.06,
2438,-0.165,0.04,
2439,-0.17,0.015,
2440,-0.17,0.01,
2441,-0.19,0.02,
2442,-0.195,0.035,
2443,-0.21,0.03,
2444,-0.2,0.035,
2445,-0.19,0.02,
2446,-0.19,0.035,
2447,-0.19,0.065,
2448,-0.18,0.065,
2449,-0.18,0.065,
2450,-0.19,0.05,
2451,-0.195,0.035,
2452,-0.19,0.02,
2453,-0.2,0.025,
2454,-0.205,0.03,
2455,-0.2,0.04,
2456,-0.2,0.045,
2457,-0.19,0.03,
2458,-0.18,0.025,
2459,-0.165,0.035,
2460,-0.185,0.05,
2461,-0.195,0.045,
2462,-0.185,0.035,
2463,-0.18,0.015,
2464,-0.175,0.01,
2465,-0.17,0.025,
2466,-0.165,0.055,
2467,-0.17,0.085,
2468,-0.165,0.095,
2469,-0.145,0.1,
2470,-0.12,0.09,
2471,-0.11,0.11,
2472,-0.11,0.11,
2473,-0.12,0.12,
2474,-0.11,0.1,
2475,-0.11,0.08,
2476,-0.095,0.055,
2477,-0.07,0.045,
2478,-0.045,0.05,
2479,-0.03,0.06,
2480,-0.015,0.06,
2481,-0.005,0.055,
2482,0.0,0.045,
2483,-0.01,0.045,
2484,-0.01,0.05,
2485,-0.01,0.055,
2486,-0.03,0.05,
2487,-0.04,0.02,
2488,-0.055,-0.005,
2489,-0.08,-0.015,
2490,-0.11,0.01,
2491,-0.125,0.02,
2492,-0.15,0.025,
2493,-0.16,0.025,
2494,-0.16,0.02,
2495,-0.16,0.025,
2496,-0.185,0.025,
2497,-0.19,0.035,
2498,-0.215,0.015,
2499,-0.235,-0.005,
2500,-0.225,-0.02,
2501,-0.24,-0.02,
2502,-0.265,-0.01,
2503,-0.265,0.015,
2504,-0.26,0.015,
2505,-0.26,0.01,
2506,-0.25,-0.005,
2507,-0.245,-0.01,
2508,-0.245,0.01,
2509,-0.24,0.025,
2510,-0.245,0.02,
2511,-0.255,-0.02,
2512,-0.26,-0.03,
2513,-0.27,-0.025,
2514,-0.285,-0.025,
2515,-0.3,-0.03,
2516,-0.31,-0.02,
2517,-0.305,-0.025,
2518,-0.26,-0.015,
2519,-0.185,-0.01,
2520,-0.09,-0.005,
2521,0.065,-0.03,
2522,0.27,-0.055,
2523,0.48,-0.09,
2524,0.725,-0.065,
2525,0.975,-0.005,
2526,1.21,0.105,
2527,1.395,0.25,
2528,1.45,0.395,N
2529,1.395,0.5,
2530,1.195,0.585,
2531,0.91,0.58,
2532,0.555,0.495,
2533,0.25,0.335,
2534,-0.02,0.15,
2535,-0.21,-0.035,
2536,-0.32,-0.145,
2537,-0.37,-0.16,
2538,-0.345,-0.145,
2539,-0.31,-0.085,
2540,-0.265,-0.045,
2541,-0.24,-0.015,
2542,-0.24,0.01,
2543,-0.24,0.025,
2544,-0.275,0.03,
2545,-0.3,0.01,
2546,-0.32,-0.02,
2547,-0.32,-0.035,
2548,-0.32,-0.045,
2549,-0.32,-0.04,
2550,-0.315,-0.02,
2551,-0.315,-0.01,
2552,-0.315,-0.01,
2553,-0.325,-0.015,
2554,-0.335,-0.01,
2555,-0.325,0.0,
2556,-0.325,0.0,
2557,-0.325,-0.01,
2558,-0.32,-0.025,
2559,-0.31,-0.04,
2560,-0.315,-0.035,
2561,-0.315,-0.015,
2562,-0.31,-0.02,
2563,-0.32,-0.035,
2564,-0.32,-0.045,
2565,-0.31,-0.035,
2566,-0.315,-0.015,
2567,-0.305,-0.01,
2568,-0.305,-0.015,
2569,-0.295,-0.015,
2570,-0.305,-0.03,
2571,-0.295,-0.035,
2572,-0.3,-0.04,
2573,-0.295,-0.045,
2574,-0.295,-0.05,
2575,-0.29,-0.065,
2576,-0.295,-0.055,
2577,-0.285,-0.04,
2578,-0.29,-0.035,
2579,-0.29,-0.035,
2580,-0.27,-0.055,
2581,-0.27,-0.065,
2582,-0.26,-0.07,
2583,-0.26,-0.08,
2584,-0.25,-0.08,
2585,-0.25,-0.105,
2586,-0.255,-0.12,
2587,-0.265,-0.105,
2588,-0.25,-0.085,
2589,-0.25,-0.075,
2590,-0.24,-0.065,
2591,-0.235,-0.06,
2592,-0.22,-0.095,
2593,-0.23,-0.095,
2594,-0.215,-0.09,
2595,-0.215,-0.1,
2596,-0.215,-0.11,
2597,-0.215,-0.14,
2598,-0.21,-0.16,
2599,-0.205,-0.155,
2600,-0.2,-0.14,
2601,-0.2,-0.12,
2602,-0.205,-0.13,
2603,-0.19,-0.125,
2604,-0.19,-0.13,
2605,-0.185,-0.135,
2606,-0.185,-0.13,
2607,-0.19,-0.12,
2608,-0.19,-0.145,
2609,-0.19,-0.145,
2610,-0.195,-0.13,
2611,-0.195,-0.12,
2612,-0.185,-0.105,
2613,-0.185,-0.105,
2614,-0.18,-0.11,
2615,-0.165,-0.115,
2616,-0.155,-0.105,
2617,-0.15,-0.075,
2618,-0.14,-0.08,
2619,-0.14,-0.06,
2620,-0.13,-0.07,
2621,-0.12,-0.065,
2622,-0.115,-0.05,
2623,-0.11,-0.03,
2624,-0.095,-0.005,
2625,-0.09,-0.005,
2626,-0.08,0.015,
2627,-0.075,0.01,
2628,-0.08,0.02,
2629,-0.085,0.055,
2630,-0.095,0.06,
2631,-0.105,0.035,
2632,-0.11,0.03,
2633,-0.12,0.02,
2634,-0.125,0.025,
2635,-0.12,0.045,
2636,-0.115,0.045,
2637,-0.12,0.03,
2638,-0.11,0.025,
2639,-0.09,0.03,
2640,-0.1,0.05,
2641,-0.11,0.05,
2642,-0.115,0.06,
2643,-0.12,0.045,
2644,-0.13,0.025,
2645,-0.135,0.03,
2646,-0.145,0.04,
2647,-0.14,0.03,
2648,-0.13,0.035,
2649,-0.12,0.035,
2650,-0.1,0.045,
2651,-0.1,0.055,
2652,-0.1,0.05,
2653,-0.105,0.05,
2654,-0.1,0.03,
2655,-0.105,0.03,
2656,-0.11,0.02,
2657,-0.12,0.03,
2658,-0.125,0.035,
2659,-0.13,0.02,
2660,-0.125,0.02,
2661,-0.12,0.03,
2662,-0.1,0.05,
2663,-0.085,0.065,
2664,-0.085,0.05,
2665,-0.085,0.035,
2666,-0.07,0.02,
2667,-0.11,0.02,
2668,-0.105,0.035,
2669,-0.115,0.04,
2670,-0.115,0.03,
2671,-0.105,0.025,
2672,-0.105,0.025,
2673,-0.09,0.03,
2674,-0.08,0.05,
2675,-0.075,0.05,
2676,-0.065,0.055,
2677,-0.07,0.04,
2678,-0.07,0.02,
2679,-0.08,0.03,
2680,-0.095,0.035,
2681,-0.105,0.03,
2682,-0.1,0.025,
2683,-0.125,0.005,
2684,-0.12,0.015,
2685,-0.12,0.03,
2686,-0.11,0.065,
2687,-0.085,0.055,
2688,-0.085,0.055,
2689,-0.1,0.045,
2690,-0.1,0.04,
2691,-0.1,0.055,
2692,-0.11,0.045,
2693,-0.11,0.045,
2694,-0.095,0.035,
2695,-0.09,0.02,
2696,-0.08,0.04,
2697,-0.05,0.07,
2698,-0.05,0.11,
2699,-0.025,0.125,
2700,-0.025,0.12,
2701,-0.015,0.105,
2702,-0.015,0.085,
2703,-0.01,0.075,
2704,-0.02,0.1,
2705,-0.01,0.095,
2706,-0.005,0.075,
2707,0.03,0.055,
2708,0.045,0.025,
2709,0.045,0.05,
2710,0.05,0.07,
2711,0.045,0.085,
2712,0.05,0.09,
2713,0.05,0.07,
2714,0.065,0.035,
2715,0.06,0.03,
2716,0.05,0.03,
2717,0.04,0.04,
2718,0.015,0.03,
2719,0.0,0.01,
2720,-0.03,0.01,
2721,-0.045,0.015,
2722,-0.065,0.035,
2723,-0.09,0.06,
2724,-0.1,0.055,
2725,-0.125,0.03,
2726,-0.135,0.0,
2727,-0.165,-0.015,
2728,-0.16,0.0,
2729,-0.18,0.0,
2730,-0.185,0.005,
2731,-0.19,0.0,
2732,-0.175,0.005,
2733,-0.17,-0.005,
2734,-0.175,0.005,
2735,-0.185,0.03,
2736,-0.18,0.035,
2737,-0.18,0.04,
2738,-0.17,0.005,
2739,-0.185,-0.01,
2740,-0.19,-0.015,
2741,-0.205,-0.015,
2742,-0.205,-0.005,
2743,-0.21,0.005,
2744,-0.195,0.005,
2745,-0.195,-0.01,
2746,-0.195,-0.03,
2747,-0.195,-0.01,
2748,-0.195,0.01,
2749,-0.155,0.03,
2750,-0.085,0.03,
2751,0.02,0.0,
2752,0.155,-0.03,
2753,0.33,-0.04,
2754,0.535,-0.05,
2755,0.77,-0.02,
2756,1.04,0.035,
2757,1.285,0.095,
2758,1.48,0.2,
2759,1.585,0.305,N
2760,1.545,0.415,
2761,1.395,0.485,
2762,1.135,0.515,
2763,0.82,0.445,
2764,0.51,0.315,
2765,0.215,0.175,
2766,-0.02,0.05,
2767,-0.16,-0.06,
2768,-0.25,-0.12,
2769,-0.255,-0.135,
2770,-0.255,-0.115,
2771,-0.21,-0.075,
2772,-0.165,-0.005,
2773,-0.165,0.04,
2774,-0.18,0.055,
2775,-0.21,0.02,
2776,-0.24,-0.02,
2777,-0.29,-0.035,
2778,-0.31,-0.02,
2779,-0.325,-0.005,
2780,-0.31,0.005,
2781,-0.315,0.01,
2782,-0.295,0.01,
2783,-0.275,0.0,
2784,-0.27,-0.01,
2785,-0.27,-0.01,
2786,-0.28,-0.01,
2787,-0.29,-0.02,
2788,-0.305,-0.035,
2789,-0.305,-0.045,
2790,-0.31,-0.03,
2791,-0.31,-0.015,
2792,-0.32,-0.005,
2793,-0.31,-0.015,
2794,-0.305,-0.02,
2795,-0.3,-0.02,
2796,-0.305,-0.005,
2797,-0.3,0.0,
2798,-0.305,-0.01,
2799,-0.285,-0.03,
2800,-0.285,-0.045,
2801,-0.3,-0.045,
2802,-0.305,-0.03,
2803,-0.31,-0.03,
2804,-0.31,-0.03,
2805,-0.315,-0.04,
2806,-0.31,-0.035,
2807,-0.3,-0.045,
2808,-0.3,-0.035,
2809,-0.295,-0.04,
2810,-0.29,-0.06,
2811,-0.295,-0.065,
2812,-0.29,-0.085,
2813,-0.295,-0.075,
2814,-0.295,-0.065,
2815,-0.3,-0.07,
2816,-0.295,-0.06,
2817,-0.285,-0.07,
2818,-0.285,-0.065,
2819,-0.285,-0.05,
2820,-0.265,-0.055,
2821,-0.26,-0.06,
2822,-0.25,-0.1,
2823,-0.25,-0.11,
2824,-0.26,-0.135,
2825,-0.255,-0.12,
2826,-0.265,-0.13,
2827,-0.265,-0.145,
2828,-0.255,-0.15,
2829,-0.24,-0.145,
2830,-0.235,-0.115,
2831,-0.23,-0.1,
2832,-0.22,-0.105,
2833,-0.225,-0.12,
2834,-0.23,-0.145,
2835,-0.235,-0.15,
2836,-0.25,-0.145,
2837,-0.225,-0.14,
2838,-0.225,-0.14,
2839,-0.215,-0.145,
2840,-0.225,-0.15,
2841,-0.205,-0.135,
2842,-0.225,-0.125,
2843,-0.22,-0.12,
2844,-0.21,-0.125,
2845,-0.215,-0.15,
2846,-0.205,-0.155,
2847,-0.22,-0.13,
2848,-0.225,-0.135,
2849,-0.22,-0.12,
2850,-0.205,-0.135,
2851,-0.195,-0.13,
2852,-0.185,-0.125,
2853,-0.175,-0.1,
2854,-0.165,-0.06,
2855,-0.165,-0.04,
2856,-0.16,-0.03,
2857,-0.16,-0.02,
2858,-0.175,-0.025,
2859,-0.17,-0.005,
2860,-0.18,-0.005,
2861,-0.185,0.005,
2862,-0.19,-0.01,
2863,-0.17,-0.015,
2864,-0.165,-0.005,
2865,-0.16,0.015,
2866,-0.16,0.04,
2867,-0.18,0.04,
2868,-0.185,0.025,
2869,-0.195,0.0,
2870,-0.19,0.0,
2871,-0.2,0.005,
2872,-0.21,0.01,
2873,-0.21,0.01,
2874,-0.215,-0.005,
2875,-0.205,-0.005,
2876,-0.21,0.0,
2877,-0.185,0.02,
2878,-0.19,0.04,
2879,-0.175,0.035,
2880,-0.185,0.015,
2881,-0.185,0.0,
2882,-0.2,0.015,
2883,-0.21,0.01,
2884,-0.22,0.015,
2885,-0.23,0.015,
2886,-0.22,0.0,
2887,-0.23,-0.01,
2888,-0.23,0.0,
2889,-0.21,0.02,
2890,-0.2,0.035,
2891,-0.19,0.03,
2892,-0.18,0.02,
2893,-0.185,0.005,
2894,-0.19,0.005,
2895,-0.21,-0.005,
2896,-0.205,0.005,
2897,-0.235,-0.005,
2898,-0.22,-0.015,
2899,-0.215,-0.005,
2900,-0.21,0.01,
2901,-0.21,0.035,
2902,-0.19,0.055,
2903,-0.18,0.035,
2904,-0.175,0.02,
2905,-0.175,-0.005,
2906,-0.19,-0.005,
2907,-0.195,-0.005,
2908,-0.205,0.0,
2909,-0.22,-0.015,
2910,-0.225,-0.025,
2911,-0.215,-0.025,
2912,-0.22,-0.005,
2913,-0.215,0.015,
2914,-0.215,0.03,
2915,-0.2,0.015,
2916,-0.2,0.01,
2917,-0.185,0.015,
2918,-0.2,0.01,
2919,-0.215,0.035,
2920,-0.215,0.02,
2921,-0.225,0.005,
2922,-0.225,-0.025,
2923,-0.23,-0.025,
2924,-0.24,-0.025,
2925,-0.225,0.0,
2926,-0.21,0.03,
2927,-0.2,0.02,
2928,-0.185,0.02,
2929,-0.18,0.01,
2930,-0.18,0.03,
2931,-0.18,0.035,
2932,-0.18,0.04,
2933,-0.175,0.035,
2934,-0.175,0.04,
2935,-0.165,0.045,
2936,-0.165,0.065,
2937,-0.16,0.09,
2938,-0.15,0.095,
2939,-0.135,0.075,
2940,-0.115,0.06,
2941,-0.095,0.055,
2942,-0.065,0.045,
2943,-0.05,0.045,
2944,-0.05,0.035,
2945,-0.06,0.015,
2946,-0.065,-0.02,
2947,-0.075,-0.02,
2948,-0.09,0.0,
2949,-0.09,0.01,
2950,-0.1,0.02,
2951,-0.08,0.01,
2952,-0.075,-0.01,
2953,-0.095,-0.005,
2954,-0.11,-0.02,
2955,-0.135,-0.005,
2956,-0.16,-0.025,
2957,-0.19,-0.02,
2958,-0.215,-0.025,
2959,-0.24,0.0,
2960,-0.245,0.015,
2961,-0.26,0.015,
2962,-0.27,0.005,
2963,-0.275,-0.015,
2964,-0.275,-0.04,
2965,-0.28,-0.045,
2966,-0.285,-0.025,
2967,-0.3,-0.03,
2968,-0.3,-0.015,
2969,-0.305,-0.035,
2970,-0.3,-0.045,
2971,-0.32,-0.055,
2972,-0.32,-0.025,
2973,-0.32,-0.005,
2974,-0.315,0.005,
2975,-0.315,0.0,
2976,-0.31,-0.015,
2977,-0.315,-0.035,
2978,-0.315,-0.02,
2979,-0.33,-0.03,
2980,-0.355,-0.03,
2981,-0.36,-0.05,
2982,-0.365,-0.05,
2983,-0.34,-0.04,
2984,-0.28,-0.025,
2985,-0.19,-0.02,
2986,-0.075,-0.02,
2987,0.075,-0.05,
2988,0.27,-0.09,
2989,0.49,-0.1,
2990,0.73,-0.075,
2991,0.98,-0.025,
2992,1.195,0.05,
2993,1.375,0.135,
2994,1.445,0.23,N
2995,1.365,0.325,
2996,1.2,0.4,
2997,0.92,0.435,
2998,0.625,0.395,
2999,0.33,0.285,
3000,0.055,0.135,
3001,-0.145,-0.025,
3002,-0.29,-0.135,
3003,-0.355,-0.175,
3004,-0.385,-0.175,
3005,-0.37,-0.125,
3006,-0.35,-0.08,
3007,-0.325,-0.055,
3008,-0.33,-0.04,
3009,-0.335,-0.035,
3010,-0.35,-0.015,
3011,-0.37,-0.01,
3012,-0.38,-0.01,
3013,-0.39,-0.035,
3014,-0.395,-0.055,
3015,-0.41,-0.045,
3016,-0.42,-0.045,
3017,-0.43,-0.04,
3018,-0.43,-0.035,
3019,-0.43,-0.065,
3020,-0.42,-0.06,
3021,-0.415,-0.07,
3022,-0.415,-0.03,
3023,-0.41,-0.015,
3024,-0.4,-0.005,
3025,-0.405,-0.01,
3026,-0.41,-0.04,
3027,-0.415,-0.045,
3028,-0.415,-0.055,
3029,-0.43,-0.055,
3030,-0.44,-0.05,
3031,-0.435,-0.055,
3032,-0.43,-0.08,
3033,-0.42,-0.075,
3034,-0.42,-0.055,
3035,-0.41,-0.035,
3036,-0.405,-0.03,
3037,-0.39,-0.05,
3038,-0.385,-0.075,
3039,-0.395,-0.08,
3040,-0.4,-0.07,
3041,-0.415,-0.085,
3042,-0.42,-0.07,
3043,-0.425,-0.065,
3044,-0.42,-0.08,
3045,-0.4,-0.07,
3046,-0.41,-0.065,
3047,-0.395,-0.05,
3048,-0.39,-0.04,
3049,-0.39,-0.055,
3050,-0.38,-0.095,
3051,-0.39,-0.115,
3052,-0.385,-0.125,
3053,-0.385,-0.105,
3054,-0.385,-0.11,
3055,-0.385,-0.1,
3056,-0.385,-0.11,
3057,-0.385,-0.125,
3058,-0.385,-0.115,
3059,-0.375,-0.115,
3060,-0.375,-0.105,
3061,-0.365,-0.115,
3062,-0.355,-0.14,
3063,-0.365,-0.16,
3064,-0.355,-0.17,
3065,-0.355,-0.17,
3066,-0.355,-0.155,
3067,-0.35,-0.16,
3068,-0.345,-0.165,
3069,-0.335,-0.18,
3070,-0.335,-0.165,
3071,-0.335,-0.15,
3072,-0.33,-0.155,
3073,-0.32,-0.17,
3074,-0.325,-0.185,
3075,-0.32,-0.2,
3076,-0.33,-0.205,
3077,-0.325,-0.19,
3078,-0.33,-0.185,
3079,-0.335,-0.18,
3080,-0.325,-0.185,
3081,-0.315,-0.185,
3082,-0.31,-0.16,
3083,-0.305,-0.145,
3084,-0.305,-0.145,
3085,-0.305,-0.145,
3086,-0.3,-0.15,
3087,-0.305,-0.155,
3088,-0.31,-0.145,
3089,-0.3,-0.14,
3090,-0.3,-0.125,
3091,-0.29,-0.13,
3092,-0.275,-0.13,
3093,-0.265,-0.115,
3094,-0.255,-0.075,
3095,-0.265,-0.05,
3096,-0.245,-0.03,
3097,-0.255,-0.025,
3098,-0.26,-0.04,
3099,-0.265,-0.055,
3100,-0.275,-0.04,
3101,-0.29,-0.03,
3102,-0.285,-0.01,
3103,-0.285,-0.02,
3104,-0.275,-0.03,
3105,-0.28,-0.015,
3106,-0.275,0.0,
3107,-0.28,0.01,
3108,-0.285,0.015,
3109,-0.29,-0.005,
3110,-0.285,-0.03,
3111,-0.305,-0.03,
3112,-0.31,-0.015,
3113,-0.315,-0.015,
3114,-0.305,-0.025,
3115,-0.295,-0.035,
3116,-0.295,-0.035,
3117,-0.295,-0.03,
3118,-0.295,-0.01,
3119,-0.295,0.01,
3120,-0.305,0.005,
3121,-0.3,-0.01,
3122,-0.295,-0.015,
3123,-0.305,-0.02,
3124,-0.305,-0.015,
3125,-0.32,-0.025,
3126,-0.325,-0.04,
3127,-0.325,-0.05,
3128,-0.31,-0.04,
3129,-0.295,-0.01,
3130,-0.295,0.005,
3131,-0.29,-0.005,
3132,-0.29,-0.01,
3133,-0.285,-0.02,
3134,-0.29,-0.03,
3135,-0.295,-0.015,
3136,-0.31,-0.02,
3137,-0.32,-0.025,
3138,-0.315,-0.03,
3139,-0.32,-0.035,
3140,-0.325,-0.02,
3141,-0.295,-0.01,
3142,-0.295,0.0,
3143,-0.3,-0.02,
3144,-0.28,-0.02,
3145,-0.29,-0.02,
3146,-0.29,-0.015,
3147,-0.295,0.0,
3148,-0.32,-0.01,
3149,-0.315,-0.03,
3150,-0.31,-0.035,
3151,-0.31,-0.03,
3152,-0.305,-0.025,
3153,-0.3,-0.02,
3154,-0.29,-0.01,
3155,-0.28,-0.005,
3156,-0.275,-0.02,
3157,-0.285,-0.01,
3158,-0.285,-0.01,
3159,-0.31,-0.005,
3160,-0.31,-0.025,
3161,-0.315,-0.03,
3162,-0.32,-0.05,
3163,-0.32,-0.03,
3164,-0.31,0.0,
3165,-0.29,0.015,
3166,-0.275,0.02,
3167,-0.25,0.015,
3168,-0.24,0.035,
3169,-0.235,0.05,
3170,-0.225,0.06,
3171,-0.23,0.05,
3172,-0.23,0.03,
3173,-0.24,0.025,
3174,-0.235,0.015,
3175,-0.225,0.02,
3176,-0.19,0.01,
3177,-0.16,0.005,
3178,-0.14,0.005,
3179,-0.115,-0.005,
3180,-0.115,-0.01,
3181,-0.125,0.005,
3182,-0.14,-0.005,
3183,-0.15,-0.015,
3184,-0.17,-0.035,
3185,-0.175,-0.03,
3186,-0.205,-0.045,
3187,-0.22,-0.04,
3188,-0.23,-0.025,
3189,-0.24,-0.03,
3190,-0.245,-0.045,
3191,-0.26,-0.03,
3192,-0.27,-0.03,
3193,-0.285,-0.015,
3194,-0.31,-0.005,
3195,-0.325,-0.035,
3196,-0.345,-0.06,
3197,-0.375,-0.07,
3198,-0.39,-0.055,
3199,-0.4,-0.04,
3200,-0.405,-0.045,
3201,-0.39,-0.03,
3202,-0.395,-0.04,
3203,-0.375,-0.04,
3204,-0.37,-0.03,
3205,-0.375,-0.02,
3206,-0.37,-0.025,
3207,-0.38,-0.05,
3208,-0.39,-0.075,
3209,-0.4,-0.08,
3210,-0.4,-0.065,
3211,-0.41,-0.055,
3212,-0.42,-0.07,
3213,-0.42,-0.075,
3214,-0.425,-0.09,
3215,-0.44,-0.095,
3216,-0.42,-0.085,
3217,-0.385,-0.055,
3218,-0.31,-0.055,
3219,-0.21,-0.075,
3220,-0.06,-0.11,
3221,0.115,-0.135,
3222,0.335,-0.13,
3223,0.59,-0.085,
3224,0.855,-0.02,
3225,1.105,0.065,
3226,1.275,0.18,
3227,1.35,0.305,N
3228,1.27,0.425,
3229,1.07,0.505,
3230,0.775,0.485,
3231,0.44,0.375,
3232,0.13,0.215,
3233,-0.135,0.04,
3234,-0.32,-0.1,
3235,-0.425,-0.17,
3236,-0.445,-0.185,
3237,-0.435,-0.18,
3238,-0.4,-0.125,
3239,-0.365,-0.075,
3240,-0.35,-0.02,
3241,-0.36,-0.01,
3242,-0.395,-0.015,
3243,-0.43,-0.035,
3244,-0.45,-0.08,
3245,-0.475,-0.08,
3246,-0.48,-0.06,
3247,-0.48,-0.045,
3248,-0.47,-0.045,
3249,-0.455,-0.055,
3250,-0.44,-0.065,
3251,-0.445,-0.085,
3252,-0.45,-0.07,
3253,-0.465,-0.05,
3254,-0.465,-0.04,
3255,-0.46,-0.05,
3256,-0.47,-0.08,
3257,-0.475,-0.08,
3258,-0.48,-0.08,
3259,-0.485,-0.07,
3260,-0.485,-0.06,
3261,-0.48,-0.08,
3262,-0.48,-0.065,
3263,-0.46,-0.075,
3264,-0.445,-0.065,
3265,-0.455,-0.06,
3266,-0.45,-0.055,
3267,-0.445,-0.075,
3268,-0.445,-0.095,
3269,-0.455,-0.105,
3270,-0.48,-0.105,
3271,-0.475,-0.09,
3272,-0.47,-0.075,
3273,-0.46,-0.07,
3274,-0.46,-0.095,
3275,-0.45,-0.09,
3276,-0.45,-0.09,
3277,-0.445,-0.08,
3278,-0.435,-0.08,
3279,-0.435,-0.1,
3280,-0.435,-0.115,
3281,-0.425,-0.135,
3282,-0.43,-0.135,
3283,-0.44,-0.11,
3284,-0.435,-0.1,
3285,-0.435,-0.09,
3286,-0.435,-0.105,
3287,-0.42,-0.115,
3288,-0.42,-0.135,
3289,-0.415,-0.12,
3290,-0.415,-0.12,
3291,-0.405,-0.135,
3292,-0.405,-0.145,
3293,-0.4,-0.175,
3294,-0.4,-0.17,
3295,-0.395,-0.16,
3296,-0.385,-0.14,
3297,-0.385,-0.15,
3298,-0.37,-0.15,
3299,-0.37,-0.175,
3300,-0.36,-0.2,
3301,-0.365,-0.19,
3302,-0.37,-0.18,
3303,-0.375,-0.18,
3304,-0.375,-0.185,
3305,-0.37,-0.2,
3306,-0.355,-0.21,
3307,-0.355,-0.2,
3308,-0.34,-0.175,
3309,-0.34,-0.165,
3310,-0.34,-0.145,
3311,-0.33,-0.15,
3312,-0.34,-0.18,
3313,-0.34,-0.19,
3314,-0.355,-0.18,
3315,-0.36,-0.18,
3316,-0.36,-0.185,
3317,-0.365,-0.19,
3318,-0.36,-0.205,
3319,-0.36,-0.21,
3320,-0.36,-0.19,
3321,-0.335,-0.15,
3322,-0.33,-0.145,
3323,-0.31,-0.135,
3324,-0.295,-0.13,
3325,-0.295,-0.135,
3326,-0.285,-0.125,
3327,-0.28,-0.1,
3328,-0.29,-0.09,
3329,-0.295,-0.08,
3330,-0.295,-0.075,
3331,-0.29,-0.08,
3332,-0.28,-0.05,
3333,-0.29,-0.035,
3334,-0.29,-0.005,
3335,-0.275,0.015,
3336,-0.25,0.0,
3337,-0.27,-0.015,
3338,-0.26,-0.02,
3339,-0.27,-0.025,
3340,-0.28,-0.02,
3341,-0.3,-0.025,
3342,-0.315,-0.03,
3343,-0.31,-0.035,
3344,-0.305,-0.04,
3345,-0.3,-0.015,
3346,-0.295,-0.005,
3347,-0.295,-0.005,
3348,-0.285,0.01,
3349,-0.295,-0.01,
3350,-0.295,-0.02,
3351,-0.3,-0.025,
3352,-0.305,-0.01,
3353,-0.31,0.005,
3354,-0.33,-0.005,
3355,-0.33,-0.01,
3356,-0.325,-0.025,
3357,-0.325,-0.035,
3358,-0.325,-0.015,
3359,-0.325,0.0,
3360,-0.305,0.0,
3361,-0.3,-0.005,
3362,-0.29,-0.02,
3363,-0.285,-0.045,
3364,-0.295,-0.035,
3365,-0.31,-0.025,
3366,-0.31,-0.02,
3367,-0.305,-0.02,
3368,-0.3,-0.025,
3369,-0.295,-0.015,
3370,-0.295,-0.015,
3371,-0.29,0.015,
3372,-0.295,0.025,
3373,-0.3,0.01,
3374,-0.285,-0.025,
3375,-0.29,-0.04,
3376,-0.285,-0.035,
3377,-0.3,-0.02,
3378,-0.305,-0.015,
3379,-0.29,-0.005,
3380,-0.29,-0.01,
3381,-0.285,-0.01,
3382,-0.29,0.0,
3383,-0.285,0.02,
3384,-0.29,0.01,
3385,-0.285,-0.005,
3386,-0.285,-0.035,
3387,-0.29,-0.04,
3388,-0.3,-0.035,
3389,-0.3,-0.015,
3390,-0.295,-0.025,
3391,-0.3,-0.02,
3392,-0.305,-0.02,
3393,-0.285,-0.005,
3394,-0.295,0.0,
3395,-0.27,0.025,
3396,-0.27,0.015,
3397,-0.285,0.005,
3398,-0.275,-0.02,
3399,-0.275,-0.02,
3400,-0.295,-0.015,
3401,-0.295,-0.005,
3402,-0.27,-0.005,
3403,-0.265,-0.015,
3404,-0.255,-0.01,
3405,-0.24,0.01,
3406,-0.235,0.05,
3407,-0.215,0.055,
3408,-0.21,0.055,
3409,-0.205,0.05,
3410,-0.19,0.045,
3411,-0.19,0.05,
3412,-0.2,0.05,
3413,-0.17,0.045,
3414,-0.17,0.03,
3415,-0.13,0.015,
3416,-0.11,0.01,
3417,-0.105,0.015,
3418,-0.1,0.055,
3419,-0.11,0.05,
3420,-0.115,0.03,
3421,-0.115,0.005,
3422,-0.125,-0.005,
3423,-0.135,-0.005,
3424,-0.16,-0.015,
3425,-0.18,-0.04,
3426,-0.2,-0.035,
3427,-0.215,-0.035,
3428,-0.24,-0.015,
3429,-0.245,0.015,
3430,-0.245,0.03,
3431,-0.26,0.01,
3432,-0.27,-0.02,
3433,-0.29,-0.025,
3434,-0.31,-0.02,
3435,-0.325,-0.02,
3436,-0.335,-0.035,
3437,-0.345,-0.035,
3438,-0.36,-0.05,
3439,-0.355,-0.045,
3440,-0.355,-0.035,
3441,-0.35,-0.005,
3442,-0.35,-0.005,
3443,-0.33,-0.005,
3444,-0.32,-0.03,
3445,-0.335,-0.04,
3446,-0.33,-0.035,
3447,-0.355,-0.025,
3448,-0.365,-0.035,
3449,-0.38,-0.06,
3450,-0.385,-0.07,
3451,-0.4,-0.085,
3452,-0.39,-0.065,
3453,-0.38,-0.035,
3454,-0.32,-0.015,
3455,-0.235,-0.01,
3456,-0.13,-0.035,
3457,0.04,-0.065,
3458,0.245,-0.08,
3459,0.485,-0.08,
3460,0.745,-0.055,
3461,0.99,0.01,
3462,1.235,0.12,
3463,1.385,0.25,N
3464,1.395,0.4,
3465,1.28,0.505,
3466,1.065,0.55,
3467,0.755,0.505,
3468,0.43,0.385,
3469,0.105,0.23,
3470,-0.12,0.075,
3471,-0.295,-0.045,
3472,-0.395,-0.145,
3473,-0.425,-0.2,
3474,-0.415,-0.195,
3475,-0.39,-0.14,
3476,-0.365,-0.075,
3477,-0.33,-0.025,
3478,-0.32,0.0,
3479,-0.34,-0.005,
3480,-0.355,-0.03,
3481,-0.365,-0.035,
3482,-0.395,-0.045,
3483,-0.405,-0.03,
3484,-0.415,-0.025,
3485,-0.415,-0.035,
3486,-0.435,-0.05,
3487,-0.415,-0.075,
3488,-0.41,-0.06,
3489,-0.415,-0.05,
3490,-0.41,-0.03,
3491,-0.405,-0.025,
3492,-0.4,-0.045,
3493,-0.39,-0.05,
3494,-0.4,-0.055,
3495,-0.4,-0.035,
3496,-0.395,-0.03,
3497,-0.405,-0.05,
3498,-0.415,-0.06,
3499,-0.41,-0.07,
3500,-0.405,-0.06,
3501,-0.415,-0.035,
3502,-0.425,-0.02,
3503,-0.4,-0.015,
3504,-0.395,-0.035,
3505,-0.38,-0.065,
3506,-0.38,-0.07,
3507,-0.39,-0.08,
3508,-0.39,-0.075,
3509,-0.385,-0.07,
3510,-0.385,-0.085,
3511,-0.39,-0.095,
3512,-0.395,-0.08,
3513,-0.4,-0.07,
3514,-0.385,-0.045,
3515,-0.385,-0.05,
3516,-0.37,-0.06,
3517,-0.37,-0.06,
3518,-0.365,-0.065,
3519,-0.385,-0.075,
3520,-0.385,-0.09,
3521,-0.385,-0.095,
3522,-0.375,-0.12,
3523,-0.36,-0.135,
3524,-0.365,-0.115,
3525,-0.35,-0.09,
3526,-0.335,-0.085,
3527,-0.32,-0.08,
3528,-0.315,-0.1,
3529,-0.315,-0.11,
3530,-0.32,-0.115,
3531,-0.325,-0.125,
3532,-0.34,-0.14,
3533,-0.335,-0.145,
3534,-0.33,-0.165,
3535,-0.32,-0.175,
3536,-0.315,-0.16,
3537,-0.305,-0.135,
3538,-0.3,-0.125,
3539,-0.29,-0.115,
3540,-0.28,-0.135,
3541,-0.28,-0.14,
3542,-0.29,-0.145,
3543,-0.3,-0.145,
3544,-0.3,-0.13,
3545,-0.3,-0.15,
3546,-0.3,-0.155,
3547,-0.295,-0.165,
3548,-0.275,-0.16,
3549,-0.285,-0.135,
3550,-0.285,-0.12,
3551,-0.265,-0.12,
3552,-0.27,-0.115,
3553,-0.275,-0.135,
3554,-0.27,-0.135,
3555,-0.27,-0.135,
3556,-0.28,-0.12,
3557,-0.275,-0.135,
3558,-0.27,-0.125,
3559,-0.255,-0.12,
3560,-0.235,-0.09,
3561,-0.22,-0.065,
3562,-0.2,-0.02,
3563,-0.195,-0.005,
3564,-0.17,-0.015,
3565,-0.17,-0.035,
3566,-0.175,-0.035,
3567,-0.19,-0.015,
3568,-0.21,0.0,
3569,-0.205,0.01,
3570,-0.22,-0.005,
3571,-0.195,-0.01,
3572,-0.195,-0.01,
3573,-0.185,0.01,
3574,-0.195,0.035,
3575,-0.19,0.045,
3576,-0.185,0.03,
3577,-0.19,0.025,
3578,-0.19,0.015,
3579,-0.21,0.02,
3580,-0.21,0.04,
3581,-0.235,0.05,
3582,-0.23,0.04,
3583,-0.24,0.035,
3584,-0.235,0.025,
3585,-0.23,0.025,
3586,-0.225,0.04,
3587,-0.225,0.055,
3588,-0.21,0.055,
3589,-0.21,0.045,
3590,-0.205,0.02,
3591,-0.205,-0.005,
3592,-0.21,0.0,
3593,-0.215,0.01,
3594,-0.225,0.025,
3595,-0.22,0.02,
3596,-0.235,0.015,
3597,-0.21,0.01,
3598,-0.205,0.03,
3599,-0.205,0.05,
3600,-0.2,0.06,
3601,-0.2,0.07,
3602,-0.205,0.035,
3603,-0.215,0.025,
3604,-0.205,0.015,
3605,-0.22,0.015,
3606,-0.215,0.025,
3607,-0.21,0.035,
3608,-0.195,0.03,
3609,-0.215,0.025,
3610,-0.195,0.02,
3611,-0.215,0.02,
3612,-0.215,0.035,
3613,-0.21,0.045,
3614,-0.21,0.035,
3615,-0.205,0.015,
3616,-0.215,0.005,
3617,-0.21,0.0,
3618,-0.21,0.02,
3619,-0.205,0.025,
3620,-0.2,0.02,
3621,-0.195,0.04,
3622,-0.195,0.03,
3623,-0.2,0.045,
3624,-0.19,0.045,
3625,-0.2,0.045,
3626,-0.2,0.055,
3627,-0.21,0.03,
3628,-0.22,0.01,
3629,-0.215,-0.005,
3630,-0.225,0.01,
3631,-0.225,0.03,
3632,-0.22,0.035,
3633,-0.205,0.035,
3634,-0.19,0.02,
3635,-0.195,0.02,
3636,-0.185,0.03,
3637,-0.2,0.04,
3638,-0.205,0.05,
3639,-0.215,0.04,
3640,-0.21,0.025,
3641,-0.215,0.01,
3642,-0.225,0.025,
3643,-0.21,0.05,
3644,-0.195,0.075,
3645,-0.18,0.105,
3646,-0.17,0.1,
3647,-0.15,0.095,
3648,-0.14,0.08,
3649,-0.135,0.09,
3650,-0.13,0.095,
3651,-0.135,0.095,
3652,-0.11,0.08,
3653,-0.1,0.05,
3654,-0.08,0.04,
3655,-0.085,0.035,
3656,-0.07,0.045,
3657,-0.08,0.05,
3658,-0.07,0.055,
3659,-0.07,0.04,
3660,-0.065,0.04,
3661,-0.065,0.03,
3662,-0.065,0.03,
3663,-0.085,0.04,
3664,-0.09,0.015,
3665,-0.105,0.0,
3666,-0.14,-0.01,
3667,-0.165,0.0,
3668,-0.185,0.03,
3669,-0.205,0.05,
3670,-0.225,0.045,
3671,-0.23,0.035,
3672,-0.245,0.015,
3673,-0.245,0.02,
3674,-0.27,0.02,
3675,-0.28,0.02,
3676,-0.29,-0.01,
3677,-0.295,-0.025,
3678,-0.315,-0.025,
3679,-0.32,-0.02,
3680,-0.32,-0.01,
3681,-0.31,0.015,
3682,-0.31,0.015,
3683,-0.305,0.005,
3684,-0.305,0.01,
3685,-0.31,0.0,
3686,-0.32,0.005,
3687,-0.305,0.0,
3688,-0.33,-0.025,
3689,-0.34,-0.05,
3690,-0.35,-0.05,
3691,-0.37,-0.05,
3692,-0.375,-0.03,
3693,-0.36,0.005,
3694,-0.315,0.03,
3695,-0.225,0.02,
3696,-0.12,0.01,
3697,0.025,-0.015,
3698,0.22,-0.04,
3699,0.43,-0.055,
3700,0.685,-0.05,
3701,0.94,-0.03,
3702,1.17,0.03,
3703,1.355,0.125,
3704,1.45,0.255,N
3705,1.43,0.365,
3706,1.28,0.45,
3707,1.015,0.46,
3708,0.68,0.395,
3709,0.34,0.29,
3710,0.035,0.15,
3711,-0.18,0.01,
3712,-0.315,-0.09,
3713,-0.385,-0.15,
3714,-0.4,-0.165,
3715,-0.375,-0.13,
3716,-0.34,-0.065,
3717,-0.325,-0.01,
3718,-0.305,0.01,
3719,-0.325,0.01,
3720,-0.345,-0.005,
3721,-0.375,-0.015,
3722,-0.415,-0.015,
3723,-0.44,-0.025,
3724,-0.435,-0.04,
3725,-0.44,-0.04,
3726,-0.44,-0.05,
3727,-0.435,-0.03,
3728,-0.435,-0.005,
3729,-0.435,0.0,
3730,-0.445,0.0,
3731,-0.425,-0.01,
3732,-0.42,-0.015,
3733,-0.42,-0.03,
3734,-0.43,0.0,
3735,-0.435,0.005,
3736,-0.44,-0.02,
3737,-0.445,-0.03,
3738,-0.455,-0.045,
3739,-0.465,-0.04,
3740,-0.465,-0.025,
3741,-0.46,-0.01,
3742,-0.455,-0.02,
3743,-0.435,-0.04,
3744,-0.425,-0.05,
3745,-0.42,-0.035,
3746,-0.425,-0.035,
3747,-0.435,-0.035,
3748,-0.455,-0.05,
3749,-0.46,-0.05,
3750,-0.455,-0.045,
3751,-0.465,-0.04,
3752,-0.465,-0.03,
3753,-0.455,-0.03,
3754,-0.44,-0.045,
3755,-0.43,-0.065,
3756,-0.42,-0.05,
3757,-0.42,-0.045,
3758,-0.41,-0.045,
3759,-0.415,-0.065,
3760,-0.42,-0.09,
3761,-0.41,-0.1,
3762,-0.425,-0.11,
3763,-0.435,-0.09,
3764,-0.43,-0.07,
3765,-0.43,-0.07,
3766,-0.415,-0.085,
3767,-0.415,-0.08,
3768,-0.39,-0.07,
3769,-0.39,-0.09,
3770,-0.395,-0.08,
3771,-0.395,-0.115,
3772,-0.38,-0.14,
3773,-0.39,-0.155,
3774,-0.39,-0.145,
3775,-0.39,-0.135,
3776,-0.385,-0.12,
3777,-0.385,-0.125,
3778,-0.375,-0.13,
3779,-0.37,-0.14,
3780,-0.365,-0.125,
3781,-0.355,-0.125,
3782,-0.355,-0.13,
3783,-0.365,-0.14,
3784,-0.355,-0.15,
3785,-0.35,-0.17,
3786,-0.355,-0.17,
3787,-0.375,-0.155,
3788,-0.37,-0.135,
3789,-0.365,-0.13,
3790,-0.37,-0.145,
3791,-0.36,-0.135,
3792,-0.355,-0.115,
3793,-0.355,-0.105,
3794,-0.36,-0.1,
3795,-0.36,-0.11,
3796,-0.36,-0.125,
3797,-0.37,-0.13,
3798,-0.365,-0.11,
3799,-0.345,-0.08,
3800,-0.34,-0.06,
3801,-0.325,-0.045,
3802,-0.305,-0.05,
3803,-0.285,-0.03,
3804,-0.29,-0.015,
3805,-0.295,0.01,
3806,-0.3,0.015,
3807,-0.305,0.005,
3808,-0.31,-0.005,
3809,-0.32,-0.01,
3810,-0.32,-0.005,
3811,-0.325,0.01,
3812,-0.33,0.03,
3813,-0.32,0.03,
3814,-0.32,0.03,
3815,-0.32,0.05,
3816,-0.315,0.06,
3817,-0.325,0.065,
3818,-0.335,0.055,
3819,-0.345,0.015,
3820,-0.345,0.01,
3821,-0.365,0.005,
3822,-0.365,0.01,
3823,-0.37,0.02,
3824,-0.36,0.025,
3825,-0.345,0.02,
3826,-0.345,0.035,
3827,-0.33,0.05,
3828,-0.335,0.06,
3829,-0.34,0.075,
3830,-0.34,0.05,
3831,-0.35,0.015,
3832,-0.355,0.01,
3833,-0.36,-0.005,
3834,-0.375,0.025,
3835,-0.385,0.03,
3836,-0.37,0.035,
3837,-0.365,0.02,
3838,-0.36,0.02,
3839,-0.35,0.045,
3840,-0.335,0.06,
3841,-0.34,0.055,
3842,-0.34,0.035,
3843,-0.335,0.01,
3844,-0.34,-0.015,
3845,-0.35,-0.005,
3846,-0.37,0.01,
3847,-0.365,0.02,
3848,-0.36,0.02,
3849,-0.365,0.015,
3850,-0.355,0.015,
3851,-0.345,0.035,
3852,-0.345,0.06,
3853,-0.35,0.06,
3854,-0.335,0.04,
3855,-0.335,0.02,
3856,-0.35,0.0,
3857,-0.355,0.005,
3858,-0.365,0.02,
3859,-0.365,0.025,
3860,-0.37,0.035,
3861,-0.355,0.005,
3862,-0.355,0.015,
3863,-0.35,0.03,
3864,-0.345,0.04,
3865,-0.335,0.06,
3866,-0.34,0.035,
3867,-0.34,0.025,
3868,-0.345,0.01,
3869,-0.355,0.02,
3870,-0.365,0.015,
3871,-0.37,0.035,
3872,-0.38,0.02,
3873,-0.365,0.025,
3874,-0.355,0.03,
3875,-0.355,0.05,
3876,-0.325,0.075,
3877,-0.315,0.1,
3878,-0.3,0.095,
3879,-0.295,0.085,
3880,-0.29,0.085,
3881,-0.29,0.07,
3882,-0.295,0.075,
3883,-0.285,0.09,
3884,-0.275,0.09,
3885,-0.255,0.075,
3886,-0.235,0.075,
3887,-0.22,0.085,
3888,-0.195,0.08,
3889,-0.19,0.08,
3890,-0.185,0.055,
3891,-0.195,0.025,
3892,-0.2,0.0,
3893,-0.21,0.005,
3894,-0.22,0.025,
3895,-0.215,0.05,
3896,-0.215,0.04,
3897,-0.22,0.035,
3898,-0.23,0.015,
3899,-0.25,0.015,
3900,-0.275,0.02,
3901,-0.305,0.025,
3902,-0.33,0.035,
3903,-0.34,0.01,
3904,-0.36,0.01,
3905,-0.375,0.01,
3906,-0.395,0.015,
3907,-0.415,0.025,
3908,-0.415,0.025,
3909,-0.415,0.015,
3910,-0.43,0.0,
3911,-0.43,0.01,
3912,-0.43,0.02,
3913,-0.445,0.025,
3914,-0.445,0.015,
3915,-0.45,0.005,
3916,-0.46,-0.005,
3917,-0.47,-0.005,
3918,-0.475,0.005,
3919,-0.48,0.015,
3920,-0.465,0.02,
3921,-0.455,0.015,
3922,-0.475,-0.01,
3923,-0.47,-0.005,
3924,-0.475,0.0,
3925,-0.49,-0.005,
3926,-0.51,-0.005,
3927,-0.48,-0.015,
3928,-0.445,-0.025,
3929,-0.385,-0.015,
3930,-0.31,-0.005,
3931,-0.175,-0.02,
3932,0.01,-0.04,
3933,0.26,-0.06,
3934,0.525,-0.055,
3935,0.79,0.0,
3936,1.04,0.08,
3937,1.235,0.19,
3938,1.335,0.28,N
3939,1.3,0.355,
3940,1.13,0.4,
3941,0.85,0.425,
3942,0.505,0.365,
3943,0.16,0.25,
3944,-0.125,0.12,
3945,-0.325,-0.03,
3946,-0.45,-0.12,
3947,-0.49,-0.155,
3948,-0.485,-0.115,
3949,-0.47,-0.06,
3950,-0.445,-0.01,
3951,-0.44,0.005,
3952,-0.455,0.0,
3953,-0.49,0.0,
3954,-0.52,0.005,
3955,-0.545,0.01,
3956,-0.56,0.015,
3957,-0.57,-0.005,
3958,-0.565,-0.01,
3959,-0.555,0.0,
3960,-0.545,0.015,
3961,-0.53,0.02,
3962,-0.545,0.01,
3963,-0.545,-0.005,
3964,-0.54,-0.025,
3965,-0.55,-0.03,
3966,-0.575,-0.03,
3967,-0.58,-0.005,
3968,-0.58,0.005,
3969,-0.57,0.0,
3970,-0.575,0.0,
3971,-0.555,0.0,
3972,-0.545,-0.005,
3973,-0.54,0.0,
3974,-0.545,-0.015,
3975,-0.535,-0.015,
3976,-0.55,-0.03,
3977,-0.545,-0.035,
3978,-0.555,-0.025,
3979,-0.565,-0.01,
3980,-0.57,0.01,
3981,-0.565,0.0,
3982,-0.55,-0.015,
3983,-0.54,-0.015,
3984,-0.53,-0.01,
3985,-0.54,-0.015,
3986,-0.54,-0.01,
3987,-0.53,-0.025,
3988,-0.525,-0.05,
3989,-0.53,-0.06,
3990,-0.53,-0.06,
3991,-0.545,-0.05,
3992,-0.54,-0.045,
3993,-0.54,-0.07,
3994,-0.53,-0.055,
3995,-0.52,-0.045,
3996,-0.51,-0.035,
3997,-0.515,-0.025,
3998,-0.5,-0.035,
3999,-0.505,-0.06,
4000,-0.495,-0.075,
4001,-0.49,-0.095,
4002,-0.495,-0.08,
4003,-0.495,-0.085,
4004,-0.495,-0.09,
4005,-0.49,-0.095,
4006,-0.495,-0.115,
4007,-0.485,-0.1,
4008,-0.48,-0.085,
4009,-0.465,-0.105,
4010,-0.46,-0.1,
4011,-0.465,-0.13,
4012,-0.46,-0.14,
4013,-0.46,-0.14,
4014,-0.465,-0.13,
4015,-0.455,-0.135,
4016,-0.455,-0.135,
4017,-0.45,-0.14,
4018,-0.445,-0.13,
4019,-0.445,-0.1,
4020,-0.435,-0.085,
4021,-0.44,-0.085,
4022,-0.43,-0.11,
4023,-0.435,-0.125,
4024,-0.45,-0.14,
4025,-0.45,-0.14,
4026,-0.455,-0.12,
4027,-0.47,-0.115,
4028,-0.465,-0.105,
4029,-0.45,-0.1,
4030,-0.425,-0.09,
4031,-0.415,-0.06,
4032,-0.41,-0.04,
4033,-0.4,-0.025,
4034,-0.395,-0.02,
4035,-0.395,-0.035,
4036,-0.4,-0.025,
4037,-0.4,-0.01,
4038,-0.41,0.015,
4039,-0.405,0.03,
4040,-0.415,0.015,
4041,-0.395,0.025,
4042,-0.395,0.045,
4043,-0.395,0.065,
4044,-0.395,0.075,
4045,-0.39,0.055,
4046,-0.39,0.045,
4047,-0.4,0.045,
4048,-0.41,0.04,
4049,-0.415,0.065,
4050,-0.435,0.05,
4051,-0.445,0.04,
4052,-0.41,0.04,
4053,-0.41,0.045,
4054,-0.415,0.06,
4055,-0.425,0.07,
4056,-0.405,0.075,
4057,-0.415,0.06,
4058,-0.415,0.05,
4059,-0.43,0.05,
4060,-0.435,0.05,
4061,-0.445,0.05,
4062,-0.445,0.03,
4063,-0.435,0.015,
4064,-0.43,0.025,
4065,-0.43,0.05,
4066,-0.415,0.065,
4067,-0.41,0.065,
4068,-0.395,0.06,
4069,-0.4,0.05,
4070,-0.4,0.05,
4071,-0.42,0.055,
4072,-0.43,0.06,
4073,-0.445,0.05,
4074,-0.435,0.035,
4075,-0.45,0.015,
4076,-0.435,0.025,
4077,-0.42,0.05,
4078,-0.42,0.055,
4079,-0.42,0.07,
4080,-0.41,0.065,
4081,-0.41,0.045,
4082,-0.415,0.065,
4083,-0.415,0.07,
4084,-0.42,0.075,
4085,-0.425,0.05,
4086,-0.42,0.05,
4087,-0.43,0.03,
4088,-0.425,0.04,
4089,-0.43,0.07,
4090,-0.42,0.075,
4091,-0.4,0.075,
4092,-0.395,0.06,
4093,-0.39,0.04,
4094,-0.39,0.055,
4095,-0.4,0.065,
4096,-0.405,0.04,
4097,-0.425,0.025,
4098,-0.43,0.03,
4099,-0.435,0.04,
4100,-0.44,0.06,
4101,-0.44,0.08,
4102,-0.425,0.085,
4103,-0.41,0.08,
4104,-0.395,0.07,
4105,-0.38,0.08,
4106,-0.37,0.095,
4107,-0.37,0.095,
4108,-0.37,0.1,
4109,-0.365,0.08,
4110,-0.355,0.075,
4111,-0.355,0.1,
4112,-0.35,0.105,
4113,-0.33,0.12,
4114,-0.33,0.115,
4115,-0.305,0.125,
4116,-0.28,0.11,
4117,-0.255,0.115,
4118,-0.235,0.105,
4119,-0.23,0.095,
4120,-0.225,0.06,
4121,-0.235,0.035,
4122,-0.265,0.035,
4123,-0.28,0.04,
4124,-0.265,0.065,
4125,-0.275,0.06,
4126,-0.27,0.04,
4127,-0.27,0.025,
4128,-0.285,0.035,
4129,-0.295,0.05,
4130,-0.33,0.035,
4131,-0.355,0.04,
4132,-0.38,0.03,
4133,-0.4,0.025,
4134,-0.425,0.035,
4135,-0.445,0.045,
4136,-0.46,0.06,
4137,-0.47,0.05,
4138,-0.47,0.045,
4139,-0.47,0.045,
4140,-0.47,0.04,
4141,-0.47,0.065,
4142,-0.465,0.055,
4143,-0.465,0.035,
4144,-0.48,0.02,
4145,-0.485,0.01,
4146,-0.49,0.01,
4147,-0.505,0.035,
4148,-0.51,0.02,
4149,-0.5,0.025,
4150,-0.495,0.005,
4151,-0.495,0.01,
4152,-0.495,0.03,
4153,-0.505,0.03,
4154,-0.51,0.03,
4155,-0.505,0.015,
4156,-0.485,0.0,
4157,-0.44,0.0,
4158,-0.35,-0.005,
4159,-0.24,-0.01,
4160,-0.06,-0.025,
4161,0.15,-0.03,
4162,0.425,-0.02,
4163,0.72,0.045,
4164,1.0,0.17,
4165,1.215,0.29,
4166,1.325,0.43,N
4167,1.285,0.515,
4168,1.125,0.57,
4169,0.83,0.57,
4170,0.475,0.485,
4171,0.12,0.33,
4172,-0.185,0.155,
4173,-0.395,0.0,
4174,-0.52,-0.115,
4175,-0.565,-0.135,
4176,-0.565,-0.08,
4177,-0.525,-0.03,
4178,-0.5,0.025,
4179,-0.47,0.05,
4180,-0.48,0.05,
4181,-0.495,0.04,
4182,-0.525,0.035,
4183,-0.555,0.015,
4184,-0.565,0.025,
4185,-0.57,-0.005,
4186,-0.555,-0.015,
4187,-0.555,-0.005,
4188,-0.545,0.025,
4189,-0.555,0.05,
4190,-0.55,0.04,
4191,-0.56,0.02,
4192,-0.565,0.005,
4193,-0.565,-0.01,
4194,-0.59,0.0,
4195,-0.59,0.02,
4196,-0.57,0.02,
4197,-0.565,0.025,
4198,-0.56,0.01,
4199,-0.55,0.005,
4200,-0.55,0.025,
4201,-0.56,0.03,
4202,-0.56,0.02,
4203,-0.555,0.01,
4204,-0.575,-0.01,
4205,-0.575,-0.015,
4206,-0.57,-0.01,
4207,-0.56,0.01,
4208,-0.545,0.015,
4209,-0.54,0.005,
4210,-0.545,-0.015,
4211,-0.52,-0.02,
4212,-0.52,-0.005,
4213,-0.52,0.0,
4214,-0.525,-0.005,
4215,-0.525,-0.025,
4216,-0.525,-0.045,
4217,-0.525,-0.04,
4218,-0.535,-0.025,
4219,-0.545,-0.015,
4220,-0.54,-0.01,
4221,-0.525,-0.015,
4222,-0.505,-0.015,
4223,-0.495,-0.03,
4224,-0.49,-0.025,
4225,-0.49,-0.035,
4226,-0.49,-0.045,
4227,-0.48,-0.07,
4228,-0.485,-0.08,
4229,-0.485,-0.085,
4230,-0.49,-0.075,
4231,-0.5,-0.06,
4232,-0.485,-0.075,
4233,-0.475,-0.095,
4234,-0.46,-0.095,
4235,-0.455,-0.08,
4236,-0.435,-0.09,
4237,-0.445,-0.07,
4238,-0.435,-0.08,
4239,-0.43,-0.11,
4240,-0.43,-0.125,
4241,-0.435,-0.125,
4242,-0.445,-0.105,
4243,-0.45,-0.11,
4244,-0.46,-0.105,
4245,-0.45,-0.11,
4246,-0.43,-0.105,
4247,-0.415,-0.09,
4248,-0.41,-0.08,
4249,-0.41,-0.085,
4250,-0.405,-0.09,
4251,-0.405,-0.11,
4252,-0.42,-0.12,
4253,-0.425,-0.125,
4254,-0.435,-0.125,
4255,-0.46,-0.11,
4256,-0.45,-0.11,
4257,-0.425,-0.1,
4258,-0.415,-0.1,
4259,-0.385,-0.065,
4260,-0.37,-0.04,
4261,-0.355,-0.02,
4262,-0.36,-0.03,
4263,-0.35,-0.03,
4264,-0.345,-0.025,
4265,-0.355,-0.005,
4266,-0.36,0.01,
4267,-0.37,0.04,
4268,-0.365,0.025,
4269,-0.35,0.03,
4270,-0.345,0.035,
4271,-0.335,0.06,
4272,-0.335,0.075,
4273,-0.33,0.085,
4274,-0.325,0.07,
4275,-0.33,0.05,
4276,-0.34,0.045,
4277,-0.345,0.035,
4278,-0.35,0.05,
4279,-0.375,0.06,
4280,-0.375,0.065,
4281,-0.37,0.065,
4282,-0.37,0.065,
4283,-0.365,0.075,
4284,-0.37,0.095,
4285,-0.365,0.095,
4286,-0.375,0.09,
4287,-0.38,0.06,
4288,-0.375,0.05,
4289,-0.38,0.035,
4290,-0.37,0.055,
4291,-0.38,0.06,
4292,-0.38,0.06,
4293,-0.365,0.06,
4294,-0.355,0.05,
4295,-0.355,0.065,
4296,-0.355,0.07,
4297,-0.365,0.085,
4298,-0.365,0.08,
4299,-0.355,0.055,
4300,-0.36,0.03,
4301,-0.355,0.04,
4302,-0.36,0.06,
4303,-0.36,0.075,
4304,-0.36,0.075,
4305,-0.355,0.075,
4306,-0.355,0.075,
4307,-0.34,0.08,
4308,-0.34,0.09,
4309,-0.345,0.095,
4310,-0.35,0.09,
4311,-0.35,0.075,
4312,-0.355,0.045,
4313,-0.36,0.035,
4314,-0.355,0.05,
4315,-0.355,0.045,
4316,-0.35,0.07,
4317,-0.345,0.06,
4318,-0.34,0.055,
4319,-0.325,0.055,
4320,-0.33,0.075,
4321,-0.335,0.075,
4322,-0.335,0.065,
4323,-0.345,0.055,
4324,-0.34,0.05,
4325,-0.335,0.05,
4326,-0.345,0.05,
4327,-0.345,0.07,
4328,-0.35,0.08,
4329,-0.34,0.07,
4330,-0.33,0.055,
4331,-0.325,0.06,
4332,-0.315,0.075,
4333,-0.325,0.08,
4334,-0.345,0.085,
4335,-0.34,0.07,
4336,-0.335,0.065,
4337,-0.34,0.055,
4338,-0.325,0.085,
4339,-0.315,0.1,
4340,-0.305,0.12,
4341,-0.305,0.12,
4342,-0.275,0.12,
4343,-0.26,0.125,
4344,-0.25,0.14,
4345,-0.24,0.155,
4346,-0.245,0.16,
4347,-0.22,0.15,
4348,-0.205,0.12,
4349,-0.19,0.085,
4350,-0.185,0.075,
4351,-0.17,0.08,
4352,-0.18,0.085,
4353,-0.165,0.085,
4354,-0.165,0.085,
4355,-0.175,0.085,
4356,-0.165,0.085,
4357,-0.16,0.085,
4358,-0.155,0.095,
4359,-0.16,0.08,
4360,-0.18,0.06,
4361,-0.2,0.03,
4362,-0.23,0.035,
4363,-0.25,0.055,
4364,-0.28,0.075,
4365,-0.295,0.07,
4366,-0.31,0.085,
4367,-0.32,0.08,
4368,-0.325,0.075,
4369,-0.345,0.075,
4370,-0.35,0.085,
4371,-0.35,0.065,
4372,-0.36,0.035,
4373,-0.385,0.02,
4374,-0.385,0.01,
4375,-0.39,0.03,
4376,-0.4,0.055,
4377,-0.41,0.05,
4378,-0.405,0.05,
4379,-0.38,0.035,
4380,-0.385,0.04,
4381,-0.375,0.045,
4382,-0.395,0.075,
4383,-0.375,0.06,
4384,-0.38,0.05,
4385,-0.375,0.02,
4386,-0.385,-0.005,
4387,-0.405,-0.005,
4388,-0.43,0.005,
4389,-0.425,0.025,
4390,-0.405,0.03,
4391,-0.35,0.045,
4392,-0.25,0.05,
4393,-0.115,0.035,
4394,0.06,0.045,
4395,0.28,0.035,
4396,0.52,0.02,
4397,0.775,0.045,
4398,1.03,0.105,
4399,1.245,0.22,
4400,1.38,0.355,N
4401,1.415,0.485,
4402,1.315,0.57,
4403,1.12,0.595,
4404,0.82,0.545,
4405,0.48,0.43,
4406,0.145,0.285,
4407,-0.11,0.12,
4408,-0.295,-0.015,
4409,-0.415,-0.105,
4410,-0.47,-0.13,
4411,-0.46,-0.095,
4412,-0.425,-0.025,
4413,-0.385,0.03,
4414,-0.355,0.065,
4415,-0.34,0.065,
4416,-0.345,0.055,
4417,-0.38,0.05,
4418,-0.415,0.05,
4419,-0.44,0.045,
4420,-0.475,0.03,
4421,-0.485,0.025,
4422,-0.48,0.01,
4423,-0.48,0.02,
4424,-0.49,0.035,
4425,-0.47,0.045,
4426,-0.455,0.035,
4427,-0.445,0.035,
4428,-0.44,0.025,
4429,-0.44,0.015,
4430,-0.45,0.035,
4431,-0.45,0.035,
4432,-0.46,0.035,
4433,-0.47,0.02,
4434,-0.47,0.0,
4435,-0.475,0.0,
4436,-0.47,0.01,
4437,-0.46,0.035,
4438,-0.455,0.05,
4439,-0.445,0.055,
4440,-0.435,0.04,
4441,-0.435,0.02,
4442,-0.435,0.015,
4443,-0.455,0.025,
4444,-0.455,0.015,
4445,-0.45,0.0,
4446,-0.475,-0.01,
4447,-0.465,-0.025,
4448,-0.45,-0.015,
4449,-0.45,0.0,
4450,-0.46,0.025,
4451,-0.44,0.02,
4452,-0.425,0.025,
4453,-0.41,0.005,
4454,-0.41,0.005,
4455,-0.415,0.0,
4456,-0.43,0.01,
4457,-0.42,-0.015,
4458,-0.43,-0.03,
4459,-0.425,-0.04,
4460,-0.425,-0.045,
4461,-0.42,-0.045,
4462,-0.415,-0.02,
4463,-0.41,-0.015,
4464,-0.39,-0.01,
4465,-0.39,-0.045,
4466,-0.385,-0.055,
4467,-0.375,-0.055,
4468,-0.38,-0.06,
4469,-0.39,-0.075,
4470,-0.395,-0.08,
4471,-0.4,-0.095,
4472,-0.41,-0.105,
4473,-0.39,-0.095,
4474,-0.38,-0.065,
4475,-0.38,-0.055,
4476,-0.36,-0.055,
4477,-0.36,-0.09,
4478,-0.34,-0.09,
4479,-0.335,-0.1,
4480,-0.34,-0.095,
4481,-0.34,-0.09,
4482,-0.345,-0.08,
4483,-0.35,-0.115,
4484,-0.35,-0.11,
4485,-0.355,-0.105,
4486,-0.345,-0.1,
4487,-0.36,-0.07,
4488,-0.355,-0.08,
4489,-0.36,-0.1,
4490,-0.35,-0.12,
4491,-0.345,-0.11,
4492,-0.345,-0.105,
4493,-0.34,-0.09,
4494,-0.335,-0.085,
4495,-0.335,-0.09,
4496,-0.32,-0.085,
4497,-0.31,-0.07,
4498,-0.315,-0.045,
4499,-0.305,-0.015,
4500,-0.295,0.0,
4501,-0.28,0.02,
4502,-0.27,0.01,
4503,-0.27,0.005,
4504,-0.28,0.005,
4505,-0.275,0.02,
4506,-0.285,0.035,
4507,-0.295,0.03,
4508,-0.275,0.02,
4509,-0.275,0.035,
4510,-0.27,0.04,
4511,-0.25,0.08,
4512,-0.25,0.09,
4513,-0.265,0.11,
4514,-0.255,0.095,
4515,-0.275,0.09,
4516,-0.275,0.06,
4517,-0.29,0.07,
4518,-0.29,0.07,
4519,-0.295,0.08,
4520,-0.3,0.08,
4521,-0.305,0.075,
4522,-0.295,0.075,
4523,-0.28,0.075,
4524,-0.28,0.09,
4525,-0.28,0.09,
4526,-0.275,0.11,
4527,-0.28,0.085,
4528,-0.29,0.065,
4529,-0.3,0.055,
4530,-0.31,0.05,
4531,-0.315,0.075,
4532,-0.31,0.075,
4533,-0.305,0.085,
4534,-0.295,0.06,
4535,-0.285,0.055,
4536,-0.27,0.06,
4537,-0.27,0.065,
4538,-0.27,0.1,
4539,-0.27,0.085,
4540,-0.27,0.075,
4541,-0.28,0.055,
4542,-0.285,0.05,
4543,-0.3,0.055,
4544,-0.305,0.07,
4545,-0.31,0.1,
4546,-0.305,0.09,
4547,-0.285,0.075,
4548,-0.275,0.07,
4549,-0.265,0.06,
4550,-0.26,0.08,
4551,-0.265,0.09,
4552,-0.26,0.085,
4553,-0.265,0.065,
4554,-0.265,0.05,
4555,-0.275,0.05,
4556,-0.29,0.06,
4557,-0.295,0.085,
4558,-0.28,0.09,
4559,-0.275,0.095,
4560,-0.265,0.08,
4561,-0.265,0.08,
4562,-0.265,0.075,
4563,-0.25,0.085,
4564,-0.27,0.065,
4565,-0.27,0.06,
4566,-0.265,0.055,
4567,-0.26,0.04,
4568,-0.27,0.06,
4569,-0.27,0.06,
4570,-0.28,0.075,
4571,-0.275,0.095,
4572,-0.275,0.09,
4573,-0.27,0.065,
4574,-0.27,0.065,
4575,-0.275,0.065,
4576,-0.275,0.075,
4577,-0.29,0.09,
4578,-0.285,0.075,
4579,-0.275,0.07,
4580,-0.27,0.055,
4581,-0.26,0.085,
4582,-0.245,0.11,
4583,-0.23,0.13,
4584,-0.23,0.14,
4585,-0.23,0.14,
4586,-0.225,0.125,
4587,-0.215,0.12,
4588,-0.205,0.125,
4589,-0.21,0.14,
4590,-0.215,0.14,
4591,-0.19,0.125,
4592,-0.17,0.09,
4593,-0.15,0.08,
4594,-0.115,0.075,
4595,-0.11,0.09,
4596,-0.105,0.095,
4597,-0.11,0.09,
4598,-0.11,0.075,
4599,-0.12,0.055,
4600,-0.13,0.05,
4601,-0.13,0.055,
4602,-0.145,0.06,
4603,-0.155,0.065,
4604,-0.15,0.05,
4605,-0.16,0.045,
4606,-0.185,0.035,
4607,-0.2,0.05,
4608,-0.205,0.07,
4609,-0.23,0.08,
4610,-0.245,0.085,
4611,-0.265,0.055,
4612,-0.285,0.05,
4613,-0.315,0.04,
4614,-0.345,0.045,
4615,-0.355,0.05,
4616,-0.37,0.065,
4617,-0.365,0.05,
4618,-0.355,0.04,
4619,-0.35,0.045,
4620,-0.335,0.06,
4621,-0.34,0.06,
4622,-0.36,0.055,
4623,-0.365,0.03,
4624,-0.37,0.005,
4625,-0.38,0.005,
4626,-0.39,0.02,
4627,-0.41,0.035,
4628,-0.405,0.045,
4629,-0.405,0.045,
4630,-0.415,0.035,
4631,-0.42,0.035,
4632,-0.415,0.03,
4633,-0.42,0.03,
4634,-0.405,0.045,
4635,-0.375,0.035,
4636,-0.31,0.03,
4637,-0.22,0.0,
4638,-0.105,-0.015,
4639,0.055,-0.035,
4640,0.275,-0.025,
4641,0.515,-0.015,
4642,0.795,0.015,
4643,1.06,0.1,
4644,1.285,0.185,
4645,1.45,0.28,
4646,1.49,0.39,N
4647,1.395,0.46,
4648,1.19,0.48,
4649,0.89,0.45,
4650,0.55,0.355,
4651,0.21,0.235,
4652,-0.05,0.11,
4653,-0.24,0.005,
4654,-0.35,-0.075,
4655,-0.4,-0.11,
4656,-0.395,-0.1,
4657,-0.39,-0.05,
4658,-0.38,0.01,
4659,-0.37,0.04,
4660,-0.37,0.035,
4661,-0.385,0.02,
4662,-0.415,0.01,
4663,-0.43,-0.005,
4664,-0.46,0.02,
4665,-0.475,0.01,
4666,-0.47,0.015,
4667,-0.465,0.025,
4668,-0.46,0.025,
4669,-0.46,0.045,
4670,-0.46,0.05,
4671,-0.47,0.06,
4672,-0.475,0.045,
4673,-0.48,0.01,
4674,-0.485,-0.005,
4675,-0.48,0.0,
4676,-0.475,0.01,
4677,-0.47,0.03,
4678,-0.46,0.035,
4679,-0.48,0.025,
4680,-0.44,0.01,
4681,-0.445,0.005,
4682,-0.465,0.015,
4683,-0.48,0.02,
4684,-0.475,0.01,
4685,-0.47,-0.005,
4686,-0.47,-0.015,
4687,-0.475,-0.015,
4688,-0.475,-0.02,
4689,-0.46,0.01,
4690,-0.465,0.0,
4691,-0.455,0.0,
4692,-0.45,0.0,
4693,-0.445,0.0,
4694,-0.465,0.02,
4695,-0.465,0.015,
4696,-0.475,-0.02,
4697,-0.48,-0.04,
4698,-0.475,-0.05,
4699,-0.475,-0.06,
4700,-0.46,-0.04,
4701,-0.45,-0.02,
4702,-0.435,-0.045,
4703,-0.43,-0.04,
4704,-0.415,-0.04,
4705,-0.41,-0.035,
4706,-0.42,-0.03,
4707,-0.42,-0.04,
4708,-0.445,-0.06,
4709,-0.44,-0.095,
4710,-0.435,-0.105,
4711,-0.445,-0.1,
4712,-0.43,-0.085,
4713,-0.425,-0.07,
4714,-0.4,-0.09,
4715,-0.39,-0.09,
4716,-0.38,-0.07,
4717,-0.375,-0.075,
4718,-0.38,-0.08,
4719,-0.385,-0.1,
4720,-0.38,-0.12,
4721,-0.38,-0.135,
4722,-0.38,-0.135,
4723,-0.395,-0.12,
4724,-0.395,-0.115,
4725,-0.385,-0.12,
4726,-0.365,-0.125,
4727,-0.355,-0.13,
4728,-0.355,-0.14,
4729,-0.355,-0.12,
4730,-0.36,-0.105,
4731,-0.36,-0.095,
4732,-0.37,-0.125,
4733,-0.37,-0.13,
4734,-0.385,-0.12,
4735,-0.38,-0.09,
4736,-0.375,-0.09,
4737,-0.365,-0.095,
4738,-0.34,-0.095,
4739,-0.335,-0.075,
4740,-0.33,-0.05,
4741,-0.32,-0.035,
4742,-0.305,-0.015,
4743,-0.295,-0.015,
4744,-0.295,-0.025,
4745,-0.31,-0.015,
4746,-0.305,0.005,
4747,-0.315,0.03,
4748,-0.31,0.04,
4749,-0.31,0.04,
4750,-0.315,0.045,
4751,-0.315,0.05,
4752,-0.305,0.075,
4753,-0.315,0.08,
4754,-0.3,0.075,
4755,-0.32,0.055,
4756,-0.32,0.03,
4757,-0.315,0.035,
4758,-0.325,0.03,
4759,-0.335,0.05,
4760,-0.335,0.05,
4761,-0.32,0.06,
4762,-0.31,0.06,
4763,-0.325,0.055,
4764,-0.32,0.06,
4765,-0.315,0.075,
4766,-0.32,0.065,
4767,-0.33,0.035,
4768,-0.335,0.03,
4769,-0.335,0.035,
4770,-0.35,0.045,
4771,-0.36,0.055,
4772,-0.345,0.07,
4773,-0.34,0.065,
4774,-0.33,0.05,
4775,-0.32,0.06,
4776,-0.31,0.075,
4777,-0.315,0.08,
4778,-0.31,0.07,
4779,-0.325,0.055,
4780,-0.325,0.035,
4781,-0.35,0.025,
4782,-0.35,0.035,
4783,-0.35,0.025,
4784,-0.33,0.03,
4785,-0.32,0.035,
4786,-0.31,0.025,
4787,-0.31,0.04,
4788,-0.3,0.06,
4789,-0.31,0.075,
4790,-0.305,0.08,
4791,-0.315,0.055,
4792,-0.31,0.035,
4793,-0.32,0.02,
4794,-0.34,0.01,
4795,-0.34,0.04,
4796,-0.355,0.05,
4797,-0.345,0.05,
4798,-0.33,0.045,
4799,-0.315,0.045,
4800,-0.3,0.045,
4801,-0.295,0.05,
4802,-0.305,0.075,
4803,-0.305,0.06,
4804,-0.315,0.05,
4805,-0.32,0.03,
4806,-0.325,0.03,
4807,-0.335,0.035,
4808,-0.335,0.04,
4809,-0.33,0.05,
4810,-0.32,0.03,
4811,-0.315,0.045,
4812,-0.305,0.05,
4813,-0.3,0.07,
4814,-0.3,0.08,
4815,-0.3,0.08,
4816,-0.31,0.065,
4817,-0.3,0.05,
4818,-0.305,0.055,
4819,-0.295,0.065,
4820,-0.29,0.1,
4821,-0.285,0.13,
4822,-0.275,0.125,
4823,-0.26,0.12,
4824,-0.235,0.105,
4825,-0.225,0.1,
4826,-0.21,0.115,
4827,-0.21,0.105,
4828,-0.195,0.09,
4829,-0.175,0.08,
4830,-0.155,0.05,
4831,-0.15,0.055,
4832,-0.16,0.055,
4833,-0.165,0.055,
4834,-0.17,0.06,
4835,-0.165,0.05,
4836,-0.16,0.06,
4837,-0.16,0.045,
4838,-0.165,0.065,
4839,-0.18,0.07,
4840,-0.18,0.04,
4841,-0.2,0.025,
4842,-0.23,-0.015,
4843,-0.25,0.0,
4844,-0.28,0.01,
4845,-0.3,0.04,
4846,-0.305,0.05,
4847,-0.31,0.045,
4848,-0.325,0.05,
4849,-0.36,0.03,
4850,-0.38,0.04,
4851,-0.38,0.03,
4852,-0.395,0.01,
4853,-0.39,-0.01,
4854,-0.39,-0.015,
4855,-0.4,0.005,
4856,-0.395,0.03,
4857,-0.405,0.025,
4858,-0.405,0.015,
4859,-0.405,0.01,
4860,-0.41,0.02,
4861,-0.41,0.02,
4862,-0.415,0.05,
4863,-0.415,0.05,
4864,-0.425,0.03,
4865,-0.425,-0.015,
4866,-0.445,-0.04,
4867,-0.455,-0.065,
4868,-0.45,-0.04,
4869,-0.44,0.0,
4870,-0.41,0.02,
4871,-0.335,0.02,
4872,-0.245,0.005,
4873,-0.13,-0.025,
4874,0.02,-0.05,
4875,0.215,-0.065,
4876,0.435,-0.05,
4877,0.715,-0.02,
4878,0.99,0.045,
4879,1.24,0.13,
4880,1.375,0.27,N
4881,1.405,0.39,
4882,1.295,0.485,
4883,1.06,0.52,
4884,0.765,0.475,
4885,0.44,0.355,
4886,0.115,0.185,
4887,-0.145,0.05,
4888,-0.335,-0.065,
4889,-0.435,-0.13,
4890,-0.47,-0.155,
4891,-0.465,-0.12,
4892,-0.435,-0.075,
4893,-0.41,-0.015,
4894,-0.385,0.005,
4895,-0.395,0.03,
4896,-0.405,0.01,
4897,-0.43,0.005,
4898,-0.45,-0.01,
4899,-0.48,-0.005,
4900,-0.505,0.01,
4901,-0.505,0.01,
4902,-0.515,0.005,
4903,-0.52,-0.005,
4904,-0.52,-0.01,
4905,-0.52,0.01,
4906,-0.515,0.025,
4907,-0.51,0.025,
4908,-0.505,0.03,
4909,-0.5,-0.01,
4910,-0.49,-0.025,
4911,-0.495,-0.03,
4912,-0.5,-0.02,
4913,-0.505,-0.02,
4914,-0.51,-0.02,
4915,-0.52,-0.02,
4916,-0.515,-0.025,
4917,-0.5,-0.025,
4918,-0.515,-0.01,
4919,-0.515,0.01,
4920,-0.515,0.01,
4921,-0.51,0.01,
4922,-0.475,-0.015,
4923,-0.475,-0.015,
4924,-0.485,-0.015,
4925,-0.49,-0.005,
4926,-0.5,-0.02,
4927,-0.505,-0.03,
4928,-0.5,-0.045,
4929,-0.495,-0.045,
4930,-0.49,-0.03,
4931,-0.475,-0.01,
4932,-0.475,-0.005,
4933,-0.465,-0.025,
4934,-0.46,-0.04,
4935,-0.445,-0.045,
4936,-0.45,-0.055,
4937,-0.45,-0.05,
4938,-0.465,-0.055,
4939,-0.46,-0.07,
4940,-0.455,-0.085,
4941,-0.46,-0.085,
4942,-0.45,-0.06,
4943,-0.44,-0.04,
4944,-0.43,-0.04,
4945,-0.445,-0.05,
4946,-0.425,-0.08,
4947,-0.42,-0.085,
4948,-0.425,-0.115,
4949,-0.42,-0.105,
4950,-0.425,-0.125,
4951,-0.42,-0.125,
4952,-0.425,-0.16,
4953,-0.405,-0.125,
4954,-0.405,-0.12,
4955,-0.4,-0.115,
4956,-0.385,-0.1,
4957,-0.38,-0.11,
4958,-0.38,-0.125,
4959,-0.38,-0.125,
4960,-0.385,-0.13,
4961,-0.385,-0.135,
4962,-0.395,-0.155,
4963,-0.4,-0.16,
4964,-0.385,-0.16,
4965,-0.39,-0.135,
4966,-0.385,-0.115,
4967,-0.375,-0.09,
4968,-0.375,-0.11,
4969,-0.375,-0.125,
4970,-0.375,-0.125,
4971,-0.38,-0.12,
4972,-0.38,-0.105,
4973,-0.38,-0.1,
4974,-0.37,-0.115,
4975,-0.36,-0.105,
4976,-0.36,-0.09,
4977,-0.34,-0.06,
4978,-0.33,-0.04,
4979,-0.32,-0.015,
4980,-0.305,-0.015,
4981,-0.3,-0.01,
4982,-0.31,0.005,
4983,-0.295,0.02,
4984,-0.31,0.025,
4985,-0.325,0.02,
4986,-0.32,0.01,
4987,-0.31,0.005,
4988,-0.3,0.025,
4989,-0.315,0.035,
4990,-0.31,0.05,
4991,-0.305,0.07,
4992,-0.31,0.055,
4993,-0.305,0.045,
4994,-0.315,0.05,
4995,-0.33,0.055,
4996,-0.345,0.06,
4997,-0.345,0.04,
4998,-0.345,0.03,
4999,-0.355,0.02,
5000,-0.34,0.045,
5001,-0.345,0.06,
5002,-0.33,0.065,
5003,-0.33,0.035,
5004,-0.33,0.045,
5005,-0.32,0.035,
5006,-0.33,0.04,
5007,-0.335,0.04,
5008,-0.35,0.035,
5009,-0.35,0.025,
5010,-0.345,0.025,
5011,-0.35,0.03,
5012,-0.345,0.04,
5013,-0.345,0.055,
5014,-0.34,0.045,
5015,-0.32,0.03,
5016,-0.32,0.04,
5017,-0.32,0.035,
5018,-0.33,0.04,
5019,-0.34,0.04,
5020,-0.335,0.025,
5021,-0.33,0.015,
5022,-0.34,0.01,
5023,-0.345,0.025,
5024,-0.355,0.05,
5025,-0.34,0.05,
5026,-0.33,0.04,
5027,-0.325,0.045,
5028,-0.32,0.04,
5029,-0.325,0.06,
5030,-0.32,0.05,
5031,-0.32,0.04,
5032,-0.33,0.02,
5033,-0.32,0.01,
5034,-0.335,0.015,
5035,-0.34,0.025,
5036,-0.35,0.02,
5037,-0.345,0.03,
5038,-0.33,0.02,
5039,-0.31,0.03,
5040,-0.32,0.065,
5041,-0.315,0.07,
5042,-0.32,0.06,
5043,-0.335,0.045,
5044,-0.34,0.04,
5045,-0.33,0.04,
5046,-0.335,0.055,
5047,-0.34,0.065,
5048,-0.32,0.07,
5049,-0.305,0.065,
5050,-0.285,0.075,
5051,-0.265,0.095,
5052,-0.24,0.105,
5053,-0.23,0.11,
5054,-0.24,0.085,
5055,-0.225,0.085,
5056,-0.23,0.075,
5057,-0.23,0.07,
5058,-0.21,0.08,
5059,-0.195,0.06,
5060,-0.165,0.035,
5061,-0.17,0.025,
5062,-0.165,0.05,
5063,-0.16,0.07,
5064,-0.155,0.065,
5065,-0.165,0.055,
5066,-0.17,0.05,
5067,-0.18,0.03,
5068,-0.195,0.015,
5069,-0.23,0.005,
5070,-0.235,0.01,
5071,-0.26,-0.005,
5072,-0.29,-0.005,
5073,-0.305,0.0,
5074,-0.31,0.015,
5075,-0.315,0.04,
5076,-0.32,0.055,
5077,-0.325,0.035,
5078,-0.345,0.015,
5079,-0.35,0.01,
5080,-0.38,0.02,
5081,-0.38,0.025,
5082,-0.4,0.02,
5083,-0.405,0.0,
5084,-0.41,-0.005,
5085,-0.41,0.0,
5086,-0.415,0.02,
5087,-0.41,0.03,
5088,-0.395,0.035,
5089,-0.385,0.015,
5090,-0.38,0.01,
5091,-0.38,0.01,
5092,-0.39,0.015,
5093,-0.405,0.005,
5094,-0.42,-0.025,
5095,-0.445,-0.045,
5096,-0.455,-0.065,
5097,-0.445,-0.035,
5098,-0.41,0.0,
5099,-0.34,0.015,
5100,-0.245,0.02,
5101,-0.08,-0.03,
5102,0.105,-0.07,
5103,0.325,-0.09,
5104,0.585,-0.03,
5105,0.82,0.045,
5106,1.06,0.145,
5107,1.245,0.26,
5108,1.315,0.375,N
5109,1.285,0.495,
5110,1.105,0.58,
5111,0.83,0.585,
5112,0.5,0.5,
5113,0.195,0.325,
5114,-0.07,0.15,
5115,-0.27,-0.015,
5116,-0.4,-0.115,
5117,-0.45,-0.14,
5118,-0.455,-0.125,
5119,-0.42,-0.08,
5120,-0.385,-0.03,
5121,-0.375,0.02,
5122,-0.375,0.045,
5123,-0.405,0.065,
5124,-0.43,0.05,
5125,-0.45,0.025,
5126,-0.45,0.005,
5127,-0.46,-0.005,
5128,-0.48,-0.005,
5129,-0.48,0.005,
5130,-0.48,-0.005,
5131,-0.47,-0.03,
5132,-0.47,-0.02,
5133,-0.46,-0.015,
5134,-0.475,0.0,
5135,-0.47,0.015,
5136,-0.455,0.015,
5137,-0.445,-0.01,
5138,-0.45,-0.01,
5139,-0.45,-0.015,
5140,-0.46,-0.005,
5141,-0.455,-0.01,
5142,-0.46,-0.02,
5143,-0.475,-0.035,
5144,-0.465,-0.035,
5145,-0.465,-0.015,
5146,-0.45,0.0,
5147,-0.445,0.015,
5148,-0.45,0.005,
5149,-0.435,0.005,
5150,-0.435,-0.01,
5151,-0.435,-0.015,
5152,-0.435,-0.01,
5153,-0.445,-0.025,
5154,-0.44,-0.025,
5155,-0.435,-0.05,
5156,-0.42,-0.07,
5157,-0.43,-0.07,
5158,-0.435,-0.045,
5159,-0.42,-0.025,
5160,-0.425,-0.02,
5161,-0.42,-0.05,
5162,-0.425,-0.055,
5163,-0.425,-0.055,
5164,-0.43,-0.045,
5165,-0.44,-0.04,
5166,-0.43,-0.045,
5167,-0.425,-0.075,
5168,-0.41,-0.085,
5169,-0.42,-0.09,
5170,-0.41,-0.08,
5171,-0.405,-0.065,
5172,-0.395,-0.07,
5173,-0.38,-0.08,
5174,-0.385,-0.09,
5175,-0.38,-0.11,
5176,-0.385,-0.11,
5177,-0.38,-0.115,
5178,-0.4,-0.11,
5179,-0.4,-0.13,
5180,-0.38,-0.15,
5181,-0.37,-0.15,
5182,-0.375,-0.13,
5183,-0.35,-0.105,
5184,-0.355,-0.09,
5185,-0.345,-0.1,
5186,-0.345,-0.125,
5187,-0.35,-0.15,
5188,-0.36,-0.135,
5189,-0.38,-0.145,
5190,-0.385,-0.14,
5191,-0.375,-0.145,
5192,-0.37,-0.145,
5193,-0.355,-0.15,
5194,-0.35,-0.14,
5195,-0.34,-0.115,
5196,-0.325,-0.1,
5197,-0.335,-0.08,
5198,-0.32,-0.105,
5199,-0.32,-0.12,
5200,-0.345,-0.13,
5201,-0.345,-0.12,
5202,-0.35,-0.095,
5203,-0.345,-0.08,
5204,-0.33,-0.07,
5205,-0.325,-0.085,
5206,-0.31,-0.055,
5207,-0.295,-0.04,
5208,-0.3,-0.02,
5209,-0.27,0.0,
5210,-0.265,-0.01,
5211,-0.255,0.0,
5212,-0.26,-0.005,
5213,-0.265,0.03,
5214,-0.275,0.035,
5215,-0.285,0.04,
5216,-0.29,0.025,
5217,-0.295,0.025,
5218,-0.3,0.015,
5219,-0.305,0.035,
5220,-0.305,0.05,
5221,-0.28,0.07,
5222,-0.29,0.07,
5223,-0.28,0.045,
5224,-0.28,0.03,
5225,-0.295,0.025,
5226,-0.3,0.04,
5227,-0.305,0.055,
5228,-0.315,0.055,
5229,-0.31,0.05,
5230,-0.305,0.05,
5231,-0.31,0.07,
5232,-0.3,0.075,
5233,-0.295,0.07,
5234,-0.295,0.055,
5235,-0.29,0.04,
5236,-0.29,0.03,
5237,-0.295,0.035,
5238,-0.295,0.035,
5239,-0.3,0.055,
5240,-0.31,0.045,
5241,-0.295,0.04,
5242,-0.31,0.03,
5243,-0.295,0.04,
5244,-0.29,0.065,
5245,-0.27,0.065,
5246,-0.285,0.05,
5247,-0.295,0.055,
5248,-0.31,0.055,
5249,-0.305,0.055,
5250,-0.295,0.07,
5251,-0.305,0.055,
5252,-0.3,0.03,
5253,-0.295,0.02,
5254,-0.29,0.025,
5255,-0.295,0.045,
5256,-0.29,0.07,
5257,-0.29,0.065,
5258,-0.29,0.06,
5259,-0.295,0.06,
5260,-0.295,0.045,
5261,-0.295,0.04,
5262,-0.3,0.05,
5263,-0.295,0.03,
5264,-0.29,0.03,
5265,-0.29,0.025,
5266,-0.285,0.04,
5267,-0.29,0.05,
5268,-0.3,0.065,
5269,-0.295,0.065,
5270,-0.305,0.045,
5271,-0.295,0.05,
5272,-0.295,0.055,
5273,-0.305,0.05,
5274,-0.295,0.06,
5275,-0.3,0.04,
5276,-0.285,0.04,
5277,-0.28,0.04,
5278,-0.27,0.06,
5279,-0.27,0.095,
5280,-0.26,0.105,
5281,-0.25,0.105,
5282,-0.245,0.095,
5283,-0.225,0.09,
5284,-0.225,0.09,
5285,-0.21,0.105,
5286,-0.205,0.105,
5287,-0.2,0.08,
5288,-0.175,0.06,
5289,-0.16,0.06,
5290,-0.145,0.08,
5291,-0.13,0.08,
5292,-0.115,0.085,
5293,-0.11,0.065,
5294,-0.11,0.06,
5295,-0.125,0.045,
5296,-0.135,0.05,
5297,-0.135,0.05,
5298,-0.15,0.035,
5299,-0.145,0.02,
5300,-0.16,-0.005,
5301,-0.18,-0.005,
5302,-0.195,0.015,
5303,-0.225,0.03,
5304,-0.24,0.05,
5305,-0.255,0.03,
5306,-0.275,0.03,
5307,-0.295,0.03,
5308,-0.315,0.04,
5309,-0.33,0.05,
5310,-0.35,0.025,
5311,-0.36,0.015,
5312,-0.365,0.005,
5313,-0.36,0.01,
5314,-0.345,0.03,
5315,-0.35,0.05,
5316,-0.335,0.055,
5317,-0.345,0.03,
5318,-0.35,0.03,
5319,-0.355,0.025,
5320,-0.375,0.015,
5321,-0.385,0.02,
5322,-0.38,0.005,
5323,-0.385,-0.005,
5324,-0.395,-0.005,
5325,-0.395,-0.01,
5326,-0.4,0.0,
5327,-0.4,0.005,
5328,-0.375,0.015,
5329,-0.345,0.015,
5330,-0.28,0.015,
5331,-0.195,-0.005,
5332,-0.065,-0.02,
5333,0.12,-0.05,
5334,0.33,-0.07,
5335,0.585,-0.035,
5336,0.86,0.035,
5337,1.12,0.18,
5338,1.31,0.32,
5339,1.4,0.465,N
5340,1.35,0.575,
5341,1.18,0.615,
5342,0.885,0.61,
5343,0.55,0.505,
5344,0.205,0.36,
5345,-0.095,0.155,
5346,-0.3,-0.015,
5347,-0.415,-0.14,
5348,-0.46,-0.16,
5349,-0.455,-0.13,
5350,-0.415,-0.045,
5351,-0.355,0.025,
5352,-0.325,0.045,
5353,-0.31,0.06,
5354,-0.355,0.05,
5355,-0.385,0.035,
5356,-0.41,0.025,
5357,-0.435,0.015,
5358,-0.445,0.0,
5359,-0.455,-0.03,
5360,-0.465,-0.02,
5361,-0.455,0.0,
5362,-0.445,0.015,
5363,-0.435,0.03,
5364,-0.44,0.025,
5365,-0.42,0.02,
5366,-0.415,0.015,
5367,-0.425,0.01,
5368,-0.425,0.01,
5369,-0.435,0.005,
5370,-0.44,-0.01,
5371,-0.445,-0.025,
5372,-0.45,-0.015,
5373,-0.47,0.0,
5374,-0.455,0.005,
5375,-0.445,0.015,
5376,-0.455,0.025,
5377,-0.435,0.005,
5378,-0.43,-0.01,
5379,-0.425,-0.01,
5380,-0.43,-0.005,
5381,-0.425,0.0,
5382,-0.43,-0.015,
5383,-0.435,-0.03,
5384,-0.44,-0.04,
5385,-0.43,-0.025,
5386,-0.43,0.0,
5387,-0.44,0.0,
5388,-0.43,0.01,
5389,-0.415,-0.005,
5390,-0.41,-0.04,
5391,-0.405,-0.055,
5392,-0.415,-0.055,
5393,-0.42,-0.045,
5394,-0.43,-0.04,
5395,-0.425,-0.045,
5396,-0.4,-0.065,
5397,-0.405,-0.055,
5398,-0.4,-0.06,
5399,-0.405,-0.035,
5400,-0.4,-0.02,
5401,-0.385,-0.04,
5402,-0.375,-0.045,
5403,-0.39,-0.075,
5404,-0.375,-0.095,
5405,-0.38,-0.09,
5406,-0.385,-0.095,
5407,-0.38,-0.11,
5408,-0.37,-0.12,
5409,-0.365,-0.115,
5410,-0.35,-0.105,
5411,-0.355,-0.08,
5412,-0.35,-0.075,
5413,-0.35,-0.085,
5414,-0.355,-0.125,
5415,-0.345,-0.14,
5416,-0.345,-0.13,
5417,-0.37,-0.135,
5418,-0.355,-0.11,
5419,-0.36,-0.125,
5420,-0.355,-0.13,
5421,-0.345,-0.135,
5422,-0.325,-0.125,
5423,-0.325,-0.105,
5424,-0.33,-0.095,
5425,-0.32,-0.1,
5426,-0.32,-0.11,
5427,-0.33,-0.135,
5428,-0.335,-0.14,
5429,-0.335,-0.125,
5430,-0.355,-0.115,
5431,-0.35,-0.11,
5432,-0.34,-0.115,
5433,-0.325,-0.105,
5434,-0.305,-0.095,
5435,-0.295,-0.065,
5436,-0.275,-0.03,
5437,-0.26,-0.02,
5438,-0.25,-0.03,
5439,-0.265,-0.025,
5440,-0.265,-0.03,
5441,-0.255,-0.005,
5442,-0.265,0.025,
5443,-0.28,0.025,
5444,-0.275,0.015,
5445,-0.285,0.02,
5446,-0.285,0.03,
5447,-0.28,0.04,
5448,-0.27,0.065,
5449,-0.26,0.065,
5450,-0.27,0.07,
5451,-0.26,0.055,
5452,-0.265,0.05,
5453,-0.275,0.055,
5454,-0.285,0.065,
5455,-0.29,0.065,
5456,-0.3,0.07,
5457,-0.295,0.055,
5458,-0.285,0.05,
5459,-0.275,0.06,
5460,-0.27,0.09,
5461,-0.265,0.095,
5462,-0.265,0.085,
5463,-0.27,0.065,
5464,-0.285,0.04,
5465,-0.31,0.035,
5466,-0.315,0.035,
5467,-0.325,0.05,
5468,-0.315,0.05,
5469,-0.31,0.05,
5470,-0.295,0.045,
5471,-0.285,0.075,
5472,-0.28,0.075,
5473,-0.275,0.09,
5474,-0.29,0.09,
5475,-0.28,0.065,
5476,-0.28,0.035,
5477,-0.285,0.025,
5478,-0.285,0.025,
5479,-0.29,0.055,
5480,-0.31,0.065,
5481,-0.31,0.065,
5482,-0.305,0.055,
5483,-0.28,0.045,
5484,-0.285,0.04,
5485,-0.285,0.06,
5486,-0.28,0.06,
5487,-0.28,0.07,
5488,-0.28,0.05,
5489,-0.27,0.04,
5490,-0.275,0.03,
5491,-0.285,0.03,
5492,-0.29,0.055,
5493,-0.29,0.055,
5494,-0.295,0.05,
5495,-0.295,0.045,
5496,-0.28,0.04,
5497,-0.28,0.055,
5498,-0.305,0.07,
5499,-0.29,0.085,
5500,-0.295,0.07,
5501,-0.29,0.05,
5502,-0.29,0.03,
5503,-0.29,0.04,
5504,-0.29,0.05,
5505,-0.285,0.075,
5506,-0.29,0.08,
5507,-0.29,0.07,
5508,-0.28,0.07,
5509,-0.27,0.06,
5510,-0.275,0.065,
5511,-0.28,0.08,
5512,-0.28,0.075,
5513,-0.275,0.08,
5514,-0.27,0.06,
5515,-0.255,0.065,
5516,-0.25,0.09,
5517,-0.24,0.105,
5518,-0.225,0.135,
5519,-0.205,0.135,
5520,-0.195,0.12,
5521,-0.185,0.12,
5522,-0.185,0.115,
5523,-0.18,0.115,
5524,-0.17,0.12,
5525,-0.15,0.1,
5526,-0.14,0.08,
5527,-0.135,0.06,
5528,-0.14,0.06,
5529,-0.15,0.07,
5530,-0.14,0.08,
5531,-0.145,0.08,
5532,-0.145,0.065,
5533,-0.13,0.055,
5534,-0.14,0.055,
5535,-0.16,0.05,
5536,-0.19,0.04,
5537,-0.22,0.04,
5538,-0.25,0.02,
5539,-0.27,0.015,
5540,-0.28,0.04,
5541,-0.3,0.07,
5542,-0.31,0.08,
5543,-0.305,0.075,
5544,-0.31,0.07,
5545,-0.31,0.065,
5546,-0.325,0.075,
5547,-0.34,0.065,
5548,-0.36,0.06,
5549,-0.37,0.04,
5550,-0.37,0.03,
5551,-0.375,0.015,
5552,-0.38,0.02,
5553,-0.4,0.05,
5554,-0.39,0.045,
5555,-0.39,0.035,
5556,-0.375,0.045,
5557,-0.35,0.045,
5558,-0.36,0.06,
5559,-0.365,0.055,
5560,-0.385,0.025,
5561,-0.42,0.0,
5562,-0.435,-0.01,
5563,-0.42,0.005,
5564,-0.38,0.02,
5565,-0.285,0.015,
5566,-0.145,0.0,
5567,0.06,-0.02,
5568,0.31,-0.015,
5569,0.605,0.035,
5570,0.915,0.125,
5571,1.18,0.23,
5572,1.35,0.365,N
5573,1.385,0.495,
5574,1.23,0.59,
5575,0.965,0.615,
5576,0.6,0.53,
5577,0.22,0.37,
5578,-0.09,0.185,
5579,-0.32,0.05,
5580,-0.425,-0.055,
5581,-0.46,-0.09,
5582,-0.445,-0.075,
5583,-0.405,-0.04,
5584,-0.37,0.005,
5585,-0.37,0.065,
5586,-0.375,0.08,
5587,-0.415,0.08,
5588,-0.445,0.06,
5589,-0.46,0.025,
5590,-0.465,0.015,
5591,-0.47,0.035,
5592,-0.475,0.045,
5593,-0.46,0.045,
5594,-0.44,0.03,
5595,-0.435,0.02,
5596,-0.45,0.01,
5597,-0.47,0.035,
5598,-0.47,0.04,
5599,-0.475,0.03,
5600,-0.485,0.01,
5601,-0.475,0.015,
5602,-0.47,0.025,
5603,-0.46,0.04,
5604,-0.455,0.055,
5605,-0.445,0.035,
5606,-0.435,0.025,
5607,-0.44,0.025,
5608,-0.44,0.035,
5609,-0.455,0.045,
5610,-0.455,0.02,
5611,-0.46,0.0,
5612,-0.455,-0.02,
5613,-0.46,-0.02,
5614,-0.47,0.005,
5615,-0.46,0.01,
5616,-0.435,0.025,
5617,-0.425,0.01,
5618,-0.43,0.0,
5619,-0.42,0.015,
5620,-0.42,0.0,
5621,-0.425,-0.005,
5622,-0.43,-0.015,
5623,-0.45,-0.04,
5624,-0.445,-0.05,
5625,-0.45,-0.045,
5626,-0.435,-0.015,
5627,-0.42,-0.005,
5628,-0.405,-0.005,
5629,-0.39,-0.025,
5630,-0.4,-0.04,
5631,-0.4,-0.04,
5632,-0.395,-0.045,
5633,-0.395,-0.04,
5634,-0.39,-0.065,
5635,-0.385,-0.07,
5636,-0.39,-0.085,
5637,-0.385,-0.1,
5638,-0.37,-0.08,
5639,-0.365,-0.075,
5640,-0.365,-0.065,
5641,-0.36,-0.09,
5642,-0.37,-0.075,
5643,-0.365,-0.085,
5644,-0.365,-0.07,
5645,-0.37,-0.08,
5646,-0.365,-0.09,
5647,-0.36,-0.125,
5648,-0.355,-0.13,
5649,-0.355,-0.11,
5650,-0.345,-0.09,
5651,-0.335,-0.07,
5652,-0.325,-0.07,
5653,-0.325,-0.085,
5654,-0.325,-0.095,
5655,-0.345,-0.1,
5656,-0.345,-0.095,
5657,-0.36,-0.09,
5658,-0.35,-0.095,
5659,-0.355,-0.105,
5660,-0.36,-0.105,
5661,-0.33,-0.09,
5662,-0.32,-0.075,
5663,-0.315,-0.04,
5664,-0.3,-0.025,
5665,-0.29,-0.035,
5666,-0.29,-0.035,
5667,-0.285,-0.02,
5668,-0.28,0.01,
5669,-0.285,0.025,
5670,-0.285,0.035,
5671,-0.285,0.025,
5672,-0.285,0.025,
5673,-0.28,0.02,
5674,-0.27,0.025,
5675,-0.26,0.05,
5676,-0.265,0.06,
5677,-0.245,0.07,
5678,-0.25,0.08,
5679,-0.265,0.07,
5680,-0.27,0.07,
5681,-0.285,0.085,
5682,-0.295,0.085,
5683,-0.3,0.065,
5684,-0.305,0.06,
5685,-0.31,0.055,
5686,-0.3,0.08,
5687,-0.29,0.11,
5688,-0.285,0.13,
5689,-0.275,0.115,
5690,-0.275,0.1,
5691,-0.275,0.09,
5692,-0.28,0.08,
5693,-0.29,0.08,
5694,-0.31,0.095,
5695,-0.31,0.07,
5696,-0.315,0.075,
5697,-0.32,0.06,
5698,-0.325,0.06,
5699,-0.32,0.075,
5700,-0.295,0.08,
5701,-0.28,0.09,
5702,-0.27,0.075,
5703,-0.27,0.07,
5704,-0.29,0.075,
5705,-0.29,0.08,
5706,-0.29,0.09,
5707,-0.31,0.09,
5708,-0.305,0.075,
5709,-0.31,0.07,
5710,-0.305,0.065,
5711,-0.3,0.085,
5712,-0.3,0.11,
5713,-0.29,0.11,
5714,-0.28,0.095,
5715,-0.265,0.09,
5716,-0.26,0.075,
5717,-0.27,0.075,
5718,-0.285,0.08,
5719,-0.295,0.07,
5720,-0.29,0.07,
5721,-0.285,0.065,
5722,-0.29,0.075,
5723,-0.285,0.085,
5724,-0.285,0.115,
5725,-0.285,0.125,
5726,-0.285,0.095,
5727,-0.29,0.075,
5728,-0.28,0.075,
5729,-0.28,0.065,
5730,-0.285,0.085,
5731,-0.3,0.09,
5732,-0.285,0.075,
5733,-0.295,0.08,
5734,-0.295,0.07,
5735,-0.285,0.085,
5736,-0.295,0.11,
5737,-0.29,0.11,
5738,-0.28,0.11,
5739,-0.265,0.1,
5740,-0.255,0.08,
5741,-0.255,0.09,
5742,-0.25,0.115,
5743,-0.245,0.13,
5744,-0.235,0.14,
5745,-0.215,0.13,
5746,-0.195,0.115,
5747,-0.19,0.12,
5748,-0.19,0.145,
5749,-0.18,0.16,
5750,-0.17,0.175,
5751,-0.17,0.155,
5752,-0.15,0.125,
5753,-0.14,0.11,
5754,-0.14,0.105,
5755,-0.125,0.095,
5756,-0.12,0.11,
5757,-0.11,0.105,
5758,-0.105,0.1,
5759,-0.115,0.085,
5760,-0.115,0.1,
5761,-0.115,0.105,
5762,-0.13,0.1,
5763,-0.14,0.075,
5764,-0.15,0.055,
5765,-0.175,0.035,
5766,-0.19,0.03,
5767,-0.215,0.055,
5768,-0.22,0.08,
5769,-0.245,0.09,
5770,-0.24,0.09,
5771,-0.26,0.08,
5772,-0.265,0.085,
5773,-0.275,0.105,
5774,-0.295,0.105,
5775,-0.31,0.095,
5776,-0.34,0.08,
5777,-0.34,0.055,
5778,-0.33,0.055,
5779,-0.34,0.06,
5780,-0.365,0.065,
5781,-0.365,0.08,
5782,-0.35,0.075,
5783,-0.335,0.065,
5784,-0.32,0.06,
5785,-0.315,0.07,
5786,-0.305,0.08,
5787,-0.31,0.075,
5788,-0.32,0.075,
5789,-0.33,0.05,
5790,-0.345,0.03,
5791,-0.37,0.025,
5792,-0.385,0.02,
5793,-0.4,0.035,
5794,-0.38,0.045,
5795,-0.35,0.04,
5796,-0.26,0.04,
5797,-0.145,0.045,
5798,0.005,0.03,
5799,0.205,0.02,
5800,0.435,0.0,
5801,0.695,0.015,
5802,0.95,0.095,
5803,1.17,0.195,
5804,1.325,0.35,
5805,1.375,0.51,N
5806,1.29,0.64,
5807,1.095,0.69,
5808,0.805,0.665,
5809,0.49,0.56,
5810,0.16,0.4,
5811,-0.095,0.23,
5812,-0.27,0.07,
5813,-0.375,-0.045,
5814,-0.43,-0.09,
5815,-0.42,-0.08,
5816,-0.38,-0.025,
5817,-0.335,0.03,
5818,-0.31,0.06,
5819,-0.305,0.065,
5820,-0.31,0.06,
5821,-0.32,0.06,
5822,-0.35,0.065,
5823,-0.37,0.065,
5824,-0.38,0.06,
5825,-0.385,0.04,
5826,-0.385,0.03,
5827,-0.38,0.02,
5828,-0.39,0.03,
5829,-0.4,0.07,
5830,-0.41,0.06,
5831,-0.405,0.055,
5832,-0.405,0.05,
5833,-0.385,0.065,
5834,-0.39,0.07,
5835,-0.37,0.07,
5836,-0.385,0.055,
5837,-0.375,0.025,
5838,-0.39,0.01,
5839,-0.375,0.0,
5840,-0.385,0.03,
5841,-0.38,0.035,
5842,-0.375,0.035,
5843,-0.365,0.025,
5844,-0.355,0.035,
5845,-0.35,0.05,
5846,-0.355,0.05,
5847,-0.355,0.055,
5848,-0.355,0.035,
5849,-0.36,0.025,
5850,-0.355,0.02,
5851,-0.365,0.035,
5852,-0.365,0.03,
5853,-0.36,0.04,
5854,-0.36,0.025,
5855,-0.345,0.02,
5856,-0.35,0.015,
5857,-0.34,0.015,
5858,-0.34,0.01,
5859,-0.355,0.025,
5860,-0.34,0.0,
5861,-0.335,-0.025,
5862,-0.335,-0.025,
5863,-0.34,-0.025,
5864,-0.33,-0.015,
5865,-0.32,-0.01,
5866,-0.31,-0.025,
5867,-0.305,-0.03,
5868,-0.3,-0.03,
5869,-0.295,-0.015,
5870,-0.3,-0.01,
5871,-0.29,-0.015,
5872,-0.295,-0.04,
5873,-0.285,-0.065,
5874,-0.28,-0.07,
5875,-0.29,-0.075,
5876,-0.285,-0.065,
5877,-0.27,-0.05,
5878,-0.265,-0.07,
5879,-0.265,-0.075,
5880,-0.26,-0.075,
5881,-0.265,-0.07,
5882,-0.265,-0.045,
5883,-0.255,-0.045,
5884,-0.26,-0.065,
5885,-0.26,-0.09,
5886,-0.255,-0.11,
5887,-0.26,-0.09,
5888,-0.265,-0.08,
5889,-0.275,-0.06,
5890,-0.26,-0.08,
5891,-0.255,-0.09,
5892,-0.245,-0.08,
5893,-0.24,-0.065,
5894,-0.225,-0.055,
5895,-0.235,-0.035,
5896,-0.235,-0.05,
5897,-0.225,-0.055,
5898,-0.215,-0.055,
5899,-0.21,-0.035,
5900,-0.21,-0.01,
5901,-0.195,0.005,
5902,-0.175,0.015,
5903,-0.155,0.025,
5904,-0.14,0.04,
5905,-0.13,0.07,
5906,-0.135,0.095,
5907,-0.135,0.1,
5908,-0.135,0.075,
5909,-0.13,0.065,
5910,-0.145,0.055,
5911,-0.15,0.065,
5912,-0.17,0.08,
5913,-0.17,0.095,
5914,-0.17,0.105,
5915,-0.165,0.105,
5916,-0.155,0.115,
5917,-0.16,0.13,
5918,-0.155,0.145,
5919,-0.165,0.145,
5920,-0.165,0.11,
5921,-0.165,0.085,
5922,-0.175,0.085,
5923,-0.19,0.09,
5924,-0.18,0.095,
5925,-0.185,0.105,
5926,-0.19,0.105,
5927,-0.165,0.09,
5928,-0.145,0.09,
5929,-0.125,0.1,
5930,-0.135,0.125,
5931,-0.125,0.11,
5932,-0.135,0.095,
5933,-0.145,0.08,
5934,-0.145,0.06,
5935,-0.16,0.07,
5936,-0.165,0.085,
5937,-0.18,0.125,
5938,-0.165,0.14,
5939,-0.165,0.13,
5940,-0.155,0.12,
5941,-0.15,0.115,
5942,-0.145,0.11,
5943,-0.15,0.105,
5944,-0.14,0.105,
5945,-0.125,0.1,
5946,-0.135,0.07,
5947,-0.14,0.075,
5948,-0.155,0.095,
5949,-0.16,0.11,
5950,-0.155,0.105,
5951,-0.155,0.105,
5952,-0.145,0.085,
5953,-0.125,0.09,
5954,-0.145,0.105,
5955,-0.135,0.115,
5956,-0.125,0.125,
5957,-0.12,0.11,
5958,-0.12,0.09,
5959,-0.125,0.08,
5960,-0.14,0.095,
5961,-0.145,0.11,
5962,-0.15,0.135,
5963,-0.13,0.135,
5964,-0.12,0.125,
5965,-0.12,0.1,
5966,-0.13,0.095,
5967,-0.135,0.115,
5968,-0.155,0.1,
5969,-0.14,0.1,
5970,-0.145,0.08,
5971,-0.16,0.065,
5972,-0.145,0.085,
5973,-0.145,0.11,
5974,-0.13,0.13,
5975,-0.115,0.15,
5976,-0.1,0.15,
5977,-0.08,0.155,
5978,-0.07,0.155,
5979,-0.07,0.155,
5980,-0.075,0.175,
5981,-0.07,0.19,
5982,-0.07,0.165,
5983,-0.06,0.145,
5984,-0.045,0.135,
5985,-0.025,0.145,
5986,-0.005,0.15,
5987,0.02,0.165,
5988,0.04,0.155,
5989,0.065,0.13,
5990,0.06,0.115,
5991,0.05,0.115,
5992,0.035,0.12,
5993,0.025,0.11,
5994,0.015,0.1,
5995,0.015,0.085,
5996,0.025,0.08,
5997,0.01,0.085,
5998,0.005,0.095,
5999,-0.015,0.105,
6000,-0.03,0.1,
6001,-0.05,0.105,
6002,-0.075,0.11,
6003,-0.1,0.125,
6004,-0.13,0.13,
6005,-0.155,0.11,
6006,-0.16,0.08,
6007,-0.175,0.07,
6008,-0.18,0.05,
6009,-0.18,0.065,
6010,-0.17,0.09,
6011,-0.17,0.095,
6012,-0.175,0.075,
6013,-0.17,0.075,
6014,-0.17,0.075,
6015,-0.16,0.09,
6016,-0.185,0.095,
6017,-0.195,0.07,
6018,-0.195,0.055,
6019,-0.195,0.05,
6020,-0.185,0.045,
6021,-0.195,0.065,
6022,-0.21,0.085,
6023,-0.215,0.085,
6024,-0.225,0.055,
6025,-0.205,0.055,
6026,-0.175,0.06,
6027,-0.12,0.08,
6028,-0.035,0.095,
6029,0.085,0.085,
6030,0.24,0.04,
6031,0.445,0.02,
6032,0.68,0.0,
6033,0.935,0.035,
6034,1.185,0.12,
6035,1.43,0.22,
6036,1.59,0.32,N
6037,1.645,0.43,
6038,1.565,0.515,
6039,1.365,0.57,
6040,1.075,0.57,
6041,0.74,0.475,
6042,0.41,0.33,
6043,0.13,0.155,
6044,-0.075,0.01,
6045,-0.2,-0.075,
6046,-0.26,-0.08,
6047,-0.265,-0.06,
6048,-0.225,-0.015,
6049,-0.17,0.01,
6050,-0.14,0.04,
6051,-0.125,0.06,
6052,-0.15,0.06,
6053,-0.19,0.07,
6054,-0.205,0.04,
6055,-0.225,0.025,
6056,-0.245,0.015,
6057,-0.26,0.01,
6058,-0.25,0.035,
6059,-0.255,0.055,
6060,-0.25,0.08,
6061,-0.235,0.065,
6062,-0.22,0.05,
6063,-0.215,0.045,
6064,-0.22,0.045,
6065,-0.225,0.05,
6066,-0.24,0.055,
6067,-0.25,0.045,
6068,-0.25,0.03,
6069,-0.245,0.025,
6070,-0.235,0.04,
6071,-0.255,0.05,
6072,-0.23,0.06,
6073,-0.215,0.07,
6074,-0.215,0.05,
6075,-0.21,0.025,
6076,-0.225,0.02,
6077,-0.225,0.02,
6078,-0.22,0.025,
6079,-0.27,0.025,
6080,-0.265,0.03,
6081,-0.255,0.0,
6082,-0.23,0.015,
6083,-0.22,0.025,
6084,-0.215,0.04,
6085,-0.205,0.055,
6086,-0.2,0.05,
6087,-0.21,0.03,
6088,-0.22,0.005,
6089,-0.23,0.005,
6090,-0.23,0.02,
6091,-0.245,0.025,
6092,-0.22,0.015,
6093,-0.21,-0.01,
6094,-0.2,-0.015,
6095,-0.205,-0.02,
6096,-0.19,-0.005,
6097,-0.18,0.0,
6098,-0.185,0.0,
6099,-0.175,-0.02,
6100,-0.17,-0.03,
6101,-0.175,-0.04,
6102,-0.2,-0.025,
6103,-0.195,-0.03,
6104,-0.195,-0.025,
6105,-0.195,-0.035,
6106,-0.185,-0.05,
6107,-0.175,-0.06,
6108,-0.155,-0.055,
6109,-0.14,-0.035,
6110,-0.15,-0.015,
6111,-0.155,-0.03,
6112,-0.155,-0.06,
6113,-0.155,-0.08,
6114,-0.16,-0.1,
6115,-0.16,-0.09,
6116,-0.16,-0.075,
6117,-0.155,-0.06,
6118,-0.155,-0.06,
6119,-0.14,-0.08,
6120,-0.135,-0.075,
6121,-0.14,-0.08,
6122,-0.135,-0.09,
6123,-0.14,-0.09,
6124,-0.135,-0.1,
6125,-0.135,-0.11,
6126,-0.145,-0.125,
6127,-0.15,-0.105,
6128,-0.165,-0.1,
6129,-0.16,-0.07,
6130,-0.15,-0.08,
6131,-0.13,-0.08,
6132,-0.135,-0.075,
6133,-0.12,-0.065,
6134,-0.11,-0.045,
6135,-0.115,-0.015,
6136,-0.105,-0.01,
6137,-0.095,-0.025,
6138,-0.09,-0.04,
6139,-0.095,-0.04,
6140,-0.085,-0.02,
6141,-0.1,0.01,
6142,-0.08,0.035,
6143,-0.065,0.04,
6144,-0.07,0.045,
6145,-0.075,0.05,
6146,-0.085,0.07,
6147,-0.09,0.095,
6148,-0.09,0.07,
6149,-0.085,0.07,
6150,-0.095,0.05,
6151,-0.1,0.03,
6152,-0.105,0.045,
6153,-0.11,0.065,
6154,-0.11,0.075,
6155,-0.1,0.085,
6156,-0.095,0.075,
6157,-0.08,0.075,
6158,-0.08,0.085,
6159,-0.105,0.095,
6160,-0.115,0.1,
6161,-0.105,0.075,
6162,-0.105,0.055,
6163,-0.11,0.05,
6164,-0.12,0.05,
6165,-0.125,0.065,
6166,-0.12,0.075,
6167,-0.11,0.08,
6168,-0.105,0.08,
6169,-0.095,0.085,
6170,-0.1,0.095,
6171,-0.1,0.095,
6172,-0.11,0.085,
6173,-0.11,0.055,
6174,-0.105,0.03,
6175,-0.11,0.055,
6176,-0.115,0.07,
6177,-0.115,0.075,
6178,-0.11,0.08,
6179,-0.095,0.085,
6180,-0.105,0.075,
6181,-0.105,0.09,
6182,-0.11,0.09,
6183,-0.105,0.09,
6184,-0.1,0.065,
6185,-0.09,0.04,
6186,-0.1,0.04,
6187,-0.105,0.03,
6188,-0.11,0.05,
6189,-0.1,0.065,
6190,-0.1,0.06,
6191,-0.08,0.07,
6192,-0.075,0.085,
6193,-0.07,0.1,
6194,-0.075,0.105,
6195,-0.08,0.085,
6196,-0.095,0.065,
6197,-0.095,0.04,
6198,-0.11,0.035,
6199,-0.105,0.06,
6200,-0.105,0.065,
6201,-0.1,0.06,
6202,-0.095,0.055,
6203,-0.08,0.055,
6204,-0.085,0.06,
6205,-0.08,0.07,
6206,-0.08,0.07,
6207,-0.075,0.07,
6208,-0.085,0.06,
6209,-0.085,0.05,
6210,-0.085,0.075,
6211,-0.095,0.105,
6212,-0.085,0.12,
6213,-0.07,0.11,
6214,-0.05,0.11,
6215,-0.03,0.11,
6216,-0.015,0.115,
6217,0.015,0.135,
6218,0.015,0.135,
6219,0.015,0.13,
6220,0.02,0.085,
6221,0.035,0.065,
6222,0.04,0.075,
6223,0.03,0.065,
6224,0.04,0.055,
6225,0.03,0.05,
6226,0.04,0.06,
6227,0.05,0.06,
6228,0.045,0.075,
6229,0.055,0.085,
6230,0.045,0.065,
6231,0.05,0.045,
6232,0.025,0.04,
6233,0.0,0.04,
6234,-0.03,0.035,
6235,-0.07,0.04,
6236,-0.105,0.045,
6237,-0.115,0.045,
6238,-0.12,0.04,
6239,-0.125,0.045,
6240,-0.125,0.065,
6241,-0.14,0.055,
6242,-0.15,0.05,
6243,-0.15,0.045,
6244,-0.16,0.015,
6245,-0.165,0.015,
6246,-0.19,0.025,
6247,-0.195,0.025,
6248,-0.21,0.04,
6249,-0.21,0.02,
6250,-0.2,0.02,
6251,-0.195,0.045,
6252,-0.185,0.06,
6253,-0.175,0.07,
6254,-0.18,0.06,
6255,-0.185,0.03,
6256,-0.205,0.005,
6257,-0.22,-0.005,
6258,-0.245,-0.005,
6259,-0.26,-0.015,
6260,-0.245,0.01,
6261,-0.21,0.025,
6262,-0.125,0.03,
6263,-0.015,0.035,
6264,0.11,0.035,
6265,0.295,0.02,
6266,0.52,0.005,
6267,0.77,-0.005,
6268,1.035,-0.005,
6269,1.275,0.04,
6270,1.48,0.135,
6271,1.585,0.23,N
6272,1.585,0.345,
6273,1.46,0.415,
6274,1.205,0.435,
6275,0.875,0.385,
6276,0.52,0.295,
6277,0.23,0.175,
6278,-0.005,0.04,
6279,-0.145,-0.06,
6280,-0.215,-0.12,
6281,-0.245,-0.135,
6282,-0.245,-0.095,
6283,-0.225,-0.03,
6284,-0.22,0.01,
6285,-0.22,0.035,
6286,-0.225,0.04,
6287,-0.25,0.025,
6288,-0.28,0.03,
6289,-0.3,0.04,
6290,-0.31,0.035,
6291,-0.32,0.01,
6292,-0.325,0.0,
6293,-0.305,-0.01,
6294,-0.32,0.005,
6295,-0.325,0.02,
6296,-0.32,0.02,
6297,-0.33,-0.005,
6298,-0.33,-0.005,
6299,-0.33,0.005,
6300,-0.33,0.03,
6301,-0.325,0.03,
6302,-0.32,0.025,
6303,-0.325,0.015,
6304,-0.335,0.005,
6305,-0.33,-0.01,
6306,-0.335,-0.005,
6307,-0.34,-0.01,
6308,-0.33,-0.01,
6309,-0.325,-0.015,
6310,-0.31,-0.01,
6311,-0.31,-0.005,
6312,-0.305,0.02,
6313,-0.31,0.03,
6314,-0.315,0.01,
6315,-0.31,-0.01,
6316,-0.315,-0.02,
6317,-0.32,-0.02,
6318,-0.325,-0.015,
6319,-0.315,-0.01,
6320,-0.31,-0.02,
6321,-0.32,-0.04,
6322,-0.295,-0.035,
6323,-0.29,-0.025,
6324,-0.29,-0.015,
6325,-0.29,0.005,
6326,-0.27,-0.005,
6327,-0.275,-0.02,
6328,-0.285,-0.05,
6329,-0.28,-0.06,
6330,-0.305,-0.065,
6331,-0.29,-0.065,
6332,-0.285,-0.065,
6333,-0.28,-0.065,
6334,-0.275,-0.08,
6335,-0.27,-0.07,
6336,-0.26,-0.045,
6337,-0.24,-0.04,
6338,-0.265,-0.05,
6339,-0.26,-0.075,
6340,-0.255,-0.1,
6341,-0.28,-0.11,
6342,-0.275,-0.11,
6343,-0.27,-0.09,
6344,-0.265,-0.085,
6345,-0.25,-0.095,
6346,-0.24,-0.11,
6347,-0.23,-0.11,
6348,-0.225,-0.115,
6349,-0.215,-0.085,
6350,-0.215,-0.085,
6351,-0.21,-0.095,
6352,-0.195,-0.13,
6353,-0.21,-0.135,
6354,-0.225,-0.125,
6355,-0.225,-0.11,
6356,-0.245,-0.11,
6357,-0.245,-0.115,
6358,-0.245,-0.12,
6359,-0.23,-0.115,
6360,-0.21,-0.11,
6361,-0.215,-0.085,
6362,-0.22,-0.065,
6363,-0.22,-0.065,
6364,-0.205,-0.075,
6365,-0.215,-0.095,
6366,-0.21,-0.08,
6367,-0.22,-0.08,
6368,-0.21,-0.065,
6369,-0.215,-0.025,
6370,-0.195,-0.025,
6371,-0.17,-0.015,
6372,-0.17,-0.01,
6373,-0.15,0.01,
6374,-0.16,0.025,
6375,-0.165,0.06,
6376,-0.175,0.055,
6377,-0.18,0.045,
6378,-0.185,0.025,
6379,-0.185,0.02,
6380,-0.2,0.035,
6381,-0.195,0.055,
6382,-0.185,0.065,
6383,-0.19,0.05,
6384,-0.18,0.065,
6385,-0.18,0.07,
6386,-0.175,0.065,
6387,-0.18,0.075,
6388,-0.185,0.06,
6389,-0.19,0.035,
6390,-0.195,0.01,
6391,-0.205,0.005,
6392,-0.21,0.025,
6393,-0.215,0.045,
6394,-0.22,0.065,
6395,-0.215,0.05,
6396,-0.21,0.065,
6397,-0.19,0.06,
6398,-0.195,0.07,
6399,-0.195,0.07,
6400,-0.19,0.065,
6401,-0.185,0.045,
6402,-0.185,0.03,
6403,-0.21,0.025,
6404,-0.21,0.03,
6405,-0.205,0.055,
6406,-0.215,0.05,
6407,-0.18,0.055,
6408,-0.175,0.04,
6409,-0.165,0.045,
6410,-0.185,0.045,
6411,-0.18,0.06,
6412,-0.19,0.07,
6413,-0.185,0.05,
6414,-0.185,0.03,
6415,-0.185,0.02,
6416,-0.18,0.02,
6417,-0.18,0.055,
6418,-0.195,0.07,
6419,-0.185,0.07,
6420,-0.18,0.055,
6421,-0.165,0.055,
6422,-0.175,0.045,
6423,-0.195,0.06,
6424,-0.195,0.07,
6425,-0.195,0.075,
6426,-0.19,0.055,
6427,-0.185,0.03,
6428,-0.195,0.03,
6429,-0.2,0.03,
6430,-0.18,0.05,
6431,-0.175,0.075,
6432,-0.17,0.08,
6433,-0.17,0.065,
6434,-0.175,0.04,
6435,-0.17,0.055,
6436,-0.185,0.045,
6437,-0.195,0.055,
6438,-0.205,0.035,
6439,-0.205,0.02,
6440,-0.205,0.025,
6441,-0.205,0.045,
6442,-0.185,0.075,
6443,-0.18,0.08,
6444,-0.15,0.1,
6445,-0.145,0.095,
6446,-0.135,0.115,
6447,-0.13,0.125,
6448,-0.135,0.13,
6449,-0.125,0.13,
6450,-0.13,0.1,
6451,-0.12,0.09,
6452,-0.115,0.09,
6453,-0.115,0.09,
6454,-0.095,0.105,
6455,-0.065,0.11,
6456,-0.055,0.095,
6457,-0.025,0.085,
6458,-0.01,0.05,
6459,-0.03,0.05,
6460,-0.04,0.06,
6461,-0.055,0.08,
6462,-0.055,0.055,
6463,-0.085,0.04,
6464,-0.09,0.04,
6465,-0.08,0.06,
6466,-0.09,0.065,
6467,-0.085,0.075,
6468,-0.095,0.06,
6469,-0.095,0.06,
6470,-0.12,0.045,
6471,-0.15,0.045,
6472,-0.185,0.045,
6473,-0.205,0.045,
6474,-0.22,0.03,
6475,-0.235,0.02,
6476,-0.255,0.015,
6477,-0.27,0.04,
6478,-0.285,0.05,
6479,-0.275,0.045,
6480,-0.27,0.025,
6481,-0.27,0.01,
6482,-0.255,0.01,
6483,-0.265,0.035,
6484,-0.265,0.03,
6485,-0.29,0.04,
6486,-0.3,0.025,
6487,-0.32,0.005,
6488,-0.325,0.01,
6489,-0.325,0.04,
6490,-0.315,0.045,
6491,-0.32,0.04,
6492,-0.31,0.02,
6493,-0.31,-0.005,
6494,-0.305,-0.015,
6495,-0.285,0.01,
6496,-0.25,0.035,
6497,-0.17,0.02,
6498,-0.06,-0.015,
6499,0.075,-0.025,
6500,0.255,-0.05,
6501,0.48,-0.04,
6502,0.74,0.01,
6503,1.02,0.06,
6504,1.265,0.14,
6505,1.45,0.225,
6506,1.49,0.345,N
6507,1.405,0.435,
6508,1.19,0.495,
6509,0.875,0.45,
6510,0.53,0.34,
6511,0.19,0.18,
6512,-0.08,0.03,
6513,-0.265,-0.08,
6514,-0.35,-0.125,
6515,-0.375,-0.13,
6516,-0.355,-0.08,
6517,-0.315,-0.03,
6518,-0.275,0.01,
6519,-0.275,0.035,
6520,-0.28,0.04,
6521,-0.3,0.035,
6522,-0.33,0.0,
6523,-0.365,-0.01,
6524,-0.39,-0.025,
6525,-0.415,-0.01,
6526,-0.4,0.01,
6527,-0.405,0.01,
6528,-0.395,0.015,
6529,-0.375,0.02,
6530,-0.365,0.02,
6531,-0.375,0.035,
6532,-0.38,0.03,
6533,-0.385,0.015,
6534,-0.395,-0.01,
6535,-0.395,-0.01,
6536,-0.395,-0.015,
6537,-0.405,-0.005,
6538,-0.4,0.0,
6539,-0.395,0.005,
6540,-0.4,0.005,
6541,-0.365,-0.005,
6542,-0.375,0.005,
6543,-0.38,0.01,
6544,-0.39,0.01,
6545,-0.395,0.0,
6546,-0.395,-0.025,
6547,-0.395,-0.025,
6548,-0.395,-0.015,
6549,-0.39,0.005,
6550,-0.39,0.005,
6551,-0.385,-0.005,
6552,-0.375,-0.01,
6553,-0.365,-0.025,
6554,-0.38,-0.025,
6555,-0.39,-0.02,
6556,-0.38,-0.025,
6557,-0.38,-0.03,
6558,-0.38,-0.055,
6559,-0.375,-0.065,
6560,-0.39,-0.055,
6561,-0.38,-0.045,
6562,-0.38,-0.035,
6563,-0.37,-0.035,
6564,-0.355,-0.055,
6565,-0.345,-0.06,
6566,-0.345,-0.055,
6567,-0.335,-0.045,
6568,-0.34,-0.05,
6569,-0.35,-0.06,
6570,-0.35,-0.08,
6571,-0.355,-0.1,
6572,-0.345,-0.085,
6573,-0.32,-0.07,
6574,-0.33,-0.07,
6575,-0.315,-0.08,
6576,-0.3,-0.09,
6577,-0.295,-0.11,
6578,-0.295,-0.11,
6579,-0.295,-0.11,
6580,-0.29,-0.115,
6581,-0.29,-0.115,
6582,-0.305,-0.13,
6583,-0.305,-0.135,
6584,-0.305,-0.125,
6585,-0.295,-0.125,
6586,-0.285,-0.12,
6587,-0.285,-0.12,
6588,-0.275,-0.12,
6589,-0.275,-0.105,
6590,-0.285,-0.095,
6591,-0.285,-0.08,
6592,-0.28,-0.1,
6593,-0.28,-0.115,
6594,-0.285,-0.12,
6595,-0.295,-0.13,
6596,-0.295,-0.115,
6597,-0.29,-0.085,
6598,-0.275,-0.085,
6599,-0.27,-0.07,
6600,-0.24,-0.06,
6601,-0.225,-0.025,
6602,-0.225,0.0,
6603,-0.225,0.01,
6604,-0.22,0.01,
6605,-0.235,0.0,
6606,-0.225,0.0,
6607,-0.235,0.015,
6608,-0.235,0.03,
6609,-0.24,0.045,
6610,-0.24,0.05,
6611,-0.235,0.045,
6612,-0.225,0.045,
6613,-0.235,0.05,
6614,-0.23,0.06,
6615,-0.225,0.06,
6616,-0.235,0.04,
6617,-0.24,0.03,
6618,-0.25,0.03,
6619,-0.255,0.025,
6620,-0.265,0.045,
6621,-0.26,0.05,
6622,-0.255,0.05,
6623,-0.25,0.045,
6624,-0.24,0.045,
6625,-0.235,0.05,
6626,-0.235,0.055,
6627,-0.245,0.055,
6628,-0.245,0.04,
6629,-0.26,0.015,
6630,-0.26,0.025,
6631,-0.275,0.035,
6632,-0.27,0.045,
6633,-0.265,0.055,
6634,-0.25,0.035,
6635,-0.25,0.025,
6636,-0.225,0.03,
6637,-0.225,0.045,
6638,-0.23,0.055,
6639,-0.235,0.05,
6640,-0.22,0.03,
6641,-0.25,0.02,
6642,-0.265,0.015,
6643,-0.265,0.03,
6644,-0.25,0.035,
6645,-0.24,0.03,
6646,-0.235,0.04,
6647,-0.22,0.02,
6648,-0.23,0.035,
6649,-0.225,0.05,
6650,-0.22,0.07,
6651,-0.22,0.06,
6652,-0.22,0.04,
6653,-0.225,0.04,
6654,-0.23,0.025,
6655,-0.235,0.03,
6656,-0.25,0.045,
6657,-0.24,0.045,
6658,-0.245,0.03,
6659,-0.235,0.02,
6660,-0.24,0.03,
6661,-0.24,0.045,
6662,-0.22,0.05,
6663,-0.22,0.05,
6664,-0.205,0.03,
6665,-0.22,0.015,
6666,-0.22,0.015,
6667,-0.23,0.035,
6668,-0.235,0.03,
6669,-0.245,0.05,
6670,-0.235,0.04,
6671,-0.235,0.035,
6672,-0.23,0.05,
6673,-0.215,0.075,
6674,-0.205,0.08,
6675,-0.2,0.09,
6676,-0.185,0.065,
6677,-0.185,0.065,
6678,-0.175,0.07,
6679,-0.17,0.095,
6680,-0.17,0.11,
6681,-0.16,0.105,
6682,-0.15,0.095,
6683,-0.135,0.09,
6684,-0.135,0.1,
6685,-0.11,0.105,
6686,-0.1,0.095,
6687,-0.085,0.06,
6688,-0.07,0.035,
6689,-0.075,0.02,
6690,-0.085,0.025,
6691,-0.11,0.03,
6692,-0.115,0.04,
6693,-0.115,0.035,
6694,-0.12,0.03,
6695,-0.12,0.025,
6696,-0.125,0.03,
