,MLII,V2,symbol
0,-0.925,-0.47,
1,-0.925,-0.47,
2,-0.925,-0.47,
3,-0.925,-0.47,
4,-0.925,-0.47,
5,-0.925,-0.47,
6,-0.925,-0.47,
7,-0.92,-0.47,
8,-0.92,-0.47,
9,-0.94,-0.485,
10,-0.94,-0.49,
11,-0.955,-0.51,
12,-0.97,-0.515,
13,-0.97,-0.515,
14,-0.98,-0.515,
15,-0.98,-0.505,
16,-0.965,-0.5,
17,-0.95,-0.505,
18,-0.94,-0.48,
19,-0.91,-0.475,
20,-0.925,-0.505,
21,-0.93,-0.5,
22,-0.945,-0.53,
23,-0.95,-0.51,
24,-0.96,-0.53,
25,-0.96,-0.535,
26,-0.965,-0.515,
27,-0.97,-0.525,
28,-0.965,-0.51,
29,-0.97,-0.505,
30,-0.985,-0.495,
31,-0.95,-0.5,
32,-0.95,-0.525,
33,-0.95,-0.505,
34,-0.93,-0.525,
35,-0.925,-0.54,
36,-0.94,-0.535,
37,-0.95,-0.545,
38,-0.97,-0.54,
39,-0.955,-0.54,
40,-0.96,-0.515,
41,-0.96,-0.505,
42,-0.945,-0.505,
43,-0.93,-0.51,
44,-0.925,-0.505,
45,-0.94,-0.52,
46,-0.94,-0.525,
47,-0.94,-0.525,
48,-0.955,-0.545,
49,-0.95,-0.545,
50,-0.98,-0.55,
51,-0.96,-0.53,
52,-0.965,-0.53,
53,-0.945,-0.51,
54,-0.95,-0.515,
55,-0.945,-0.5,
56,-0.945,-0.51,
57,-0.955,-0.525,
58,-0.96,-0.53,
59,-0.955,-0.53,
60,-0.97,-0.545,
61,-0.98,-0.555,
62,-0.97,-0.54,
63,-0.975,-0.52,
64,-0.965,-0.525,
65,-0.95,-0.515,
66,-0.95,-0.515,
67,-0.935,-0.51,
68,-0.93,-0.515,
69,-0.93,-0.525,
70,-0.94,-0.535,
71,-0.935,-0.55,
72,-0.95,-0.57,+
73,-0.97,-0.555,
74,-0.965,-0.56,
75,-0.965,-0.555,
76,-0.97,-0.53,
77,-0.97,-0.52,
78,-0.96,-0.52,
79,-0.93,-0.52,
80,-0.95,-0.53,
81,-0.96,-0.525,
82,-0.975,-0.545,
83,-0.955,-0.535,
84,-0.96,-0.565,
85,-0.96,-0.56,
86,-0.96,-0.56,
87,-0.97,-0.55,
88,-0.955,-0.535,
89,-0.94,-0.52,
90,-0.94,-0.525,
91,-0.93,-0.525,
92,-0.925,-0.51,
93,-0.93,-0.53,
94,-0.925,-0.535,
95,-0.935,-0.555,
96,-0.96,-0.58,
97,-0.95,-0.56,
98,-0.96,-0.575,
99,-0.955,-0.57,
100,-0.945,-0.535,
101,-0.94,-0.555,
102,-0.925,-0.55,
103,-0.92,-0.52,
104,-0.925,-0.55,
105,-0.92,-0.535,
106,-0.925,-0.555,
107,-0.935,-0.555,
108,-0.935,-0.57,
109,-0.935,-0.565,
110,-0.96,-0.57,
111,-0.945,-0.545,
112,-0.905,-0.55,
113,-0.885,-0.54,
114,-0.855,-0.525,
115,-0.825,-0.51,
116,-0.825,-0.53,
117,-0.815,-0.535,
118,-0.825,-0.535,
119,-0.81,-0.55,
120,-0.835,-0.555,
121,-0.835,-0.53,
122,-0.835,-0.515,
123,-0.785,-0.495,
124,-0.78,-0.48,
125,-0.76,-0.45,
126,-0.75,-0.435,
127,-0.76,-0.415,
128,-0.745,-0.4,
129,-0.75,-0.39,
130,-0.775,-0.39,
131,-0.78,-0.365,
132,-0.8,-0.36,
133,-0.825,-0.355,
134,-0.845,-0.36,
135,-0.84,-0.36,
136,-0.835,-0.355,
137,-0.825,-0.35,
138,-0.835,-0.345,
139,-0.85,-0.345,
140,-0.865,-0.375,
141,-0.895,-0.38,
142,-0.92,-0.415,
143,-0.93,-0.43,
144,-0.94,-0.47,
145,-0.945,-0.49,
146,-0.955,-0.495,
147,-0.98,-0.49,
148,-0.97,-0.505,
149,-0.97,-0.5,
150,-0.97,-0.475,
151,-0.935,-0.485,
152,-0.965,-0.48,
153,-0.96,-0.51,
154,-0.96,-0.515,
155,-0.965,-0.545,
156,-0.985,-0.545,
157,-0.985,-0.555,
158,-0.99,-0.55,
159,-0.995,-0.54,
160,-0.975,-0.53,
161,-0.985,-0.52,
162,-0.97,-0.52,
163,-0.955,-0.51,
164,-0.945,-0.535,
165,-0.945,-0.535,
166,-0.955,-0.55,
167,-0.95,-0.565,
168,-0.97,-0.56,
169,-0.985,-0.585,
170,-0.975,-0.575,
171,-0.95,-0.545,
172,-0.905,-0.55,
173,-0.83,-0.535,
174,-0.75,-0.5,
175,-0.62,-0.425,
176,-0.5,-0.285,
177,-0.34,-0.095,
178,-0.175,0.12,
179,-0.035,0.37,
180,0.03,0.625,
181,0.01,0.89,
182,-0.11,1.085,
183,-0.33,1.19,
184,-0.58,1.175,
185,-0.865,1.005,
186,-1.155,0.72,
187,-1.415,0.38,
188,-1.625,-0.06,
189,-1.755,-0.425,N
190,-1.76,-0.725,
191,-1.68,-0.865,
192,-1.565,-0.86,
193,-1.445,-0.785,
194,-1.33,-0.68,
195,-1.245,-0.585,
196,-1.165,-0.53,
197,-1.1,-0.515,
198,-1.015,-0.495,
199,-0.94,-0.485,
200,-0.885,-0.475,
201,-0.86,-0.49,
202,-0.865,-0.49,
203,-0.87,-0.49,
204,-0.885,-0.49,
205,-0.89,-0.505,
206,-0.905,-0.5,
207,-0.91,-0.49,
208,-0.89,-0.485,
209,-0.85,-0.475,
210,-0.845,-0.45,
211,-0.835,-0.46,
212,-0.845,-0.45,
213,-0.835,-0.465,
214,-0.84,-0.47,
215,-0.85,-0.485,
216,-0.83,-0.49,
217,-0.845,-0.495,
218,-0.845,-0.485,
219,-0.855,-0.475,
220,-0.82,-0.455,
221,-0.81,-0.435,
222,-0.81,-0.435,
223,-0.79,-0.44,
224,-0.785,-0.435,
225,-0.785,-0.445,
226,-0.775,-0.435,
227,-0.79,-0.45,
228,-0.78,-0.445,
229,-0.8,-0.445,
230,-0.785,-0.435,
231,-0.785,-0.45,
232,-0.78,-0.42,
233,-0.76,-0.41,
234,-0.755,-0.39,
235,-0.73,-0.395,
236,-0.72,-0.385,
237,-0.72,-0.4,
238,-0.725,-0.415,
239,-0.73,-0.405,
240,-0.725,-0.415,
241,-0.725,-0.4,
242,-0.72,-0.405,
243,-0.74,-0.38,
244,-0.725,-0.365,
245,-0.705,-0.35,
246,-0.685,-0.335,
247,-0.66,-0.335,
248,-0.68,-0.315,
249,-0.665,-0.305,
250,-0.655,-0.325,
251,-0.645,-0.325,
252,-0.65,-0.325,
253,-0.625,-0.3,
254,-0.63,-0.29,
255,-0.615,-0.265,
256,-0.59,-0.24,
257,-0.57,-0.215,
258,-0.56,-0.175,
259,-0.53,-0.18,
260,-0.515,-0.16,
261,-0.505,-0.14,
262,-0.485,-0.14,
263,-0.47,-0.135,
264,-0.48,-0.135,
265,-0.45,-0.12,
266,-0.45,-0.085,
267,-0.44,-0.065,
268,-0.395,-0.035,
269,-0.38,-0.01,
270,-0.335,0.02,
271,-0.305,0.055,
272,-0.305,0.05,
273,-0.29,0.07,
274,-0.275,0.065,
275,-0.275,0.09,
276,-0.25,0.07,
277,-0.255,0.08,
278,-0.25,0.1,
279,-0.24,0.125,
280,-0.22,0.145,
281,-0.2,0.165,
282,-0.195,0.185,
283,-0.175,0.185,
284,-0.17,0.195,
285,-0.17,0.185,
286,-0.175,0.19,
287,-0.18,0.175,
288,-0.195,0.17,
289,-0.195,0.165,
290,-0.23,0.135,
291,-0.235,0.125,
292,-0.265,0.14,
293,-0.265,0.125,
294,-0.28,0.115,
295,-0.3,0.075,
296,-0.335,0.03,
297,-0.36,0.0,
298,-0.4,-0.035,
299,-0.43,-0.085,
300,-0.47,-0.125,
301,-0.505,-0.17,
302,-0.54,-0.2,
303,-0.565,-0.225,
304,-0.59,-0.25,
305,-0.61,-0.28,
306,-0.63,-0.3,
307,-0.65,-0.325,
308,-0.665,-0.37,
309,-0.69,-0.4,
310,-0.735,-0.43,
311,-0.75,-0.45,
312,-0.775,-0.485,
313,-0.795,-0.495,
314,-0.79,-0.495,
315,-0.82,-0.525,
316,-0.81,-0.49,
317,-0.81,-0.51,
318,-0.81,-0.5,
319,-0.815,-0.515,
320,-0.815,-0.515,
321,-0.82,-0.55,
322,-0.825,-0.545,
323,-0.845,-0.555,
324,-0.865,-0.57,
325,-0.87,-0.56,
326,-0.89,-0.565,
327,-0.885,-0.565,
328,-0.875,-0.545,
329,-0.87,-0.55,
330,-0.87,-0.545,
331,-0.85,-0.545,
332,-0.86,-0.545,
333,-0.855,-0.55,
334,-0.855,-0.57,
335,-0.86,-0.575,
336,-0.87,-0.57,
337,-0.87,-0.58,
338,-0.87,-0.575,
339,-0.865,-0.57,
340,-0.865,-0.565,
341,-0.85,-0.54,
342,-0.84,-0.525,
343,-0.845,-0.525,
344,-0.82,-0.53,
345,-0.86,-0.52,
346,-0.87,-0.555,
347,-0.86,-0.555,
348,-0.865,-0.555,
349,-0.87,-0.55,
350,-0.865,-0.55,
351,-0.86,-0.535,
352,-0.845,-0.53,
353,-0.84,-0.53,
354,-0.82,-0.505,
355,-0.82,-0.505,
356,-0.82,-0.52,
357,-0.83,-0.51,
358,-0.825,-0.53,
359,-0.835,-0.53,
360,-0.85,-0.545,
361,-0.87,-0.55,
362,-0.875,-0.56,
363,-0.875,-0.53,
364,-0.88,-0.535,
365,-0.875,-0.525,
366,-0.875,-0.525,
367,-0.865,-0.535,
368,-0.855,-0.525,
369,-0.855,-0.525,
370,-0.865,-0.545,
371,-0.88,-0.55,
372,-0.875,-0.56,
373,-0.89,-0.595,
374,-0.895,-0.58,
375,-0.9,-0.58,
376,-0.89,-0.57,
377,-0.895,-0.555,
378,-0.885,-0.55,
379,-0.885,-0.555,
380,-0.885,-0.555,
381,-0.89,-0.575,
382,-0.9,-0.595,
383,-0.915,-0.6,
384,-0.915,-0.62,
385,-0.92,-0.625,
386,-0.935,-0.61,
387,-0.92,-0.605,
388,-0.925,-0.595,
389,-0.905,-0.58,
390,-0.9,-0.59,
391,-0.895,-0.565,
392,-0.905,-0.585,
393,-0.915,-0.6,
394,-0.93,-0.605,
395,-0.93,-0.61,
396,-0.95,-0.61,
397,-0.945,-0.62,
398,-0.975,-0.625,
399,-0.955,-0.605,
400,-0.93,-0.61,
401,-0.935,-0.605,
402,-0.91,-0.59,
403,-0.905,-0.59,
404,-0.895,-0.595,
405,-0.91,-0.595,
406,-0.905,-0.615,
407,-0.915,-0.615,
408,-0.915,-0.62,
409,-0.935,-0.615,
410,-0.93,-0.64,
411,-0.935,-0.62,
412,-0.93,-0.6,
413,-0.92,-0.605,
414,-0.915,-0.59,
415,-0.905,-0.6,
416,-0.92,-0.6,
417,-0.92,-0.6,
418,-0.925,-0.62,
419,-0.915,-0.625,
420,-0.93,-0.64,
421,-0.94,-0.62,
422,-0.945,-0.62,
423,-0.95,-0.615,
424,-0.93,-0.59,
425,-0.92,-0.615,
426,-0.92,-0.59,
427,-0.91,-0.58,
428,-0.92,-0.585,
429,-0.915,-0.605,
430,-0.92,-0.625,
431,-0.94,-0.62,
432,-0.95,-0.65,
433,-0.945,-0.65,
434,-0.94,-0.63,
435,-0.945,-0.635,
436,-0.945,-0.62,
437,-0.94,-0.615,
438,-0.925,-0.61,
439,-0.93,-0.615,
440,-0.92,-0.62,
441,-0.925,-0.635,
442,-0.935,-0.635,
443,-0.935,-0.64,
444,-0.945,-0.64,
445,-0.945,-0.675,
446,-0.975,-0.66,
447,-0.975,-0.665,
448,-0.96,-0.65,
449,-0.935,-0.635,
450,-0.925,-0.63,
451,-0.915,-0.635,
452,-0.925,-0.625,
453,-0.925,-0.635,
454,-0.92,-0.645,
455,-0.925,-0.655,
456,-0.935,-0.67,
457,-0.935,-0.665,
458,-0.95,-0.665,
459,-0.94,-0.665,
460,-0.935,-0.645,
461,-0.925,-0.645,
462,-0.925,-0.635,
463,-0.915,-0.62,
464,-0.92,-0.62,
465,-0.925,-0.635,
466,-0.92,-0.62,
467,-0.935,-0.62,
468,-0.945,-0.62,
469,-0.955,-0.62,
470,-0.955,-0.635,
471,-0.955,-0.625,
472,-0.95,-0.605,
473,-0.93,-0.59,
474,-0.93,-0.585,
475,-0.915,-0.58,
476,-0.92,-0.59,
477,-0.93,-0.595,
478,-0.945,-0.615,
479,-0.955,-0.615,
480,-0.97,-0.615,
481,-0.98,-0.62,
482,-0.96,-0.62,
483,-0.975,-0.645,
484,-0.945,-0.61,
485,-0.94,-0.61,
486,-0.935,-0.595,
487,-0.915,-0.585,
488,-0.92,-0.6,
489,-0.93,-0.61,
490,-0.925,-0.615,
491,-0.94,-0.62,
492,-0.94,-0.63,
493,-0.935,-0.64,
494,-0.945,-0.625,
495,-0.94,-0.645,
496,-0.935,-0.605,
497,-0.925,-0.605,
498,-0.92,-0.59,
499,-0.92,-0.605,
500,-0.915,-0.605,
501,-0.93,-0.61,
502,-0.92,-0.615,
503,-0.92,-0.625,
504,-0.93,-0.64,
505,-0.94,-0.64,
506,-0.945,-0.615,
507,-0.935,-0.62,
508,-0.93,-0.61,
509,-0.925,-0.605,
510,-0.915,-0.6,
511,-0.91,-0.595,
512,-0.905,-0.6,
513,-0.905,-0.615,
514,-0.915,-0.63,
515,-0.935,-0.625,
516,-0.935,-0.635,
517,-0.945,-0.635,
518,-0.93,-0.63,
519,-0.905,-0.62,
520,-0.885,-0.625,
521,-0.86,-0.615,
522,-0.845,-0.6,
523,-0.815,-0.595,
524,-0.81,-0.605,
525,-0.8,-0.605,
526,-0.805,-0.615,
527,-0.83,-0.605,
528,-0.82,-0.605,
529,-0.825,-0.595,
530,-0.8,-0.59,
531,-0.795,-0.57,
532,-0.785,-0.555,
533,-0.76,-0.525,
534,-0.735,-0.505,
535,-0.72,-0.49,
536,-0.725,-0.465,
537,-0.74,-0.465,
538,-0.75,-0.45,
539,-0.77,-0.445,
540,-0.8,-0.47,
541,-0.81,-0.48,
542,-0.82,-0.475,
543,-0.81,-0.47,
544,-0.825,-0.48,
545,-0.825,-0.46,
546,-0.845,-0.46,
547,-0.84,-0.465,
548,-0.875,-0.505,
549,-0.885,-0.515,
550,-0.92,-0.525,
551,-0.925,-0.565,
552,-0.945,-0.585,
553,-0.95,-0.62,
554,-0.95,-0.615,
555,-0.955,-0.635,
556,-0.945,-0.615,
557,-0.945,-0.62,
558,-0.94,-0.62,
559,-0.925,-0.61,
560,-0.93,-0.625,
561,-0.945,-0.62,
562,-0.945,-0.65,
563,-0.95,-0.645,
564,-0.96,-0.67,
565,-0.98,-0.67,
566,-0.97,-0.68,
567,-0.97,-0.66,
568,-0.97,-0.675,
569,-0.96,-0.645,
570,-0.96,-0.635,
571,-0.945,-0.65,
572,-0.955,-0.625,
573,-0.95,-0.64,
574,-0.955,-0.63,
575,-0.965,-0.635,
576,-0.96,-0.655,
577,-0.96,-0.66,
578,-0.955,-0.66,
579,-0.945,-0.64,
580,-0.92,-0.635,
581,-0.91,-0.635,
582,-0.86,-0.635,
583,-0.785,-0.61,
584,-0.715,-0.58,
585,-0.6,-0.495,
586,-0.49,-0.38,
587,-0.355,-0.2,
588,-0.225,0.035,
589,-0.1,0.28,
590,-0.045,0.55,
591,-0.09,0.8,
592,-0.21,0.975,
593,-0.43,1.06,
594,-0.69,1.005,
595,-0.97,0.82,
596,-1.24,0.51,
597,-1.49,0.105,
598,-1.665,-0.31,N
599,-1.73,-0.66,
600,-1.7,-0.895,
601,-1.6,-0.975,
602,-1.49,-0.94,
603,-1.375,-0.84,
604,-1.275,-0.745,
605,-1.2,-0.69,
606,-1.12,-0.62,
607,-1.035,-0.615,
608,-0.98,-0.61,
609,-0.93,-0.605,
610,-0.885,-0.595,
611,-0.89,-0.59,
612,-0.89,-0.585,
613,-0.87,-0.59,
614,-0.895,-0.6,
615,-0.91,-0.605,
616,-0.895,-0.595,
617,-0.87,-0.575,
618,-0.855,-0.58,
619,-0.84,-0.565,
620,-0.82,-0.585,
621,-0.83,-0.56,
622,-0.82,-0.585,
623,-0.835,-0.575,
624,-0.845,-0.59,
625,-0.84,-0.585,
626,-0.845,-0.57,
627,-0.835,-0.59,
628,-0.83,-0.565,
629,-0.83,-0.57,
630,-0.81,-0.54,
631,-0.79,-0.545,
632,-0.79,-0.54,
633,-0.79,-0.555,
634,-0.79,-0.565,
635,-0.8,-0.565,
636,-0.8,-0.565,
637,-0.8,-0.57,
638,-0.8,-0.555,
639,-0.81,-0.535,
640,-0.785,-0.535,
641,-0.78,-0.52,
642,-0.775,-0.52,
643,-0.755,-0.495,
644,-0.755,-0.515,
645,-0.76,-0.505,
646,-0.755,-0.5,
647,-0.755,-0.535,
648,-0.76,-0.53,
649,-0.77,-0.535,
650,-0.755,-0.49,
651,-0.765,-0.495,
652,-0.755,-0.47,
653,-0.745,-0.47,
654,-0.73,-0.475,
655,-0.705,-0.46,
656,-0.74,-0.455,
657,-0.71,-0.455,
658,-0.705,-0.45,
659,-0.715,-0.47,
660,-0.71,-0.47,
661,-0.71,-0.45,
662,-0.705,-0.46,
663,-0.69,-0.44,
664,-0.665,-0.415,
665,-0.645,-0.395,
666,-0.61,-0.375,
667,-0.595,-0.365,
668,-0.59,-0.36,
669,-0.595,-0.365,
670,-0.58,-0.365,
671,-0.575,-0.355,
672,-0.565,-0.345,
673,-0.56,-0.33,
674,-0.55,-0.315,
675,-0.53,-0.295,
676,-0.515,-0.255,
677,-0.48,-0.225,
678,-0.465,-0.205,
679,-0.43,-0.18,
680,-0.405,-0.165,
681,-0.375,-0.155,
682,-0.39,-0.14,
683,-0.38,-0.13,
684,-0.365,-0.12,
685,-0.345,-0.105,
686,-0.345,-0.085,
687,-0.315,-0.075,
688,-0.3,-0.035,
689,-0.28,-0.025,
690,-0.25,-0.005,
691,-0.25,0.01,
692,-0.24,0.03,
693,-0.23,0.015,
694,-0.225,0.015,
695,-0.22,0.02,
696,-0.235,0.005,
697,-0.235,0.015,
698,-0.23,0.01,
699,-0.225,0.015,
700,-0.245,0.035,
701,-0.24,0.035,
702,-0.25,0.055,
703,-0.25,0.03,
704,-0.26,0.0,
705,-0.27,-0.015,
706,-0.305,-0.05,
707,-0.335,-0.075,
708,-0.375,-0.115,
709,-0.415,-0.145,
710,-0.45,-0.18,
711,-0.48,-0.195,
712,-0.5,-0.23,
713,-0.505,-0.245,
714,-0.55,-0.28,
715,-0.575,-0.315,
716,-0.585,-0.34,
717,-0.615,-0.385,
718,-0.645,-0.425,
719,-0.68,-0.455,
720,-0.72,-0.475,
721,-0.75,-0.515,
722,-0.775,-0.55,
723,-0.775,-0.57,
724,-0.8,-0.56,
725,-0.81,-0.595,
726,-0.81,-0.6,
727,-0.815,-0.59,
728,-0.82,-0.625,
729,-0.84,-0.64,
730,-0.865,-0.66,
731,-0.875,-0.675,
732,-0.885,-0.71,
733,-0.9,-0.705,
734,-0.89,-0.695,
735,-0.895,-0.71,
736,-0.9,-0.69,
737,-0.885,-0.685,
738,-0.885,-0.685,
739,-0.885,-0.685,
740,-0.89,-0.695,
741,-0.88,-0.705,
742,-0.885,-0.715,
743,-0.895,-0.71,
744,-0.91,-0.725,
745,-0.905,-0.74,
746,-0.91,-0.72,
747,-0.895,-0.715,
748,-0.89,-0.69,
749,-0.89,-0.7,
750,-0.88,-0.69,
751,-0.865,-0.67,
752,-0.865,-0.695,
753,-0.865,-0.69,
754,-0.855,-0.69,
755,-0.885,-0.695,
756,-0.87,-0.685,
757,-0.88,-0.695,
758,-0.9,-0.7,
759,-0.895,-0.695,
760,-0.885,-0.685,
761,-0.87,-0.665,
762,-0.87,-0.655,
763,-0.855,-0.66,
764,-0.85,-0.665,
765,-0.85,-0.66,
766,-0.855,-0.665,
767,-0.865,-0.675,
768,-0.87,-0.68,
769,-0.875,-0.67,
770,-0.895,-0.685,
771,-0.905,-0.685,
772,-0.895,-0.675,
773,-0.895,-0.67,
774,-0.9,-0.645,
775,-0.875,-0.645,
776,-0.885,-0.64,
777,-0.885,-0.65,
778,-0.885,-0.675,
779,-0.9,-0.675,
780,-0.91,-0.705,
781,-0.915,-0.715,
782,-0.93,-0.72,
783,-0.94,-0.705,
784,-0.935,-0.685,
785,-0.93,-0.685,
786,-0.915,-0.675,
787,-0.91,-0.675,
788,-0.92,-0.685,
789,-0.905,-0.69,
790,-0.925,-0.7,
791,-0.945,-0.71,
792,-0.94,-0.72,
793,-0.96,-0.735,
794,-0.975,-0.72,
795,-0.965,-0.72,
796,-0.96,-0.72,
797,-0.955,-0.705,
798,-0.955,-0.7,
799,-0.97,-0.7,
800,-0.945,-0.71,
801,-0.945,-0.71,
802,-0.945,-0.725,
803,-0.965,-0.73,
804,-0.97,-0.74,
805,-0.98,-0.755,
806,-0.995,-0.75,
807,-1.01,-0.76,
808,-1.02,-0.74,
809,-0.995,-0.725,
810,-0.99,-0.725,
811,-0.97,-0.7,
812,-0.97,-0.725,
813,-0.97,-0.735,
814,-0.965,-0.725,
815,-0.99,-0.74,
816,-0.995,-0.75,
817,-1.005,-0.76,
818,-1.015,-0.76,
819,-1.0,-0.74,
820,-0.995,-0.73,
821,-0.99,-0.73,
822,-0.99,-0.73,
823,-0.99,-0.71,
824,-1.0,-0.73,
825,-0.995,-0.71,
826,-1.0,-0.725,
827,-1.0,-0.73,
828,-1.005,-0.73,
829,-1.02,-0.74,
830,-1.035,-0.74,
831,-1.03,-0.74,
832,-1.025,-0.725,
833,-1.02,-0.715,
834,-1.01,-0.71,
835,-0.995,-0.695,
836,-1.005,-0.705,
837,-1.0,-0.72,
838,-1.01,-0.74,
839,-1.03,-0.735,
840,-1.025,-0.725,
841,-1.03,-0.75,
842,-1.045,-0.75,
843,-1.045,-0.73,
844,-1.025,-0.725,
845,-1.035,-0.72,
846,-1.02,-0.705,
847,-1.005,-0.7,
848,-1.005,-0.71,
849,-1.005,-0.715,
850,-1.01,-0.735,
851,-1.02,-0.74,
852,-1.015,-0.745,
853,-1.035,-0.74,
854,-1.04,-0.75,
855,-1.045,-0.73,
856,-1.05,-0.72,
857,-1.03,-0.72,
858,-1.025,-0.7,
859,-1.015,-0.69,
860,-1.02,-0.705,
861,-1.015,-0.715,
862,-1.01,-0.73,
863,-1.04,-0.74,
864,-1.035,-0.75,
865,-1.05,-0.765,
866,-1.05,-0.76,
867,-1.05,-0.74,
868,-1.045,-0.76,
869,-1.045,-0.74,
870,-1.02,-0.735,
871,-1.0,-0.72,
872,-1.0,-0.705,
873,-1.015,-0.715,
874,-1.01,-0.72,
875,-1.01,-0.73,
876,-1.02,-0.755,
877,-1.035,-0.75,
878,-1.06,-0.75,
879,-1.06,-0.735,
880,-1.03,-0.715,
881,-1.04,-0.715,
882,-1.03,-0.705,
883,-1.01,-0.71,
884,-1.015,-0.715,
885,-1.02,-0.715,
886,-1.0,-0.725,
887,-1.01,-0.7,
888,-1.015,-0.72,
889,-1.03,-0.72,
890,-1.03,-0.71,
891,-1.035,-0.69,
892,-1.035,-0.705,
893,-1.035,-0.685,
894,-1.03,-0.68,
895,-1.025,-0.68,
896,-1.0,-0.67,
897,-1.005,-0.695,
898,-1.025,-0.7,
899,-1.03,-0.695,
900,-1.025,-0.71,
901,-1.045,-0.71,
902,-1.05,-0.73,
903,-1.04,-0.705,
904,-1.04,-0.71,
905,-1.01,-0.69,
906,-1.01,-0.685,
907,-1.005,-0.675,
908,-1.01,-0.675,
909,-1.01,-0.68,
910,-1.02,-0.69,
911,-1.02,-0.695,
912,-1.01,-0.71,
913,-1.02,-0.695,
914,-1.025,-0.705,
915,-1.04,-0.685,
916,-1.02,-0.69,
917,-1.015,-0.67,
918,-1.005,-0.67,
919,-0.99,-0.675,
920,-0.995,-0.67,
921,-0.98,-0.675,
922,-0.98,-0.685,
923,-0.985,-0.69,
924,-1.0,-0.69,
925,-1.0,-0.695,
926,-0.995,-0.69,
927,-0.985,-0.68,
928,-0.965,-0.665,
929,-0.955,-0.675,
930,-0.93,-0.66,
931,-0.925,-0.655,
932,-0.925,-0.675,
933,-0.92,-0.675,
934,-0.93,-0.67,
935,-0.92,-0.675,
936,-0.9,-0.67,
937,-0.895,-0.66,
938,-0.885,-0.65,
939,-0.875,-0.625,
940,-0.875,-0.6,
941,-0.845,-0.595,
942,-0.825,-0.57,
943,-0.82,-0.56,
944,-0.805,-0.54,
945,-0.81,-0.54,
946,-0.82,-0.52,
947,-0.84,-0.505,
948,-0.865,-0.505,
949,-0.89,-0.52,
950,-0.9,-0.525,
951,-0.915,-0.53,
952,-0.905,-0.525,
953,-0.895,-0.525,
954,-0.91,-0.51,
955,-0.915,-0.51,
956,-0.94,-0.545,
957,-0.96,-0.545,
958,-0.975,-0.555,
959,-1.005,-0.59,
960,-1.005,-0.61,
961,-1.01,-0.625,
962,-1.01,-0.63,
963,-1.03,-0.635,
964,-1.035,-0.63,
965,-1.04,-0.63,
966,-1.015,-0.63,
967,-1.015,-0.625,
968,-1.025,-0.63,
969,-1.02,-0.63,
970,-1.025,-0.65,
971,-1.045,-0.68,
972,-1.045,-0.675,
973,-1.055,-0.685,
974,-1.06,-0.685,
975,-1.06,-0.69,
976,-1.06,-0.675,
977,-1.045,-0.67,
978,-1.04,-0.66,
979,-1.035,-0.65,
980,-1.015,-0.645,
981,-1.01,-0.66,
982,-1.005,-0.65,
983,-1.035,-0.665,
984,-1.02,-0.66,
985,-1.035,-0.66,
986,-1.035,-0.68,
987,-1.02,-0.66,
988,-0.98,-0.655,
989,-0.91,-0.635,
990,-0.83,-0.585,
991,-0.715,-0.495,
992,-0.6,-0.345,
993,-0.46,-0.16,
994,-0.335,0.07,
995,-0.215,0.305,
996,-0.165,0.56,
997,-0.2,0.765,
998,-0.335,0.925,
999,-0.815,0.945,
1000,-1.095,0.795,
1001,-1.375,0.54,
1002,-1.605,0.17,
1003,-1.795,-0.235,
1004,-1.905,-0.66,
1005,-1.925,-1.01,
1006,-1.86,-1.195,N
1007,-1.76,-1.235,
1008,-1.645,-1.125,
1009,-1.55,-1.0,
1010,-1.465,-0.89,
1011,-1.395,-0.8,
1012,-1.31,-0.75,
1013,-1.225,-0.715,
1014,-1.155,-0.68,
1015,-1.075,-0.67,
1016,-1.02,-0.625,
1017,-0.985,-0.615,
1018,-0.995,-0.605,
1019,-0.99,-0.59,
1020,-1.0,-0.59,
1021,-1.005,-0.595,
1022,-1.005,-0.585,
1023,-0.99,-0.58,
1024,-0.99,-0.575,
1025,-0.975,-0.565,
1026,-0.96,-0.565,
1027,-0.94,-0.565,
1028,-0.92,-0.565,
1029,-0.925,-0.56,
1030,-0.935,-0.56,
1031,-0.935,-0.56,
1032,-0.93,-0.56,
1033,-0.945,-0.545,
1034,-0.92,-0.535,
1035,-0.93,-0.52,
1036,-0.925,-0.505,
1037,-0.91,-0.5,
1038,-0.89,-0.495,
1039,-0.88,-0.485,
1040,-0.87,-0.49,
1041,-0.87,-0.505,
1042,-0.895,-0.5,
1043,-0.89,-0.51,
1044,-0.905,-0.505,
1045,-0.905,-0.505,
1046,-0.895,-0.5,
1047,-0.895,-0.485,
1048,-0.875,-0.47,
1049,-0.875,-0.445,
1050,-0.85,-0.445,
1051,-0.855,-0.44,
1052,-0.84,-0.435,
1053,-0.845,-0.44,
1054,-0.87,-0.44,
1055,-0.865,-0.465,
1056,-0.865,-0.435,
1057,-0.855,-0.445,
1058,-0.855,-0.43,
1059,-0.835,-0.425,
1060,-0.82,-0.4,
1061,-0.795,-0.385,
1062,-0.81,-0.37,
1063,-0.79,-0.37,
1064,-0.785,-0.37,
1065,-0.78,-0.36,
1066,-0.785,-0.35,
1067,-0.795,-0.355,
1068,-0.79,-0.345,
1069,-0.77,-0.335,
1070,-0.77,-0.33,
1071,-0.745,-0.31,
1072,-0.735,-0.29,
1073,-0.725,-0.275,
1074,-0.695,-0.23,
1075,-0.66,-0.22,
1076,-0.645,-0.225,
1077,-0.65,-0.21,
1078,-0.635,-0.19,
1079,-0.62,-0.185,
1080,-0.615,-0.155,
1081,-0.61,-0.155,
1082,-0.585,-0.115,
1083,-0.565,-0.085,
1084,-0.535,-0.075,
1085,-0.51,-0.05,
1086,-0.49,-0.035,
1087,-0.47,-0.005,
1088,-0.445,0.01,
1089,-0.43,0.02,
1090,-0.43,0.035,
1091,-0.43,0.04,
1092,-0.415,0.07,
1093,-0.4,0.075,
1094,-0.39,0.105,
1095,-0.375,0.14,
1096,-0.355,0.16,
1097,-0.33,0.165,
1098,-0.295,0.205,
1099,-0.285,0.21,
1100,-0.285,0.225,
1101,-0.265,0.21,
1102,-0.28,0.2,
1103,-0.28,0.195,
1104,-0.285,0.21,
1105,-0.315,0.21,
1106,-0.295,0.215,
1107,-0.31,0.205,
1108,-0.295,0.215,
1109,-0.3,0.195,
1110,-0.305,0.2,
1111,-0.32,0.155,
1112,-0.345,0.12,
1113,-0.37,0.085,
1114,-0.4,0.05,
1115,-0.43,-0.01,
1116,-0.48,-0.045,
1117,-0.525,-0.09,
1118,-0.56,-0.13,
1119,-0.595,-0.16,
1120,-0.615,-0.185,
1121,-0.64,-0.23,
1122,-0.655,-0.255,
1123,-0.675,-0.305,
1124,-0.71,-0.35,
1125,-0.73,-0.38,
1126,-0.76,-0.415,
1127,-0.775,-0.455,
1128,-0.8,-0.47,
1129,-0.83,-0.5,
1130,-0.845,-0.52,
1131,-0.86,-0.525,
1132,-0.865,-0.53,
1133,-0.87,-0.53,
1134,-0.86,-0.535,
1135,-0.865,-0.555,
1136,-0.88,-0.555,
1137,-0.89,-0.58,
1138,-0.91,-0.6,
1139,-0.915,-0.62,
1140,-0.935,-0.61,
1141,-0.93,-0.63,
1142,-0.93,-0.62,
1143,-0.93,-0.62,
1144,-0.915,-0.625,
1145,-0.915,-0.615,
1146,-0.905,-0.6,
1147,-0.905,-0.615,
1148,-0.91,-0.615,
1149,-0.9,-0.625,
1150,-0.935,-0.65,
1151,-0.935,-0.645,
1152,-0.96,-0.65,
1153,-0.95,-0.66,
1154,-0.94,-0.65,
1155,-0.93,-0.635,
1156,-0.925,-0.64,
1157,-0.91,-0.62,
1158,-0.895,-0.605,
1159,-0.895,-0.605,
1160,-0.875,-0.61,
1161,-0.885,-0.615,
1162,-0.895,-0.615,
1163,-0.895,-0.635,
1164,-0.91,-0.65,
1165,-0.915,-0.625,
1166,-0.91,-0.625,
1167,-0.895,-0.595,
1168,-0.905,-0.59,
1169,-0.9,-0.58,
1170,-0.885,-0.57,
1171,-0.88,-0.575,
1172,-0.875,-0.59,
1173,-0.885,-0.585,
1174,-0.89,-0.61,
1175,-0.885,-0.615,
1176,-0.895,-0.61,
1177,-0.91,-0.595,
1178,-0.9,-0.605,
1179,-0.905,-0.59,
1180,-0.895,-0.575,
1181,-0.89,-0.58,
1182,-0.89,-0.565,
1183,-0.88,-0.58,
1184,-0.875,-0.58,
1185,-0.905,-0.6,
1186,-0.9,-0.595,
1187,-0.91,-0.615,
1188,-0.93,-0.61,
1189,-0.925,-0.62,
1190,-0.935,-0.615,
1191,-0.93,-0.605,
1192,-0.935,-0.61,
1193,-0.92,-0.595,
1194,-0.905,-0.585,
1195,-0.9,-0.6,
1196,-0.905,-0.615,
1197,-0.905,-0.635,
1198,-0.935,-0.65,
1199,-0.94,-0.675,
1200,-0.95,-0.675,
1201,-0.955,-0.67,
1202,-0.955,-0.665,
1203,-0.965,-0.66,
1204,-0.945,-0.65,
1205,-0.935,-0.645,
1206,-0.93,-0.64,
1207,-0.935,-0.635,
1208,-0.945,-0.655,
1209,-0.935,-0.66,
1210,-0.945,-0.655,
1211,-0.94,-0.675,
1212,-0.965,-0.685,
1213,-0.97,-0.695,
1214,-0.965,-0.68,
1215,-0.96,-0.675,
1216,-0.955,-0.655,
1217,-0.955,-0.65,
1218,-0.955,-0.655,
1219,-0.945,-0.665,
1220,-0.945,-0.665,
1221,-0.95,-0.68,
1222,-0.97,-0.695,
1223,-0.96,-0.685,
1224,-0.97,-0.7,
1225,-0.97,-0.7,
1226,-0.975,-0.695,
1227,-0.965,-0.69,
1228,-0.965,-0.675,
1229,-0.955,-0.665,
1230,-0.955,-0.645,
1231,-0.955,-0.665,
1232,-0.955,-0.665,
1233,-0.965,-0.67,
1234,-0.965,-0.68,
1235,-0.975,-0.68,
1236,-0.98,-0.675,
1237,-1.0,-0.685,
1238,-0.985,-0.685,
1239,-0.975,-0.68,
1240,-0.975,-0.665,
1241,-0.955,-0.655,
1242,-0.95,-0.645,
1243,-0.95,-0.65,
1244,-0.955,-0.665,
1245,-0.965,-0.665,
1246,-0.97,-0.665,
1247,-0.96,-0.68,
1248,-0.965,-0.685,
1249,-0.98,-0.68,
1250,-0.975,-0.68,
1251,-0.975,-0.66,
1252,-0.975,-0.655,
1253,-0.965,-0.645,
1254,-0.95,-0.64,
1255,-0.96,-0.67,
1256,-0.97,-0.66,
1257,-0.98,-0.66,
1258,-0.945,-0.67,
1259,-0.965,-0.68,
1260,-0.98,-0.675,
1261,-0.99,-0.685,
1262,-0.985,-0.69,
1263,-0.975,-0.67,
1264,-0.98,-0.66,
1265,-0.965,-0.65,
1266,-0.96,-0.65,
1267,-0.95,-0.655,
1268,-0.955,-0.67,
1269,-0.955,-0.68,
1270,-0.955,-0.665,
1271,-0.97,-0.675,
1272,-0.97,-0.68,
1273,-0.965,-0.68,
1274,-0.98,-0.68,
1275,-0.97,-0.67,
1276,-0.96,-0.665,
1277,-0.955,-0.655,
1278,-0.95,-0.65,
1279,-0.94,-0.64,
1280,-0.945,-0.655,
1281,-0.945,-0.67,
1282,-0.97,-0.685,
1283,-0.965,-0.67,
1284,-0.97,-0.675,
1285,-0.975,-0.675,
1286,-0.975,-0.66,
1287,-0.975,-0.675,
1288,-0.96,-0.65,
1289,-0.95,-0.645,
1290,-0.95,-0.635,
1291,-0.95,-0.63,
1292,-0.93,-0.64,
1293,-0.925,-0.655,
1294,-0.935,-0.655,
1295,-0.94,-0.675,
1296,-0.95,-0.665,
1297,-0.96,-0.67,
1298,-0.96,-0.66,
1299,-0.955,-0.65,
1300,-0.97,-0.635,
1301,-0.96,-0.625,
1302,-0.95,-0.62,
1303,-0.955,-0.625,
1304,-0.945,-0.625,
1305,-0.945,-0.635,
1306,-0.94,-0.65,
1307,-0.945,-0.65,
1308,-0.965,-0.655,
1309,-0.96,-0.645,
1310,-0.96,-0.645,
1311,-0.95,-0.625,
1312,-0.95,-0.63,
1313,-0.95,-0.635,
1314,-0.93,-0.62,
1315,-0.93,-0.625,
1316,-0.93,-0.61,
1317,-0.93,-0.63,
1318,-0.94,-0.64,
1319,-0.935,-0.645,
1320,-0.96,-0.67,
1321,-0.955,-0.675,
1322,-0.95,-0.675,
1323,-0.945,-0.645,
1324,-0.945,-0.65,
1325,-0.93,-0.63,
1326,-0.925,-0.61,
1327,-0.91,-0.615,
1328,-0.915,-0.63,
1329,-0.92,-0.615,
1330,-0.92,-0.63,
1331,-0.91,-0.625,
1332,-0.895,-0.645,
1333,-0.905,-0.635,
1334,-0.875,-0.62,
1335,-0.875,-0.615,
1336,-0.845,-0.605,
1337,-0.83,-0.615,
1338,-0.835,-0.59,
1339,-0.815,-0.595,
1340,-0.81,-0.595,
1341,-0.8,-0.57,
1342,-0.805,-0.56,
1343,-0.78,-0.565,
1344,-0.79,-0.53,
1345,-0.78,-0.54,
1346,-0.775,-0.52,
1347,-0.77,-0.49,
1348,-0.77,-0.46,
1349,-0.77,-0.445,
1350,-0.785,-0.425,
1351,-0.81,-0.42,
1352,-0.8,-0.445,
1353,-0.81,-0.445,
1354,-0.815,-0.455,
1355,-0.83,-0.455,
1356,-0.845,-0.48,
1357,-0.845,-0.475,
1358,-0.875,-0.49,
1359,-0.9,-0.48,
1360,-0.905,-0.48,
1361,-0.91,-0.5,
1362,-0.925,-0.515,
1363,-0.92,-0.535,
1364,-0.925,-0.55,
1365,-0.92,-0.585,
1366,-0.915,-0.58,
1367,-0.94,-0.605,
1368,-0.955,-0.61,
1369,-0.975,-0.615,
1370,-0.97,-0.595,
1371,-0.97,-0.585,
1372,-0.955,-0.59,
1373,-0.955,-0.59,
1374,-0.955,-0.57,
1375,-0.96,-0.59,
1376,-0.96,-0.605,
1377,-0.935,-0.605,
1378,-0.95,-0.61,
1379,-0.96,-0.64,
1380,-0.965,-0.625,
1381,-0.965,-0.62,
1382,-0.97,-0.61,
1383,-0.965,-0.62,
1384,-0.945,-0.6,
1385,-0.945,-0.6,
1386,-0.935,-0.585,
1387,-0.925,-0.6,
1388,-0.93,-0.6,
1389,-0.92,-0.605,
1390,-0.925,-0.6,
1391,-0.935,-0.625,
1392,-0.905,-0.64,
1393,-0.86,-0.635,
1394,-0.795,-0.615,
1395,-0.7,-0.545,
1396,-0.575,-0.43,
1397,-0.435,-0.265,
1398,-0.265,-0.045,
1399,-0.15,0.18,
1400,-0.035,0.44,
1401,-0.02,0.69,
1402,-0.06,0.92,
1403,-0.205,1.095,
1404,-0.425,1.165,
1405,-0.7,1.075,
1406,-0.98,0.845,
1407,-1.245,0.53,
1408,-1.475,0.14,N
1409,-1.62,-0.24,
1410,-1.66,-0.575,
1411,-1.615,-0.81,
1412,-1.5,-0.86,
1413,-1.375,-0.82,
1414,-1.265,-0.735,
1415,-1.165,-0.665,
1416,-1.105,-0.605,
1417,-1.045,-0.58,
1418,-0.985,-0.58,
1419,-0.915,-0.58,
1420,-0.905,-0.575,
1421,-0.87,-0.555,
1422,-0.835,-0.54,
1423,-0.835,-0.54,
1424,-0.84,-0.545,
1425,-0.855,-0.57,
1426,-0.87,-0.58,
1427,-0.855,-0.59,
1428,-0.845,-0.575,
1429,-0.855,-0.585,
1430,-0.835,-0.575,
1431,-0.825,-0.58,
1432,-0.82,-0.56,
1433,-0.81,-0.54,
1434,-0.805,-0.53,
1435,-0.795,-0.53,
1436,-0.795,-0.525,
1437,-0.785,-0.52,
1438,-0.785,-0.525,
1439,-0.795,-0.525,
1440,-0.805,-0.515,
1441,-0.805,-0.535,
1442,-0.805,-0.525,
1443,-0.82,-0.505,
1444,-0.79,-0.49,
1445,-0.785,-0.485,
1446,-0.76,-0.465,
1447,-0.75,-0.465,
1448,-0.74,-0.475,
1449,-0.745,-0.465,
1450,-0.74,-0.485,
1451,-0.765,-0.48,
1452,-0.765,-0.475,
1453,-0.78,-0.49,
1454,-0.76,-0.47,
1455,-0.76,-0.46,
1456,-0.745,-0.45,
1457,-0.735,-0.43,
1458,-0.725,-0.425,
1459,-0.72,-0.415,
1460,-0.705,-0.415,
1461,-0.705,-0.43,
1462,-0.71,-0.43,
1463,-0.71,-0.43,
1464,-0.705,-0.425,
1465,-0.735,-0.425,
1466,-0.705,-0.415,
1467,-0.695,-0.395,
1468,-0.685,-0.39,
1469,-0.665,-0.37,
1470,-0.65,-0.35,
1471,-0.645,-0.35,
1472,-0.63,-0.345,
1473,-0.635,-0.355,
1474,-0.635,-0.355,
1475,-0.645,-0.35,
1476,-0.64,-0.33,
1477,-0.615,-0.335,
1478,-0.6,-0.31,
1479,-0.59,-0.295,
1480,-0.58,-0.275,
1481,-0.55,-0.25,
1482,-0.535,-0.24,
1483,-0.515,-0.225,
1484,-0.51,-0.24,
1485,-0.495,-0.22,
1486,-0.48,-0.21,
1487,-0.475,-0.2,
1488,-0.465,-0.195,
1489,-0.455,-0.195,
1490,-0.44,-0.17,
1491,-0.435,-0.135,
1492,-0.41,-0.115,
1493,-0.375,-0.08,
1494,-0.355,-0.07,
1495,-0.33,-0.05,
1496,-0.305,-0.035,
1497,-0.3,-0.025,
1498,-0.3,-0.005,
1499,-0.285,-0.005,
1500,-0.295,0.01,
1501,-0.26,0.035,
1502,-0.25,0.045,
1503,-0.25,0.06,
1504,-0.215,0.1,
1505,-0.195,0.115,
1506,-0.2,0.125,
1507,-0.175,0.135,
1508,-0.175,0.145,
1509,-0.15,0.125,
1510,-0.16,0.125,
1511,-0.165,0.12,
1512,-0.17,0.135,
1513,-0.185,0.13,
1514,-0.185,0.145,
1515,-0.195,0.13,
1516,-0.19,0.125,
1517,-0.21,0.125,
1518,-0.215,0.11,
1519,-0.23,0.075,
1520,-0.255,0.065,
1521,-0.3,0.015,
1522,-0.33,-0.02,
1523,-0.375,-0.07,
1524,-0.4,-0.085,
1525,-0.43,-0.125,
1526,-0.445,-0.15,
1527,-0.475,-0.175,
1528,-0.505,-0.2,
1529,-0.52,-0.235,
1530,-0.55,-0.245,
1531,-0.555,-0.285,
1532,-0.58,-0.335,
1533,-0.605,-0.35,
1534,-0.65,-0.39,
1535,-0.685,-0.42,
1536,-0.705,-0.43,
1537,-0.725,-0.46,
1538,-0.74,-0.475,
1539,-0.74,-0.48,
1540,-0.75,-0.49,
1541,-0.76,-0.495,
1542,-0.765,-0.5,
1543,-0.76,-0.515,
1544,-0.775,-0.515,
1545,-0.785,-0.56,
1546,-0.79,-0.565,
1547,-0.8,-0.58,
1548,-0.81,-0.59,
1549,-0.825,-0.595,
1550,-0.83,-0.6,
1551,-0.825,-0.59,
1552,-0.825,-0.58,
1553,-0.815,-0.59,
1554,-0.805,-0.58,
1555,-0.815,-0.6,
1556,-0.805,-0.595,
1557,-0.82,-0.61,
1558,-0.82,-0.6,
1559,-0.83,-0.63,
1560,-0.845,-0.63,
1561,-0.845,-0.635,
1562,-0.845,-0.635,
1563,-0.85,-0.615,
1564,-0.84,-0.61,
1565,-0.815,-0.615,
1566,-0.8,-0.62,
1567,-0.8,-0.605,
1568,-0.795,-0.6,
1569,-0.79,-0.62,
1570,-0.795,-0.625,
1571,-0.8,-0.625,
1572,-0.815,-0.64,
1573,-0.82,-0.62,
1574,-0.855,-0.63,
1575,-0.84,-0.63,
1576,-0.83,-0.59,
1577,-0.8,-0.59,
1578,-0.785,-0.6,
1579,-0.78,-0.59,
1580,-0.785,-0.605,
1581,-0.785,-0.62,
1582,-0.79,-0.62,
1583,-0.805,-0.61,
1584,-0.815,-0.63,
1585,-0.83,-0.635,
1586,-0.84,-0.62,
1587,-0.825,-0.615,
1588,-0.815,-0.61,
1589,-0.815,-0.6,
1590,-0.81,-0.585,
1591,-0.815,-0.6,
1592,-0.82,-0.61,
1593,-0.835,-0.605,
1594,-0.82,-0.645,
1595,-0.84,-0.645,
1596,-0.855,-0.65,
1597,-0.855,-0.66,
1598,-0.865,-0.635,
1599,-0.85,-0.64,
1600,-0.855,-0.63,
1601,-0.845,-0.625,
1602,-0.84,-0.615,
1603,-0.85,-0.605,
1604,-0.85,-0.625,
1605,-0.855,-0.64,
1606,-0.875,-0.64,
1607,-0.89,-0.645,
1608,-0.885,-0.625,
1609,-0.895,-0.65,
1610,-0.895,-0.645,
1611,-0.895,-0.625,
1612,-0.885,-0.63,
1613,-0.905,-0.635,
1614,-0.88,-0.615,
1615,-0.885,-0.615,
1616,-0.87,-0.625,
1617,-0.885,-0.64,
1618,-0.88,-0.65,
1619,-0.89,-0.665,
1620,-0.905,-0.67,
1621,-0.905,-0.68,
1622,-0.91,-0.67,
1623,-0.9,-0.67,
1624,-0.915,-0.66,
1625,-0.905,-0.655,
1626,-0.905,-0.645,
1627,-0.885,-0.665,
1628,-0.895,-0.665,
1629,-0.9,-0.67,
1630,-0.9,-0.69,
1631,-0.905,-0.69,
1632,-0.91,-0.7,
1633,-0.91,-0.71,
1634,-0.91,-0.695,
1635,-0.905,-0.68,
1636,-0.93,-0.685,
1637,-0.905,-0.675,
1638,-0.9,-0.68,
1639,-0.9,-0.68,
1640,-0.905,-0.67,
1641,-0.905,-0.69,
1642,-0.935,-0.695,
1643,-0.925,-0.705,
1644,-0.92,-0.725,
1645,-0.935,-0.73,
1646,-0.94,-0.7,
1647,-0.925,-0.71,
1648,-0.935,-0.685,
1649,-0.91,-0.7,
1650,-0.91,-0.68,
1651,-0.915,-0.67,
1652,-0.92,-0.68,
1653,-0.92,-0.685,
1654,-0.92,-0.685,
1655,-0.93,-0.7,
1656,-0.92,-0.705,
1657,-0.94,-0.705,
1658,-0.945,-0.7,
1659,-0.94,-0.68,
1660,-0.935,-0.69,
1661,-0.945,-0.685,
1662,-0.935,-0.67,
1663,-0.925,-0.665,
1664,-0.935,-0.675,
1665,-0.92,-0.69,
1666,-0.935,-0.68,
1667,-0.935,-0.69,
1668,-0.935,-0.69,
1669,-0.945,-0.715,
1670,-0.94,-0.71,
1671,-0.95,-0.68,
1672,-0.925,-0.68,
1673,-0.935,-0.675,
1674,-0.925,-0.655,
1675,-0.925,-0.685,
1676,-0.925,-0.685,
1677,-0.925,-0.69,
1678,-0.945,-0.715,
1679,-0.945,-0.72,
1680,-0.945,-0.705,
1681,-0.96,-0.715,
1682,-0.955,-0.705,
1683,-0.945,-0.705,
1684,-0.94,-0.685,
1685,-0.92,-0.685,
1686,-0.915,-0.685,
1687,-0.91,-0.69,
1688,-0.91,-0.7,
1689,-0.91,-0.7,
1690,-0.93,-0.715,
1691,-0.925,-0.715,
1692,-0.93,-0.71,
1693,-0.95,-0.7,
1694,-0.955,-0.7,
1695,-0.935,-0.695,
1696,-0.92,-0.705,
1697,-0.94,-0.67,
1698,-0.925,-0.7,
1699,-0.915,-0.695,
1700,-0.91,-0.7,
1701,-0.91,-0.7,
1702,-0.925,-0.715,
1703,-0.93,-0.725,
1704,-0.95,-0.725,
1705,-0.95,-0.73,
1706,-0.96,-0.72,
1707,-0.95,-0.71,
1708,-0.935,-0.68,
1709,-0.94,-0.685,
1710,-0.93,-0.68,
1711,-0.93,-0.685,
1712,-0.92,-0.695,
1713,-0.93,-0.695,
1714,-0.925,-0.695,
1715,-0.925,-0.715,
1716,-0.93,-0.7,
1717,-0.94,-0.695,
1718,-0.94,-0.705,
1719,-0.92,-0.685,
1720,-0.915,-0.69,
1721,-0.925,-0.675,
1722,-0.91,-0.665,
1723,-0.915,-0.675,
1724,-0.91,-0.675,
1725,-0.9,-0.67,
1726,-0.91,-0.68,
1727,-0.93,-0.7,
1728,-0.925,-0.69,
1729,-0.945,-0.695,
1730,-0.95,-0.7,
1731,-0.945,-0.675,
1732,-0.935,-0.66,
1733,-0.915,-0.665,
1734,-0.905,-0.655,
1735,-0.9,-0.66,
1736,-0.895,-0.655,
1737,-0.89,-0.675,
1738,-0.895,-0.67,
1739,-0.9,-0.695,
1740,-0.925,-0.685,
1741,-0.935,-0.68,
1742,-0.925,-0.68,
1743,-0.92,-0.68,
1744,-0.92,-0.665,
1745,-0.92,-0.67,
1746,-0.915,-0.665,
1747,-0.895,-0.68,
1748,-0.895,-0.67,
1749,-0.895,-0.67,
1750,-0.9,-0.685,
1751,-0.9,-0.675,
1752,-0.905,-0.695,
1753,-0.9,-0.695,
1754,-0.885,-0.685,
1755,-0.885,-0.695,
1756,-0.865,-0.66,
1757,-0.85,-0.65,
1758,-0.83,-0.655,
1759,-0.83,-0.66,
1760,-0.81,-0.66,
1761,-0.83,-0.665,
1762,-0.82,-0.67,
1763,-0.82,-0.665,
1764,-0.82,-0.64,
1765,-0.81,-0.655,
1766,-0.795,-0.65,
1767,-0.785,-0.62,
1768,-0.755,-0.595,
1769,-0.73,-0.57,
1770,-0.73,-0.565,
1771,-0.71,-0.56,
1772,-0.7,-0.545,
1773,-0.71,-0.52,
1774,-0.745,-0.52,
1775,-0.75,-0.515,
1776,-0.785,-0.515,
1777,-0.82,-0.53,
1778,-0.815,-0.52,
1779,-0.82,-0.505,
1780,-0.81,-0.505,
1781,-0.81,-0.515,
1782,-0.82,-0.505,
1783,-0.82,-0.505,
1784,-0.835,-0.53,
1785,-0.855,-0.545,
1786,-0.895,-0.57,
1787,-0.91,-0.595,
1788,-0.915,-0.62,
1789,-0.925,-0.64,
1790,-0.925,-0.65,
1791,-0.925,-0.64,
1792,-0.915,-0.635,
1793,-0.93,-0.645,
1794,-0.92,-0.635,
1795,-0.92,-0.64,
1796,-0.935,-0.645,
1797,-0.95,-0.655,
1798,-0.965,-0.675,
1799,-0.965,-0.675,
1800,-0.995,-0.68,
1801,-0.98,-0.69,
1802,-0.985,-0.685,
1803,-0.975,-0.675,
1804,-0.955,-0.66,
1805,-0.97,-0.665,
1806,-0.94,-0.65,
1807,-0.925,-0.655,
1808,-0.94,-0.67,
1809,-0.96,-0.67,
1810,-0.95,-0.695,
1811,-0.95,-0.685,
1812,-0.975,-0.695,
1813,-0.965,-0.685,
1814,-0.96,-0.67,
1815,-0.96,-0.665,
1816,-0.925,-0.675,
1817,-0.9,-0.675,
1818,-0.86,-0.67,
1819,-0.79,-0.65,
1820,-0.705,-0.59,
1821,-0.605,-0.5,
1822,-0.495,-0.35,
1823,-0.355,-0.165,
1824,-0.23,0.05,
1825,-0.145,0.3,
1826,-0.11,0.565,
1827,-0.18,0.775,
1828,-0.31,0.925,
1829,-0.53,0.97,
1830,-0.77,0.875,
1831,-1.01,0.65,
1832,-1.28,0.315,
1833,-1.495,-0.065,
1834,-1.67,-0.455,N
1835,-1.71,-0.785,
1836,-1.695,-0.995,
1837,-1.6,-1.05,
1838,-1.49,-0.99,
1839,-1.38,-0.885,
1840,-1.255,-0.765,
1841,-1.155,-0.725,
1842,-1.095,-0.675,
1843,-1.015,-0.66,
1844,-0.96,-0.645,
1845,-0.9,-0.645,
1846,-0.89,-0.64,
1847,-0.875,-0.645,
1848,-0.875,-0.645,
1849,-0.885,-0.64,
1850,-0.9,-0.655,
1851,-0.915,-0.64,
1852,-0.905,-0.635,
1853,-0.88,-0.63,
1854,-0.85,-0.625,
1855,-0.84,-0.625,
1856,-0.835,-0.625,
1857,-0.845,-0.625,
1858,-0.835,-0.625,
1859,-0.825,-0.635,
1860,-0.845,-0.625,
1861,-0.835,-0.62,
1862,-0.85,-0.615,
1863,-0.84,-0.595,
1864,-0.84,-0.575,
1865,-0.825,-0.575,
1866,-0.83,-0.56,
1867,-0.815,-0.58,
1868,-0.805,-0.57,
1869,-0.82,-0.575,
1870,-0.815,-0.6,
1871,-0.82,-0.6,
1872,-0.825,-0.59,
1873,-0.83,-0.595,
1874,-0.82,-0.585,
1875,-0.805,-0.565,
1876,-0.79,-0.535,
1877,-0.785,-0.545,
1878,-0.77,-0.52,
1879,-0.775,-0.51,
1880,-0.765,-0.515,
1881,-0.765,-0.515,
1882,-0.77,-0.535,
1883,-0.765,-0.53,
1884,-0.795,-0.54,
1885,-0.79,-0.53,
1886,-0.795,-0.545,
1887,-0.795,-0.5,
1888,-0.765,-0.49,
1889,-0.75,-0.495,
1890,-0.755,-0.465,
1891,-0.73,-0.49,
1892,-0.735,-0.475,
1893,-0.725,-0.475,
1894,-0.72,-0.465,
1895,-0.725,-0.49,
1896,-0.73,-0.475,
1897,-0.73,-0.48,
1898,-0.725,-0.46,
1899,-0.735,-0.445,
1900,-0.705,-0.42,
1901,-0.685,-0.395,
1902,-0.675,-0.37,
1903,-0.65,-0.37,
1904,-0.635,-0.37,
1905,-0.635,-0.35,
1906,-0.625,-0.36,
1907,-0.625,-0.345,
1908,-0.61,-0.325,
1909,-0.615,-0.32,
1910,-0.6,-0.305,
1911,-0.575,-0.28,
1912,-0.56,-0.25,
1913,-0.545,-0.235,
1914,-0.525,-0.2,
1915,-0.485,-0.195,
1916,-0.475,-0.17,
1917,-0.46,-0.15,
1918,-0.425,-0.15,
1919,-0.425,-0.14,
1920,-0.405,-0.14,
1921,-0.43,-0.105,
1922,-0.395,-0.09,
1923,-0.375,-0.07,
1924,-0.365,-0.035,
1925,-0.345,-0.015,
1926,-0.295,0.005,
1927,-0.265,0.045,
1928,-0.255,0.055,
1929,-0.245,0.05,
1930,-0.25,0.05,
1931,-0.26,0.075,
1932,-0.26,0.075,
1933,-0.27,0.08,
1934,-0.26,0.09,
1935,-0.26,0.11,
1936,-0.255,0.1,
1937,-0.26,0.11,
1938,-0.27,0.11,
1939,-0.26,0.09,
1940,-0.265,0.075,
1941,-0.29,0.055,
1942,-0.32,0.0,
1943,-0.345,-0.03,
1944,-0.39,-0.065,
1945,-0.405,-0.095,
1946,-0.455,-0.12,
1947,-0.49,-0.165,
1948,-0.51,-0.185,
1949,-0.53,-0.22,
1950,-0.57,-0.26,
1951,-0.6,-0.31,
1952,-0.62,-0.33,
1953,-0.65,-0.385,
1954,-0.69,-0.43,
1955,-0.715,-0.465,
1956,-0.755,-0.49,
1957,-0.765,-0.52,
1958,-0.79,-0.545,
1959,-0.81,-0.565,
1960,-0.815,-0.555,
1961,-0.82,-0.56,
1962,-0.81,-0.565,
1963,-0.82,-0.55,
1964,-0.84,-0.575,
1965,-0.855,-0.595,
1966,-0.86,-0.59,
1967,-0.88,-0.61,
1968,-0.885,-0.62,
1969,-0.89,-0.63,
1970,-0.895,-0.63,
1971,-0.895,-0.63,
1972,-0.895,-0.63,
1973,-0.89,-0.63,
1974,-0.88,-0.625,
1975,-0.885,-0.63,
1976,-0.885,-0.65,
1977,-0.87,-0.66,
1978,-0.88,-0.66,
1979,-0.895,-0.67,
1980,-0.9,-0.67,
1981,-0.89,-0.685,
1982,-0.905,-0.665,
1983,-0.915,-0.67,
1984,-0.915,-0.645,
1985,-0.885,-0.63,
1986,-0.895,-0.625,
1987,-0.875,-0.63,
1988,-0.9,-0.645,
1989,-0.915,-0.635,
1990,-0.91,-0.66,
1991,-0.91,-0.685,
1992,-0.905,-0.65,
1993,-0.91,-0.665,
1994,-0.91,-0.64,
1995,-0.925,-0.645,
1996,-0.91,-0.63,
1997,-0.895,-0.63,
1998,-0.895,-0.61,
1999,-0.89,-0.62,
2000,-0.88,-0.62,
2001,-0.895,-0.615,
2002,-0.89,-0.615,
2003,-0.9,-0.615,
2004,-0.905,-0.635,
2005,-0.915,-0.635,
2006,-0.925,-0.635,
2007,-0.925,-0.625,
2008,-0.91,-0.62,
2009,-0.895,-0.59,
2010,-0.895,-0.59,
2011,-0.87,-0.585,
2012,-0.885,-0.59,
2013,-0.885,-0.585,
2014,-0.905,-0.595,
2015,-0.92,-0.62,
2016,-0.93,-0.64,
2017,-0.92,-0.635,
2018,-0.935,-0.615,
2019,-0.945,-0.635,
2020,-0.935,-0.61,
2021,-0.955,-0.615,
2022,-0.93,-0.615,
2023,-0.92,-0.59,
2024,-0.93,-0.61,
2025,-0.945,-0.615,
2026,-0.95,-0.64,
2027,-0.96,-0.65,
2028,-0.98,-0.655,
2029,-0.975,-0.665,
2030,-0.975,-0.645,
2031,-0.99,-0.65,
2032,-0.97,-0.65,
2033,-0.965,-0.635,
2034,-0.96,-0.63,
2035,-0.945,-0.64,
2036,-0.955,-0.635,
2037,-0.95,-0.635,
2038,-0.985,-0.665,
2039,-1.0,-0.68,
2040,-1.015,-0.685,
2041,-1.0,-0.68,
2042,-1.0,-0.675,
2043,-0.99,-0.67,
2044,-0.995,-0.66,
2045,-0.98,-0.64,
2046,-0.975,-0.635,
2047,-0.97,-0.645,
2048,-0.96,-0.645,
2049,-0.965,-0.665,
2050,-0.985,-0.665,
2051,-1.0,-0.69,
2052,-1.005,-0.69,
2053,-1.01,-0.69,
2054,-1.015,-0.68,
2055,-1.015,-0.68,
2056,-1.01,-0.67,
2057,-1.0,-0.65,
2058,-0.99,-0.655,
2059,-0.99,-0.645,
2060,-0.98,-0.66,
2061,-0.975,-0.67,
2062,-0.985,-0.665,
2063,-0.98,-0.68,
2064,-0.995,-0.7,
2065,-1.005,-0.7,
2066,-1.025,-0.695,
2067,-1.025,-0.705,
2068,-1.005,-0.685,
2069,-1.01,-0.68,
2070,-0.99,-0.66,
2071,-0.99,-0.655,
2072,-0.98,-0.665,
2073,-1.0,-0.665,
2074,-1.005,-0.68,
2075,-1.015,-0.695,
2076,-1.03,-0.71,
2077,-1.025,-0.7,
2078,-1.02,-0.69,
2079,-1.025,-0.7,
2080,-1.01,-0.68,
2081,-1.01,-0.68,
2082,-0.995,-0.665,
2083,-1.0,-0.66,
2084,-1.02,-0.665,
2085,-1.02,-0.69,
2086,-1.035,-0.69,
2087,-1.025,-0.695,
2088,-1.03,-0.705,
2089,-1.055,-0.72,
2090,-1.055,-0.705,
2091,-1.055,-0.705,
2092,-1.035,-0.68,
2093,-1.01,-0.675,
2094,-1.005,-0.655,
2095,-1.0,-0.64,
2096,-1.01,-0.65,
2097,-1.0,-0.67,
2098,-1.005,-0.685,
2099,-1.03,-0.675,
2100,-1.025,-0.685,
2101,-1.035,-0.685,
2102,-1.035,-0.69,
2103,-1.03,-0.675,
2104,-1.025,-0.675,
2105,-1.025,-0.655,
2106,-1.015,-0.665,
2107,-1.02,-0.675,
2108,-1.02,-0.68,
2109,-1.01,-0.69,
2110,-1.015,-0.695,
2111,-1.035,-0.695,
2112,-1.045,-0.72,
2113,-1.04,-0.71,
2114,-1.03,-0.705,
2115,-1.04,-0.7,
2116,-1.04,-0.695,
2117,-1.03,-0.675,
2118,-1.02,-0.67,
2119,-1.01,-0.67,
2120,-0.995,-0.665,
2121,-1.0,-0.69,
2122,-1.005,-0.695,
2123,-1.035,-0.715,
2124,-1.06,-0.71,
2125,-1.045,-0.71,
2126,-1.045,-0.7,
2127,-1.04,-0.695,
2128,-1.025,-0.69,
2129,-1.03,-0.68,
2130,-1.01,-0.665,
2131,-1.0,-0.68,
2132,-1.005,-0.67,
2133,-1.015,-0.675,
2134,-1.005,-0.66,
2135,-1.02,-0.68,
2136,-1.025,-0.695,
2137,-1.015,-0.685,
2138,-1.03,-0.68,
2139,-1.02,-0.675,
2140,-1.025,-0.66,
2141,-1.02,-0.65,
2142,-1.025,-0.655,
2143,-1.0,-0.65,
2144,-1.01,-0.63,
2145,-1.01,-0.64,
2146,-0.995,-0.675,
2147,-1.005,-0.66,
2148,-1.01,-0.65,
2149,-1.01,-0.655,
2150,-1.025,-0.67,
2151,-1.03,-0.65,
2152,-1.015,-0.65,
2153,-1.02,-0.63,
2154,-1.005,-0.63,
2155,-0.99,-0.635,
2156,-0.995,-0.63,
2157,-0.985,-0.64,
2158,-1.01,-0.635,
2159,-1.005,-0.66,
2160,-1.005,-0.675,
2161,-1.02,-0.665,
2162,-1.03,-0.67,
2163,-1.015,-0.65,
2164,-1.005,-0.645,
2165,-0.99,-0.625,
2166,-0.97,-0.62,
2167,-0.97,-0.61,
2168,-0.965,-0.63,
2169,-0.97,-0.62,
2170,-0.94,-0.65,
2171,-0.925,-0.645,
2172,-0.925,-0.675,
2173,-0.93,-0.68,
2174,-0.94,-0.68,
2175,-0.94,-0.665,
2176,-0.935,-0.645,
2177,-0.915,-0.625,
2178,-0.895,-0.585,
2179,-0.87,-0.585,
2180,-0.86,-0.59,
2181,-0.83,-0.565,
2182,-0.84,-0.565,
2183,-0.84,-0.56,
2184,-0.845,-0.555,
2185,-0.84,-0.54,
2186,-0.855,-0.51,
2187,-0.865,-0.5,
2188,-0.87,-0.49,
2189,-0.865,-0.47,
2190,-0.86,-0.475,
2191,-0.865,-0.48,
2192,-0.875,-0.49,
2193,-0.875,-0.515,
2194,-0.895,-0.49,
2195,-0.93,-0.53,
2196,-0.96,-0.53,
2197,-1.005,-0.55,
2198,-1.01,-0.55,
2199,-1.015,-0.575,
2200,-1.04,-0.56,
2201,-1.025,-0.565,
2202,-1.01,-0.59,
2203,-1.015,-0.605,
2204,-1.005,-0.61,
2205,-1.01,-0.63,
2206,-1.015,-0.645,
2207,-1.03,-0.645,
2208,-1.04,-0.66,
2209,-1.045,-0.655,
2210,-1.06,-0.655,
2211,-1.06,-0.66,
2212,-1.065,-0.655,
2213,-1.065,-0.65,
2214,-1.045,-0.63,
2215,-1.03,-0.635,
2216,-1.03,-0.62,
2217,-1.015,-0.635,
2218,-1.02,-0.64,
2219,-1.03,-0.66,
2220,-1.03,-0.665,
2221,-1.03,-0.67,
2222,-1.04,-0.665,
2223,-1.04,-0.66,
2224,-1.035,-0.64,
2225,-1.025,-0.615,
2226,-1.015,-0.62,
2227,-1.0,-0.6,
2228,-0.985,-0.63,
2229,-0.995,-0.63,
2230,-0.975,-0.635,
2231,-0.96,-0.65,
2232,-0.885,-0.615,
2233,-0.8,-0.565,
2234,-0.71,-0.465,
2235,-0.6,-0.3,
2236,-0.445,-0.075,
2237,-0.3,0.17,
2238,-0.18,0.43,
2239,-0.13,0.68,
2240,-0.195,0.885,
2241,-0.36,1.02,
2242,-0.6,1.03,
2243,-0.885,0.935,
2244,-1.185,0.695,
2245,-1.455,0.355,
2246,-1.7,-0.06,
2247,-1.86,-0.5,
2248,-1.92,-0.885,
2249,-1.875,-1.145,N
2250,-1.76,-1.21,
2251,-1.62,-1.125,
2252,-1.505,-0.995,
2253,-1.415,-0.885,
2254,-1.34,-0.805,
2255,-1.29,-0.785,
2256,-1.23,-0.76,
2257,-1.165,-0.735,
2258,-1.095,-0.7,
2259,-1.04,-0.655,
2260,-0.99,-0.63,
2261,-0.96,-0.62,
2262,-0.945,-0.6,
2263,-0.935,-0.605,
2264,-0.94,-0.605,
2265,-0.94,-0.625,
2266,-0.945,-0.625,
2267,-0.935,-0.625,
2268,-0.945,-0.635,
2269,-0.93,-0.625,
2270,-0.935,-0.61,
2271,-0.93,-0.62,
2272,-0.91,-0.585,
2273,-0.89,-0.585,
2274,-0.885,-0.565,
2275,-0.87,-0.565,
2276,-0.885,-0.575,
2277,-0.875,-0.57,
2278,-0.875,-0.575,
2279,-0.88,-0.585,
2280,-0.885,-0.58,
2281,-0.88,-0.575,
2282,-0.89,-0.57,
2283,-0.875,-0.56,
2284,-0.87,-0.55,
2285,-0.855,-0.55,
2286,-0.845,-0.53,
2287,-0.82,-0.545,
2288,-0.825,-0.525,
2289,-0.815,-0.515,
2290,-0.83,-0.52,
2291,-0.835,-0.54,
2292,-0.865,-0.535,
2293,-0.86,-0.545,
2294,-0.845,-0.51,
2295,-0.845,-0.515,
2296,-0.83,-0.51,
2297,-0.815,-0.485,
2298,-0.795,-0.47,
2299,-0.805,-0.465,
2300,-0.8,-0.46,
2301,-0.79,-0.47,
2302,-0.775,-0.465,
2303,-0.78,-0.47,
2304,-0.775,-0.465,
2305,-0.775,-0.46,
2306,-0.785,-0.445,
2307,-0.77,-0.44,
2308,-0.745,-0.42,
2309,-0.74,-0.4,
2310,-0.715,-0.39,
2311,-0.705,-0.395,
2312,-0.7,-0.39,
2313,-0.7,-0.365,
2314,-0.685,-0.375,
2315,-0.695,-0.355,
2316,-0.69,-0.36,
2317,-0.665,-0.355,
2318,-0.65,-0.335,
2319,-0.645,-0.31,
2320,-0.62,-0.275,
2321,-0.605,-0.26,
2322,-0.585,-0.245,
2323,-0.555,-0.23,
2324,-0.54,-0.205,
2325,-0.52,-0.205,
2326,-0.495,-0.195,
2327,-0.485,-0.19,
2328,-0.495,-0.19,
2329,-0.475,-0.18,
2330,-0.48,-0.15,
2331,-0.455,-0.13,
2332,-0.42,-0.09,
2333,-0.4,-0.09,
2334,-0.39,-0.03,
2335,-0.365,-0.035,
2336,-0.375,-0.015,
2337,-0.355,-0.025,
2338,-0.365,0.0,
2339,-0.335,0.005,
2340,-0.325,-0.005,
2341,-0.32,0.015,
2342,-0.305,0.03,
2343,-0.31,0.04,
2344,-0.295,0.05,
2345,-0.295,0.07,
2346,-0.295,0.08,
2347,-0.285,0.095,
2348,-0.28,0.09,
2349,-0.3,0.075,
2350,-0.305,0.07,
2351,-0.32,0.06,
2352,-0.305,0.035,
2353,-0.335,0.03,
2354,-0.34,0.025,
2355,-0.35,0.01,
2356,-0.365,0.005,
2357,-0.37,-0.02,
2358,-0.38,-0.055,
2359,-0.39,-0.085,
2360,-0.415,-0.125,
2361,-0.46,-0.15,
2362,-0.5,-0.195,
2363,-0.55,-0.23,
2364,-0.565,-0.285,
2365,-0.595,-0.32,
2366,-0.62,-0.35,
2367,-0.655,-0.375,
2368,-0.68,-0.385,
2369,-0.685,-0.41,
2370,-0.7,-0.445,
2371,-0.725,-0.48,
2372,-0.755,-0.49,
2373,-0.775,-0.51,
2374,-0.8,-0.565,
2375,-0.825,-0.58,
2376,-0.835,-0.62,
2377,-0.845,-0.62,
2378,-0.865,-0.645,
2379,-0.86,-0.64,
2380,-0.865,-0.63,
2381,-0.875,-0.64,
2382,-0.88,-0.645,
2383,-0.865,-0.655,
2384,-0.88,-0.665,
2385,-0.9,-0.67,
2386,-0.905,-0.7,
2387,-0.915,-0.7,
2388,-0.91,-0.725,
2389,-0.92,-0.72,
2390,-0.92,-0.725,
2391,-0.915,-0.705,
2392,-0.9,-0.71,
2393,-0.9,-0.705,
2394,-0.895,-0.695,
2395,-0.89,-0.695,
2396,-0.895,-0.695,
2397,-0.895,-0.695,
2398,-0.9,-0.72,
2399,-0.9,-0.715,
2400,-0.91,-0.74,
2401,-0.915,-0.745,
2402,-0.925,-0.745,
2403,-0.91,-0.735,
2404,-0.915,-0.715,
2405,-0.9,-0.715,
2406,-0.885,-0.705,
2407,-0.865,-0.685,
2408,-0.875,-0.695,
2409,-0.875,-0.69,
2410,-0.885,-0.705,
2411,-0.9,-0.71,
2412,-0.9,-0.725,
2413,-0.9,-0.725,
2414,-0.91,-0.7,
2415,-0.925,-0.71,
2416,-0.89,-0.695,
2417,-0.895,-0.685,
2418,-0.875,-0.685,
2419,-0.885,-0.67,
2420,-0.89,-0.68,
2421,-0.895,-0.675,
2422,-0.89,-0.695,
2423,-0.9,-0.695,
2424,-0.91,-0.705,
2425,-0.915,-0.7,
2426,-0.93,-0.705,
2427,-0.905,-0.68,
2428,-0.915,-0.685,
2429,-0.9,-0.665,
2430,-0.895,-0.66,
2431,-0.89,-0.665,
2432,-0.89,-0.67,
2433,-0.895,-0.675,
2434,-0.9,-0.68,
2435,-0.93,-0.69,
2436,-0.935,-0.7,
2437,-0.945,-0.705,
2438,-0.95,-0.7,
2439,-0.965,-0.705,
2440,-0.96,-0.7,
2441,-0.95,-0.68,
2442,-0.935,-0.67,
2443,-0.905,-0.675,
2444,-0.92,-0.675,
2445,-0.92,-0.695,
2446,-0.93,-0.71,
2447,-0.95,-0.73,
2448,-0.95,-0.73,
2449,-0.965,-0.725,
2450,-0.98,-0.735,
2451,-0.965,-0.74,
2452,-0.96,-0.72,
2453,-0.965,-0.73,
2454,-0.94,-0.72,
2455,-0.94,-0.725,
2456,-0.945,-0.73,
2457,-0.94,-0.74,
2458,-0.95,-0.75,
2459,-0.97,-0.76,
2460,-0.97,-0.76,
2461,-0.98,-0.77,
2462,-0.99,-0.77,
2463,-0.98,-0.75,
2464,-0.97,-0.74,
2465,-0.97,-0.75,
2466,-0.96,-0.73,
2467,-0.95,-0.74,
2468,-0.955,-0.735,
2469,-0.955,-0.735,
2470,-0.975,-0.755,
2471,-0.99,-0.78,
2472,-0.99,-0.775,
2473,-0.995,-0.775,
2474,-0.995,-0.77,
2475,-0.99,-0.785,
2476,-0.99,-0.78,
2477,-0.98,-0.755,
2478,-0.98,-0.76,
2479,-0.98,-0.765,
2480,-0.97,-0.765,
2481,-0.965,-0.76,
2482,-0.97,-0.77,
2483,-0.98,-0.79,
2484,-0.99,-0.795,
2485,-0.98,-0.8,
2486,-0.985,-0.785,
2487,-1.0,-0.79,
2488,-1.01,-0.775,
2489,-0.985,-0.745,
2490,-0.975,-0.765,
2491,-0.97,-0.745,
2492,-0.975,-0.755,
2493,-0.98,-0.755,
2494,-0.995,-0.77,
2495,-0.99,-0.78,
2496,-1.005,-0.775,
2497,-0.99,-0.765,
2498,-1.005,-0.75,
2499,-1.01,-0.755,
2500,-0.98,-0.74,
2501,-0.98,-0.74,
2502,-0.98,-0.7,
2503,-0.965,-0.72,
2504,-0.965,-0.7,
2505,-0.97,-0.715,
2506,-0.98,-0.735,
2507,-0.98,-0.755,
2508,-0.985,-0.75,
2509,-0.98,-0.75,
2510,-1.0,-0.74,
2511,-0.99,-0.73,
2512,-0.99,-0.745,
2513,-0.985,-0.73,
2514,-0.96,-0.705,
2515,-0.945,-0.72,
2516,-0.955,-0.71,
2517,-0.975,-0.725,
2518,-0.98,-0.74,
2519,-0.975,-0.735,
2520,-0.985,-0.75,
2521,-0.99,-0.755,
2522,-1.005,-0.74,
2523,-1.01,-0.735,
2524,-1.005,-0.72,
2525,-0.99,-0.715,
2526,-0.98,-0.715,
2527,-0.97,-0.715,
2528,-0.975,-0.71,
2529,-0.995,-0.72,
2530,-0.98,-0.735,
2531,-0.98,-0.725,
2532,-0.99,-0.75,
2533,-0.995,-0.745,
2534,-0.995,-0.73,
2535,-0.99,-0.735,
2536,-0.985,-0.725,
2537,-0.98,-0.715,
2538,-0.97,-0.71,
2539,-0.965,-0.7,
2540,-0.97,-0.71,
2541,-0.985,-0.72,
2542,-0.98,-0.72,
2543,-0.99,-0.725,
2544,-1.0,-0.74,
2545,-1.0,-0.75,
2546,-0.995,-0.725,
2547,-0.995,-0.74,
2548,-0.985,-0.73,
2549,-0.965,-0.715,
2550,-0.96,-0.715,
2551,-0.945,-0.715,
2552,-0.945,-0.72,
2553,-0.95,-0.72,
2554,-0.96,-0.72,
2555,-0.965,-0.745,
2556,-0.98,-0.76,
2557,-0.975,-0.745,
2558,-0.99,-0.74,
2559,-0.98,-0.765,
2560,-0.98,-0.74,
2561,-0.985,-0.73,
2562,-0.97,-0.725,
2563,-0.98,-0.72,
2564,-0.96,-0.725,
2565,-0.96,-0.705,
2566,-0.95,-0.725,
2567,-0.975,-0.73,
2568,-0.975,-0.745,
2569,-0.98,-0.73,
2570,-0.975,-0.72,
2571,-0.985,-0.715,
2572,-0.975,-0.705,
2573,-0.96,-0.69,
2574,-0.955,-0.69,
2575,-0.955,-0.695,
2576,-0.95,-0.69,
2577,-0.955,-0.705,
2578,-0.96,-0.72,
2579,-0.965,-0.72,
2580,-0.96,-0.73,
2581,-0.97,-0.715,
2582,-1.0,-0.715,
2583,-0.985,-0.7,
2584,-0.96,-0.695,
2585,-0.955,-0.68,
2586,-0.945,-0.68,
2587,-0.94,-0.68,
2588,-0.945,-0.69,
2589,-0.93,-0.68,
2590,-0.945,-0.705,
2591,-0.965,-0.7,
2592,-0.96,-0.705,
2593,-0.965,-0.705,
2594,-0.975,-0.7,
2595,-0.955,-0.68,
2596,-0.95,-0.67,
2597,-0.935,-0.66,
2598,-0.92,-0.65,
2599,-0.9,-0.655,
2600,-0.885,-0.65,
2601,-0.87,-0.67,
2602,-0.86,-0.675,
2603,-0.86,-0.695,
2604,-0.85,-0.715,
2605,-0.86,-0.715,
2606,-0.865,-0.695,
2607,-0.87,-0.67,
2608,-0.85,-0.64,
2609,-0.845,-0.625,
2610,-0.8,-0.595,
2611,-0.78,-0.585,
2612,-0.77,-0.585,
2613,-0.78,-0.58,
2614,-0.79,-0.58,
2615,-0.78,-0.57,
2616,-0.795,-0.56,
2617,-0.795,-0.54,
2618,-0.825,-0.535,
2619,-0.84,-0.53,
2620,-0.83,-0.515,
2621,-0.825,-0.515,
2622,-0.84,-0.505,
2623,-0.835,-0.5,
2624,-0.85,-0.525,
2625,-0.855,-0.52,
2626,-0.865,-0.54,
2627,-0.89,-0.56,
2628,-0.915,-0.585,
2629,-0.935,-0.6,
2630,-0.965,-0.62,
2631,-0.965,-0.61,
2632,-0.97,-0.62,
2633,-0.97,-0.64,
2634,-0.97,-0.63,
2635,-0.95,-0.64,
2636,-0.96,-0.665,
2637,-0.945,-0.68,
2638,-0.955,-0.675,
2639,-0.965,-0.675,
2640,-0.99,-0.7,
2641,-1.01,-0.695,
2642,-1.005,-0.695,
2643,-1.01,-0.695,
2644,-1.01,-0.68,
2645,-1.01,-0.68,
2646,-0.99,-0.665,
2647,-0.98,-0.68,
2648,-0.99,-0.68,
2649,-0.965,-0.685,
2650,-0.965,-0.7,
2651,-0.975,-0.7,
2652,-0.98,-0.705,
2653,-0.985,-0.705,
2654,-0.975,-0.71,
2655,-0.965,-0.675,
2656,-0.95,-0.67,
2657,-0.955,-0.665,
2658,-0.95,-0.645,
2659,-0.93,-0.645,
2660,-0.89,-0.67,
2661,-0.87,-0.67,
2662,-0.805,-0.64,
2663,-0.725,-0.595,
2664,-0.595,-0.47,
2665,-0.465,-0.275,
2666,-0.315,-0.025,
2667,-0.165,0.265,
2668,-0.09,0.56,
2669,-0.09,0.825,
2670,-0.205,1.02,
2671,-0.4,1.135,
2672,-0.645,1.05,
2673,-0.925,0.835,
2674,-1.2,0.5,
2675,-1.455,0.13,
2676,-1.645,-0.28,
2677,-1.715,-0.63,N
2678,-1.695,-0.86,
2679,-1.6,-0.95,
2680,-1.475,-0.885,
2681,-1.345,-0.795,
2682,-1.24,-0.69,
2683,-1.15,-0.64,
2684,-1.075,-0.63,
2685,-1.015,-0.605,
2686,-0.955,-0.62,
2687,-0.925,-0.625,
2688,-0.91,-0.625,
2689,-0.9,-0.635,
2690,-0.92,-0.65,
2691,-0.915,-0.62,
2692,-0.91,-0.625,
2693,-0.91,-0.615,
2694,-0.905,-0.62,
2695,-0.885,-0.615,
2696,-0.875,-0.615,
2697,-0.865,-0.625,
2698,-0.87,-0.605,
2699,-0.865,-0.635,
2700,-0.88,-0.63,
2701,-0.885,-0.635,
2702,-0.88,-0.615,
2703,-0.875,-0.61,
2704,-0.865,-0.605,
2705,-0.855,-0.595,
2706,-0.85,-0.575,
2707,-0.825,-0.545,
2708,-0.835,-0.57,
2709,-0.845,-0.58,
2710,-0.85,-0.575,
2711,-0.835,-0.575,
2712,-0.84,-0.585,
2713,-0.84,-0.58,
2714,-0.84,-0.59,
2715,-0.855,-0.565,
2716,-0.83,-0.545,
2717,-0.82,-0.525,
2718,-0.81,-0.52,
2719,-0.805,-0.525,
2720,-0.81,-0.51,
2721,-0.795,-0.515,
2722,-0.805,-0.525,
2723,-0.8,-0.545,
2724,-0.79,-0.53,
2725,-0.8,-0.54,
2726,-0.79,-0.525,
2727,-0.8,-0.505,
2728,-0.775,-0.48,
2729,-0.77,-0.47,
2730,-0.76,-0.465,
2731,-0.74,-0.465,
2732,-0.74,-0.455,
2733,-0.745,-0.455,
2734,-0.755,-0.46,
2735,-0.74,-0.46,
2736,-0.735,-0.455,
2737,-0.735,-0.455,
2738,-0.735,-0.44,
2739,-0.725,-0.42,
2740,-0.69,-0.395,
2741,-0.685,-0.4,
2742,-0.675,-0.37,
2743,-0.66,-0.36,
2744,-0.635,-0.34,
2745,-0.62,-0.35,
2746,-0.615,-0.335,
2747,-0.615,-0.325,
2748,-0.61,-0.33,
2749,-0.595,-0.325,
2750,-0.585,-0.285,
2751,-0.58,-0.275,
2752,-0.545,-0.255,
2753,-0.51,-0.225,
2754,-0.485,-0.215,
2755,-0.47,-0.195,
2756,-0.465,-0.175,
2757,-0.46,-0.155,
2758,-0.445,-0.145,
2759,-0.415,-0.14,
2760,-0.405,-0.12,
2761,-0.4,-0.125,
2762,-0.385,-0.1,
2763,-0.36,-0.075,
2764,-0.35,-0.045,
2765,-0.32,-0.02,
2766,-0.305,0.01,
2767,-0.27,0.025,
2768,-0.255,0.035,
2769,-0.24,0.04,
2770,-0.235,0.055,
2771,-0.235,0.055,
2772,-0.245,0.04,
2773,-0.23,0.035,
2774,-0.23,0.06,
2775,-0.23,0.075,
2776,-0.22,0.08,
2777,-0.205,0.125,
2778,-0.21,0.15,
2779,-0.2,0.14,
2780,-0.215,0.11,
2781,-0.22,0.105,
2782,-0.235,0.075,
2783,-0.255,0.065,
2784,-0.305,0.025,
2785,-0.32,0.0,
2786,-0.36,-0.03,
2787,-0.39,-0.045,
2788,-0.405,-0.08,
2789,-0.445,-0.11,
2790,-0.455,-0.12,
2791,-0.47,-0.165,
2792,-0.5,-0.2,
2793,-0.55,-0.23,
2794,-0.575,-0.29,
2795,-0.62,-0.33,
2796,-0.675,-0.365,
2797,-0.675,-0.395,
2798,-0.71,-0.43,
2799,-0.75,-0.445,
2800,-0.76,-0.455,
2801,-0.765,-0.47,
2802,-0.78,-0.47,
2803,-0.785,-0.495,
2804,-0.8,-0.515,
2805,-0.815,-0.54,
2806,-0.84,-0.56,
2807,-0.835,-0.58,
2808,-0.865,-0.595,
2809,-0.89,-0.605,
2810,-0.905,-0.605,
2811,-0.895,-0.6,
2812,-0.885,-0.605,
2813,-0.885,-0.6,
2814,-0.885,-0.59,
2815,-0.87,-0.605,
2816,-0.885,-0.605,
2817,-0.885,-0.615,
2818,-0.885,-0.625,
2819,-0.9,-0.625,
2820,-0.91,-0.655,
2821,-0.925,-0.655,
2822,-0.9,-0.65,
2823,-0.905,-0.65,
2824,-0.9,-0.63,
2825,-0.895,-0.64,
2826,-0.89,-0.63,
2827,-0.875,-0.615,
2828,-0.875,-0.64,
2829,-0.895,-0.635,
2830,-0.895,-0.635,
2831,-0.9,-0.635,
2832,-0.91,-0.66,
2833,-0.905,-0.665,
2834,-0.92,-0.645,
2835,-0.915,-0.655,
2836,-0.9,-0.645,
2837,-0.895,-0.625,
2838,-0.885,-0.62,
2839,-0.865,-0.615,
2840,-0.875,-0.62,
2841,-0.865,-0.625,
2842,-0.86,-0.64,
2843,-0.88,-0.64,
2844,-0.875,-0.65,
2845,-0.895,-0.645,
2846,-0.895,-0.635,
2847,-0.885,-0.65,
2848,-0.89,-0.615,
2849,-0.87,-0.605,
2850,-0.87,-0.59,
2851,-0.85,-0.6,
2852,-0.86,-0.595,
2853,-0.875,-0.6,
2854,-0.875,-0.6,
2855,-0.875,-0.625,
2856,-0.905,-0.62,
2857,-0.89,-0.635,
2858,-0.91,-0.63,
2859,-0.91,-0.63,
2860,-0.91,-0.62,
2861,-0.89,-0.635,
2862,-0.89,-0.605,
2863,-0.89,-0.6,
2864,-0.885,-0.615,
2865,-0.885,-0.605,
2866,-0.895,-0.63,
2867,-0.9,-0.635,
2868,-0.93,-0.655,
2869,-0.945,-0.65,
2870,-0.95,-0.65,
2871,-0.95,-0.64,
2872,-0.945,-0.635,
2873,-0.94,-0.63,
2874,-0.925,-0.62,
2875,-0.91,-0.61,
2876,-0.905,-0.63,
2877,-0.935,-0.635,
2878,-0.935,-0.655,
2879,-0.945,-0.65,
2880,-0.965,-0.675,
2881,-0.965,-0.685,
2882,-0.965,-0.67,
2883,-0.965,-0.65,
2884,-0.955,-0.65,
2885,-0.955,-0.635,
2886,-0.95,-0.645,
2887,-0.94,-0.64,
2888,-0.93,-0.635,
2889,-0.94,-0.65,
2890,-0.945,-0.67,
2891,-0.96,-0.68,
2892,-0.955,-0.68,
2893,-0.96,-0.69,
2894,-0.96,-0.705,
2895,-0.96,-0.67,
2896,-0.97,-0.665,
2897,-0.955,-0.64,
2898,-0.96,-0.655,
2899,-0.94,-0.645,
2900,-0.94,-0.65,
2901,-0.93,-0.655,
2902,-0.94,-0.67,
2903,-0.95,-0.685,
2904,-0.975,-0.68,
2905,-0.975,-0.7,
2906,-0.98,-0.68,
2907,-0.97,-0.665,
2908,-0.96,-0.665,
2909,-0.95,-0.66,
2910,-0.935,-0.655,
2911,-0.93,-0.63,
2912,-0.925,-0.645,
2913,-0.925,-0.65,
2914,-0.94,-0.66,
2915,-0.95,-0.67,
2916,-0.945,-0.675,
2917,-0.955,-0.68,
2918,-0.96,-0.675,
2919,-0.96,-0.65,
2920,-0.95,-0.64,
2921,-0.95,-0.645,
2922,-0.95,-0.62,
2923,-0.94,-0.635,
2924,-0.945,-0.63,
2925,-0.95,-0.65,
2926,-0.945,-0.655,
2927,-0.95,-0.675,
2928,-0.955,-0.68,
2929,-0.955,-0.67,
2930,-0.965,-0.65,
2931,-0.96,-0.665,
2932,-0.965,-0.65,
2933,-0.96,-0.645,
2934,-0.95,-0.65,
2935,-0.94,-0.625,
2936,-0.94,-0.635,
2937,-0.945,-0.64,
2938,-0.945,-0.655,
2939,-0.955,-0.675,
2940,-0.96,-0.685,
2941,-0.97,-0.69,
2942,-0.975,-0.7,
2943,-0.955,-0.68,
2944,-0.955,-0.665,
2945,-0.95,-0.665,
2946,-0.945,-0.65,
2947,-0.94,-0.655,
2948,-0.94,-0.65,
2949,-0.94,-0.655,
2950,-0.94,-0.68,
2951,-0.935,-0.665,
2952,-0.97,-0.675,
2953,-0.96,-0.68,
2954,-0.96,-0.68,
2955,-0.96,-0.65,
2956,-0.965,-0.65,
2957,-0.96,-0.64,
2958,-0.935,-0.65,
2959,-0.935,-0.63,
2960,-0.935,-0.63,
2961,-0.93,-0.65,
2962,-0.925,-0.655,
2963,-0.935,-0.675,
2964,-0.94,-0.66,
2965,-0.96,-0.675,
2966,-0.97,-0.67,
2967,-0.97,-0.66,
2968,-0.94,-0.655,
2969,-0.94,-0.655,
2970,-0.935,-0.645,
2971,-0.92,-0.645,
2972,-0.915,-0.64,
2973,-0.92,-0.635,
2974,-0.93,-0.65,
2975,-0.945,-0.67,
2976,-0.955,-0.67,
2977,-0.93,-0.675,
2978,-0.945,-0.67,
2979,-0.955,-0.655,
2980,-0.94,-0.645,
2981,-0.935,-0.64,
2982,-0.92,-0.64,
2983,-0.905,-0.635,
2984,-0.925,-0.615,
2985,-0.94,-0.625,
2986,-0.925,-0.625,
2987,-0.93,-0.645,
2988,-0.94,-0.655,
2989,-0.94,-0.66,
2990,-0.96,-0.645,
2991,-0.965,-0.64,
2992,-0.95,-0.645,
2993,-0.925,-0.625,
2994,-0.93,-0.62,
2995,-0.915,-0.63,
2996,-0.92,-0.635,
2997,-0.93,-0.635,
2998,-0.925,-0.645,
2999,-0.945,-0.66,
3000,-0.935,-0.645,
3001,-0.935,-0.64,
3002,-0.95,-0.65,
3003,-0.95,-0.64,
3004,-0.945,-0.62,
3005,-0.935,-0.625,
3006,-0.91,-0.615,
3007,-0.91,-0.61,
3008,-0.915,-0.625,
3009,-0.92,-0.625,
3010,-0.915,-0.63,
3011,-0.93,-0.64,
3012,-0.925,-0.65,
3013,-0.935,-0.645,
3014,-0.935,-0.63,
3015,-0.945,-0.625,
3016,-0.94,-0.625,
3017,-0.925,-0.61,
3018,-0.92,-0.62,
3019,-0.905,-0.605,
3020,-0.91,-0.6,
3021,-0.93,-0.61,
3022,-0.91,-0.61,
3023,-0.92,-0.625,
3024,-0.935,-0.645,
3025,-0.925,-0.65,
3026,-0.91,-0.625,
3027,-0.905,-0.62,
3028,-0.88,-0.625,
3029,-0.865,-0.62,
3030,-0.835,-0.62,
3031,-0.82,-0.605,
3032,-0.82,-0.61,
3033,-0.81,-0.6,
3034,-0.825,-0.595,
3035,-0.82,-0.59,
3036,-0.815,-0.59,
3037,-0.81,-0.585,
3038,-0.785,-0.565,
3039,-0.765,-0.54,
3040,-0.76,-0.53,
3041,-0.755,-0.515,
3042,-0.755,-0.48,
3043,-0.755,-0.455,
3044,-0.74,-0.44,
3045,-0.755,-0.44,
3046,-0.77,-0.435,
3047,-0.79,-0.46,
3048,-0.805,-0.47,
3049,-0.83,-0.47,
3050,-0.845,-0.47,
3051,-0.84,-0.485,
3052,-0.85,-0.455,
3053,-0.865,-0.455,
3054,-0.87,-0.46,
3055,-0.895,-0.45,
3056,-0.9,-0.49,
3057,-0.895,-0.52,
3058,-0.915,-0.54,
3059,-0.925,-0.565,
3060,-0.935,-0.575,
3061,-0.96,-0.6,
3062,-0.965,-0.61,
3063,-0.95,-0.595,
3064,-0.955,-0.59,
3065,-0.955,-0.59,
3066,-0.94,-0.58,
3067,-0.96,-0.59,
3068,-0.97,-0.6,
3069,-0.97,-0.605,
3070,-0.955,-0.615,
3071,-0.97,-0.62,
3072,-0.975,-0.635,
3073,-0.98,-0.645,
3074,-0.985,-0.645,
3075,-0.99,-0.64,
3076,-0.975,-0.635,
3077,-0.965,-0.625,
3078,-0.965,-0.615,
3079,-0.945,-0.625,
3080,-0.925,-0.63,
3081,-0.92,-0.62,
3082,-0.925,-0.645,
3083,-0.925,-0.65,
3084,-0.945,-0.635,
3085,-0.955,-0.635,
3086,-0.94,-0.63,
3087,-0.93,-0.62,
3088,-0.89,-0.605,
3089,-0.81,-0.57,
3090,-0.735,-0.51,
3091,-0.63,-0.41,
3092,-0.5,-0.25,
3093,-0.355,-0.045,
3094,-0.235,0.2,
3095,-0.13,0.46,
3096,-0.12,0.705,
3097,-0.205,0.885,
3098,-0.385,1.0,
3099,-0.64,0.985,
3100,-0.925,0.815,
3101,-1.205,0.54,
3102,-1.48,0.155,
3103,-1.665,-0.275,
3104,-1.76,-0.67,
3105,-1.75,-0.96,N
3106,-1.67,-1.065,
3107,-1.545,-1.04,
3108,-1.43,-0.935,
3109,-1.32,-0.825,
3110,-1.23,-0.745,
3111,-1.13,-0.685,
3112,-1.065,-0.635,
3113,-0.985,-0.605,
3114,-0.94,-0.575,
3115,-0.905,-0.565,
3116,-0.895,-0.56,
3117,-0.895,-0.555,
3118,-0.905,-0.555,
3119,-0.915,-0.575,
3120,-0.92,-0.575,
3121,-0.925,-0.59,
3122,-0.91,-0.58,
3123,-0.905,-0.585,
3124,-0.88,-0.56,
3125,-0.865,-0.53,
3126,-0.855,-0.525,
3127,-0.835,-0.505,
3128,-0.825,-0.525,
3129,-0.845,-0.525,
3130,-0.83,-0.535,
3131,-0.845,-0.525,
3132,-0.83,-0.54,
3133,-0.84,-0.53,
3134,-0.83,-0.515,
3135,-0.84,-0.535,
3136,-0.83,-0.505,
3137,-0.82,-0.505,
3138,-0.82,-0.485,
3139,-0.82,-0.485,
3140,-0.8,-0.48,
3141,-0.8,-0.485,
3142,-0.8,-0.5,
3143,-0.79,-0.505,
3144,-0.805,-0.505,
3145,-0.8,-0.485,
3146,-0.815,-0.485,
3147,-0.8,-0.48,
3148,-0.8,-0.46,
3149,-0.795,-0.46,
3150,-0.78,-0.455,
3151,-0.77,-0.435,
3152,-0.765,-0.445,
3153,-0.77,-0.44,
3154,-0.77,-0.44,
3155,-0.775,-0.43,
3156,-0.775,-0.45,
3157,-0.77,-0.46,
3158,-0.775,-0.43,
3159,-0.765,-0.42,
3160,-0.76,-0.4,
3161,-0.735,-0.405,
3162,-0.715,-0.385,
3163,-0.71,-0.365,
3164,-0.675,-0.335,
3165,-0.68,-0.355,
3166,-0.68,-0.34,
3167,-0.675,-0.345,
3168,-0.68,-0.355,
3169,-0.67,-0.34,
3170,-0.67,-0.33,
3171,-0.645,-0.31,
3172,-0.63,-0.285,
3173,-0.61,-0.255,
3174,-0.575,-0.24,
3175,-0.56,-0.2,
3176,-0.555,-0.19,
3177,-0.525,-0.175,
3178,-0.51,-0.175,
3179,-0.51,-0.155,
3180,-0.5,-0.155,
3181,-0.49,-0.145,
3182,-0.465,-0.11,
3183,-0.445,-0.09,
3184,-0.43,-0.055,
3185,-0.4,-0.03,
3186,-0.38,0.005,
3187,-0.355,0.025,
3188,-0.335,0.05,
3189,-0.315,0.06,
3190,-0.31,0.07,
3191,-0.295,0.08,
3192,-0.29,0.085,
3193,-0.29,0.115,
3194,-0.285,0.125,
3195,-0.275,0.155,
3196,-0.235,0.16,
3197,-0.235,0.18,
3198,-0.22,0.205,
3199,-0.195,0.2,
3200,-0.18,0.195,
3201,-0.17,0.2,
3202,-0.185,0.2,
3203,-0.18,0.19,
3204,-0.2,0.195,
3205,-0.195,0.175,
3206,-0.23,0.165,
3207,-0.24,0.19,
3208,-0.235,0.17,
3209,-0.26,0.16,
3210,-0.27,0.16,
3211,-0.28,0.135,
3212,-0.305,0.105,
3213,-0.32,0.07,
3214,-0.36,0.03,
3215,-0.385,-0.025,
3216,-0.42,-0.06,
3217,-0.46,-0.095,
3218,-0.505,-0.125,
3219,-0.52,-0.16,
3220,-0.555,-0.19,
3221,-0.6,-0.21,
3222,-0.62,-0.24,
3223,-0.635,-0.28,
3224,-0.67,-0.325,
3225,-0.68,-0.36,
3226,-0.71,-0.405,
3227,-0.735,-0.405,
3228,-0.75,-0.455,
3229,-0.77,-0.455,
3230,-0.82,-0.48,
3231,-0.805,-0.485,
3232,-0.81,-0.49,
3233,-0.82,-0.5,
3234,-0.83,-0.49,
3235,-0.82,-0.48,
3236,-0.825,-0.495,
3237,-0.835,-0.52,
3238,-0.855,-0.54,
3239,-0.87,-0.565,
3240,-0.865,-0.56,
3241,-0.87,-0.585,
3242,-0.885,-0.585,
3243,-0.885,-0.59,
3244,-0.885,-0.565,
3245,-0.89,-0.57,
3246,-0.885,-0.57,
3247,-0.875,-0.545,
3248,-0.865,-0.55,
3249,-0.87,-0.58,
3250,-0.865,-0.575,
3251,-0.88,-0.61,
3252,-0.89,-0.61,
3253,-0.885,-0.595,
3254,-0.885,-0.61,
3255,-0.89,-0.595,
3256,-0.89,-0.59,
3257,-0.875,-0.565,
3258,-0.87,-0.575,
3259,-0.855,-0.565,
3260,-0.85,-0.57,
3261,-0.865,-0.555,
3262,-0.87,-0.565,
3263,-0.87,-0.56,
3264,-0.865,-0.58,
3265,-0.875,-0.555,
3266,-0.875,-0.555,
3267,-0.86,-0.55,
3268,-0.86,-0.535,
3269,-0.845,-0.54,
3270,-0.85,-0.53,
3271,-0.835,-0.525,
3272,-0.845,-0.53,
3273,-0.84,-0.54,
3274,-0.855,-0.535,
3275,-0.87,-0.55,
3276,-0.87,-0.54,
3277,-0.88,-0.55,
3278,-0.88,-0.56,
3279,-0.875,-0.52,
3280,-0.865,-0.53,
3281,-0.86,-0.525,
3282,-0.85,-0.52,
3283,-0.845,-0.51,
3284,-0.85,-0.52,
3285,-0.845,-0.52,
3286,-0.865,-0.54,
3287,-0.87,-0.555,
3288,-0.885,-0.55,
3289,-0.9,-0.555,
3290,-0.915,-0.57,
3291,-0.895,-0.575,
3292,-0.9,-0.565,
3293,-0.91,-0.55,
3294,-0.905,-0.535,
3295,-0.885,-0.535,
3296,-0.9,-0.54,
3297,-0.915,-0.54,
3298,-0.895,-0.56,
3299,-0.9,-0.575,
3300,-0.915,-0.575,
3301,-0.945,-0.57,
3302,-0.93,-0.58,
3303,-0.935,-0.58,
3304,-0.935,-0.58,
3305,-0.92,-0.57,
3306,-0.915,-0.57,
3307,-0.915,-0.55,
3308,-0.91,-0.575,
3309,-0.915,-0.585,
3310,-0.91,-0.58,
3311,-0.93,-0.58,
3312,-0.945,-0.605,
3313,-0.96,-0.605,
3314,-0.95,-0.635,
3315,-0.945,-0.59,
3316,-0.93,-0.58,
3317,-0.93,-0.585,
3318,-0.915,-0.555,
3319,-0.91,-0.55,
3320,-0.9,-0.585,
3321,-0.895,-0.58,
3322,-0.905,-0.595,
3323,-0.92,-0.595,
3324,-0.935,-0.615,
3325,-0.98,-0.6,
3326,-0.955,-0.63,
3327,-0.98,-0.61,
3328,-0.965,-0.59,
3329,-0.96,-0.58,
3330,-0.96,-0.565,
3331,-0.935,-0.56,
3332,-0.94,-0.565,
3333,-0.945,-0.565,
3334,-0.93,-0.585,
3335,-0.945,-0.59,
3336,-0.965,-0.605,
3337,-0.97,-0.605,
3338,-0.955,-0.615,
3339,-0.975,-0.6,
3340,-0.95,-0.59,
3341,-0.945,-0.59,
3342,-0.93,-0.575,
3343,-0.925,-0.575,
3344,-0.92,-0.57,
3345,-0.935,-0.59,
3346,-0.945,-0.585,
3347,-0.95,-0.59,
3348,-0.95,-0.605,
3349,-0.955,-0.6,
3350,-0.965,-0.6,
3351,-0.96,-0.595,
3352,-0.955,-0.57,
3353,-0.945,-0.58,
3354,-0.93,-0.57,
3355,-0.925,-0.56,
3356,-0.93,-0.575,
3357,-0.94,-0.56,
3358,-0.96,-0.57,
3359,-0.96,-0.585,
3360,-0.95,-0.575,
3361,-0.975,-0.6,
3362,-0.97,-0.59,
3363,-0.965,-0.6,
3364,-0.965,-0.575,
3365,-0.96,-0.585,
3366,-0.96,-0.575,
3367,-0.945,-0.555,
3368,-0.94,-0.56,
3369,-0.945,-0.565,
3370,-0.935,-0.585,
3371,-0.94,-0.58,
3372,-0.955,-0.585,
3373,-0.965,-0.6,
3374,-0.97,-0.595,
3375,-0.96,-0.6,
3376,-0.95,-0.585,
3377,-0.95,-0.575,
3378,-0.935,-0.57,
3379,-0.93,-0.565,
3380,-0.935,-0.585,
3381,-0.935,-0.57,
3382,-0.945,-0.58,
3383,-0.965,-0.595,
3384,-0.945,-0.605,
3385,-0.965,-0.605,
3386,-0.97,-0.6,
3387,-0.955,-0.59,
3388,-0.95,-0.595,
3389,-0.95,-0.575,
3390,-0.935,-0.59,
3391,-0.91,-0.575,
3392,-0.91,-0.585,
3393,-0.915,-0.58,
3394,-0.925,-0.585,
3395,-0.93,-0.59,
3396,-0.935,-0.59,
3397,-0.98,-0.595,
3398,-0.965,-0.61,
3399,-0.955,-0.59,
3400,-0.965,-0.6,
3401,-0.95,-0.585,
3402,-0.95,-0.565,
3403,-0.96,-0.56,
3404,-0.94,-0.56,
3405,-0.935,-0.57,
3406,-0.94,-0.57,
3407,-0.945,-0.57,
3408,-0.935,-0.58,
3409,-0.96,-0.585,
3410,-0.96,-0.585,
3411,-0.96,-0.59,
3412,-0.96,-0.585,
3413,-0.945,-0.57,
3414,-0.935,-0.575,
3415,-0.925,-0.565,
3416,-0.92,-0.575,
3417,-0.92,-0.575,
3418,-0.925,-0.585,
3419,-0.93,-0.595,
3420,-0.935,-0.585,
3421,-0.945,-0.6,
3422,-0.95,-0.58,
3423,-0.945,-0.59,
3424,-0.945,-0.575,
3425,-0.94,-0.58,
3426,-0.93,-0.585,
3427,-0.915,-0.545,
3428,-0.915,-0.575,
3429,-0.91,-0.56,
3430,-0.92,-0.565,
3431,-0.93,-0.59,
3432,-0.945,-0.585,
3433,-0.945,-0.6,
3434,-0.95,-0.6,
3435,-0.95,-0.575,
3436,-0.94,-0.58,
3437,-0.925,-0.57,
3438,-0.92,-0.575,
3439,-0.915,-0.57,
3440,-0.92,-0.57,
3441,-0.91,-0.57,
3442,-0.91,-0.57,
3443,-0.905,-0.585,
3444,-0.925,-0.59,
3445,-0.92,-0.59,
3446,-0.92,-0.585,
3447,-0.91,-0.595,
3448,-0.905,-0.57,
3449,-0.895,-0.57,
3450,-0.87,-0.555,
3451,-0.845,-0.565,
3452,-0.84,-0.55,
3453,-0.83,-0.565,
3454,-0.825,-0.58,
3455,-0.835,-0.59,
3456,-0.84,-0.585,
3457,-0.83,-0.57,
3458,-0.83,-0.58,
3459,-0.805,-0.555,
3460,-0.78,-0.535,
3461,-0.755,-0.53,
3462,-0.74,-0.495,
3463,-0.725,-0.47,
3464,-0.72,-0.46,
3465,-0.72,-0.465,
3466,-0.73,-0.44,
3467,-0.73,-0.425,
3468,-0.755,-0.415,
3469,-0.765,-0.42,
3470,-0.8,-0.42,
3471,-0.805,-0.415,
3472,-0.8,-0.41,
3473,-0.8,-0.405,
3474,-0.805,-0.42,
3475,-0.81,-0.41,
3476,-0.84,-0.425,
3477,-0.845,-0.43,
3478,-0.875,-0.445,
3479,-0.885,-0.47,
3480,-0.895,-0.5,
3481,-0.905,-0.535,
3482,-0.9,-0.545,
3483,-0.93,-0.535,
3484,-0.925,-0.535,
3485,-0.91,-0.535,
3486,-0.91,-0.53,
3487,-0.9,-0.525,
3488,-0.885,-0.52,
3489,-0.9,-0.525,
3490,-0.915,-0.545,
3491,-0.925,-0.55,
3492,-0.93,-0.57,
3493,-0.955,-0.57,
3494,-0.945,-0.585,
3495,-0.94,-0.57,
3496,-0.925,-0.575,
3497,-0.935,-0.565,
3498,-0.905,-0.55,
3499,-0.905,-0.555,
3500,-0.895,-0.555,
3501,-0.905,-0.555,
3502,-0.9,-0.575,
3503,-0.91,-0.575,
3504,-0.925,-0.57,
3505,-0.925,-0.58,
3506,-0.93,-0.59,
3507,-0.92,-0.57,
3508,-0.915,-0.555,
3509,-0.905,-0.55,
3510,-0.885,-0.535,
3511,-0.865,-0.53,
3512,-0.85,-0.535,
3513,-0.8,-0.55,
3514,-0.75,-0.54,
3515,-0.65,-0.495,
3516,-0.56,-0.38,
3517,-0.44,-0.215,
3518,-0.3,0.0,
3519,-0.155,0.25,
3520,-0.03,0.545,
3521,0.0,0.82,
3522,-0.04,1.055,
3523,-0.175,1.205,
3524,-0.395,1.23,
3525,-0.66,1.125,
3526,-0.98,0.88,
3527,-1.23,0.525,
3528,-1.475,0.095,
3529,-1.64,-0.335,N
3530,-1.695,-0.705,
3531,-1.65,-0.93,
3532,-1.57,-0.985,
3533,-1.435,-0.935,
3534,-1.315,-0.805,
3535,-1.23,-0.72,
3536,-1.155,-0.645,
3537,-1.09,-0.625,
3538,-1.03,-0.605,
3539,-0.96,-0.59,
3540,-0.91,-0.585,
3541,-0.875,-0.555,
3542,-0.855,-0.54,
3543,-0.815,-0.55,
3544,-0.83,-0.515,
3545,-0.825,-0.515,
3546,-0.83,-0.495,
3547,-0.81,-0.5,
3548,-0.795,-0.5,
3549,-0.795,-0.5,
3550,-0.765,-0.485,
3551,-0.78,-0.495,
3552,-0.775,-0.505,
3553,-0.78,-0.52,
3554,-0.79,-0.52,
3555,-0.785,-0.51,
3556,-0.79,-0.485,
3557,-0.775,-0.495,
3558,-0.765,-0.47,
3559,-0.75,-0.455,
3560,-0.74,-0.47,
3561,-0.73,-0.475,
3562,-0.74,-0.47,
3563,-0.735,-0.465,
3564,-0.74,-0.48,
3565,-0.75,-0.48,
3566,-0.75,-0.455,
3567,-0.75,-0.45,
3568,-0.735,-0.44,
3569,-0.72,-0.44,
3570,-0.715,-0.415,
3571,-0.695,-0.41,
3572,-0.69,-0.41,
3573,-0.69,-0.415,
3574,-0.715,-0.425,
3575,-0.7,-0.435,
3576,-0.71,-0.435,
3577,-0.715,-0.42,
3578,-0.705,-0.435,
3579,-0.7,-0.43,
3580,-0.69,-0.4,
3581,-0.68,-0.385,
3582,-0.655,-0.37,
3583,-0.66,-0.365,
3584,-0.63,-0.36,
3585,-0.625,-0.37,
3586,-0.62,-0.36,
3587,-0.635,-0.36,
3588,-0.62,-0.35,
3589,-0.625,-0.36,
3590,-0.62,-0.35,
3591,-0.605,-0.345,
3592,-0.6,-0.325,
3593,-0.58,-0.3,
3594,-0.575,-0.285,
3595,-0.56,-0.265,
3596,-0.54,-0.27,
3597,-0.535,-0.255,
3598,-0.52,-0.25,
3599,-0.52,-0.25,
3600,-0.51,-0.24,
3601,-0.495,-0.23,
3602,-0.485,-0.225,
3603,-0.475,-0.205,
3604,-0.465,-0.17,
3605,-0.43,-0.13,
3606,-0.405,-0.11,
3607,-0.375,-0.08,
3608,-0.35,-0.055,
3609,-0.34,-0.035,
3610,-0.32,-0.02,
3611,-0.31,-0.01,
3612,-0.3,-0.005,
3613,-0.285,0.02,
3614,-0.265,0.04,
3615,-0.255,0.08,
3616,-0.245,0.1,
3617,-0.205,0.145,
3618,-0.19,0.175,
3619,-0.165,0.185,
3620,-0.155,0.195,
3621,-0.16,0.19,
3622,-0.155,0.19,
3623,-0.155,0.195,
3624,-0.165,0.18,
3625,-0.165,0.185,
3626,-0.16,0.19,
3627,-0.175,0.19,
3628,-0.175,0.2,
3629,-0.18,0.2,
3630,-0.185,0.185,
3631,-0.195,0.205,
3632,-0.19,0.185,
3633,-0.2,0.15,
3634,-0.225,0.115,
3635,-0.25,0.105,
3636,-0.29,0.05,
3637,-0.31,0.015,
3638,-0.35,-0.01,
3639,-0.38,-0.035,
3640,-0.405,-0.065,
3641,-0.43,-0.08,
3642,-0.455,-0.115,
3643,-0.465,-0.125,
3644,-0.49,-0.19,
3645,-0.51,-0.235,
3646,-0.54,-0.27,
3647,-0.575,-0.31,
3648,-0.6,-0.33,
3649,-0.625,-0.365,
3650,-0.655,-0.405,
3651,-0.665,-0.415,
3652,-0.685,-0.425,
3653,-0.69,-0.44,
3654,-0.705,-0.435,
3655,-0.695,-0.445,
3656,-0.705,-0.46,
3657,-0.71,-0.505,
3658,-0.735,-0.51,
3659,-0.745,-0.53,
3660,-0.765,-0.54,
3661,-0.79,-0.555,
3662,-0.8,-0.56,
3663,-0.8,-0.565,
3664,-0.795,-0.56,
3665,-0.79,-0.57,
3666,-0.78,-0.565,
3667,-0.76,-0.54,
3668,-0.78,-0.57,
3669,-0.77,-0.57,
3670,-0.79,-0.59,
3671,-0.78,-0.59,
3672,-0.8,-0.595,
3673,-0.82,-0.62,
3674,-0.83,-0.61,
3675,-0.82,-0.605,
3676,-0.815,-0.6,
3677,-0.81,-0.58,
3678,-0.795,-0.57,
3679,-0.795,-0.575,
3680,-0.77,-0.575,
3681,-0.785,-0.585,
3682,-0.775,-0.58,
3683,-0.79,-0.585,
3684,-0.8,-0.61,
3685,-0.8,-0.61,
3686,-0.805,-0.62,
3687,-0.8,-0.605,
3688,-0.805,-0.575,
3689,-0.795,-0.575,
3690,-0.79,-0.555,
3691,-0.785,-0.545,
3692,-0.78,-0.54,
3693,-0.775,-0.535,
3694,-0.775,-0.53,
3695,-0.78,-0.545,
3696,-0.79,-0.555,
3697,-0.79,-0.545,
3698,-0.805,-0.56,
3699,-0.8,-0.56,
3700,-0.785,-0.53,
3701,-0.78,-0.535,
3702,-0.77,-0.525,
3703,-0.765,-0.51,
3704,-0.765,-0.5,
3705,-0.765,-0.515,
3706,-0.765,-0.52,
3707,-0.77,-0.555,
3708,-0.79,-0.52,
3709,-0.8,-0.555,
3710,-0.82,-0.555,
3711,-0.82,-0.545,
3712,-0.82,-0.555,
3713,-0.81,-0.53,
3714,-0.805,-0.52,
3715,-0.8,-0.52,
3716,-0.795,-0.53,
3717,-0.8,-0.535,
3718,-0.8,-0.54,
3719,-0.81,-0.555,
3720,-0.82,-0.565,
3721,-0.835,-0.565,
3722,-0.85,-0.565,
3723,-0.865,-0.575,
3724,-0.86,-0.56,
3725,-0.865,-0.56,
3726,-0.84,-0.56,
3727,-0.825,-0.54,
3728,-0.835,-0.58,
3729,-0.84,-0.565,
3730,-0.84,-0.57,
3731,-0.85,-0.58,
3732,-0.85,-0.58,
3733,-0.85,-0.585,
3734,-0.86,-0.605,
3735,-0.865,-0.615,
3736,-0.86,-0.61,
3737,-0.87,-0.575,
3738,-0.855,-0.58,
3739,-0.845,-0.57,
3740,-0.845,-0.585,
3741,-0.85,-0.57,
3742,-0.87,-0.585,
3743,-0.87,-0.62,
3744,-0.88,-0.6,
3745,-0.89,-0.615,
3746,-0.89,-0.61,
3747,-0.895,-0.62,
3748,-0.915,-0.6,
3749,-0.895,-0.59,
3750,-0.885,-0.585,
3751,-0.865,-0.565,
3752,-0.85,-0.575,
3753,-0.85,-0.595,
3754,-0.855,-0.59,
3755,-0.86,-0.61,
3756,-0.87,-0.6,
3757,-0.9,-0.605,
3758,-0.9,-0.59,
3759,-0.905,-0.61,
3760,-0.885,-0.6,
3761,-0.885,-0.565,
3762,-0.88,-0.565,
3763,-0.87,-0.575,
3764,-0.855,-0.585,
3765,-0.87,-0.59,
3766,-0.865,-0.59,
3767,-0.875,-0.61,
3768,-0.885,-0.605,
3769,-0.905,-0.61,
3770,-0.91,-0.615,
3771,-0.9,-0.6,
3772,-0.905,-0.59,
3773,-0.895,-0.575,
3774,-0.885,-0.58,
3775,-0.86,-0.565,
3776,-0.87,-0.575,
3777,-0.87,-0.585,
3778,-0.865,-0.59,
3779,-0.865,-0.6,
3780,-0.88,-0.61,
3781,-0.885,-0.6,
3782,-0.89,-0.605,
3783,-0.89,-0.61,
3784,-0.88,-0.595,
3785,-0.875,-0.575,
3786,-0.87,-0.58,
3787,-0.885,-0.575,
3788,-0.875,-0.565,
3789,-0.865,-0.58,
3790,-0.87,-0.575,
3791,-0.87,-0.59,
3792,-0.875,-0.605,
3793,-0.895,-0.595,
3794,-0.9,-0.605,
3795,-0.915,-0.595,
3796,-0.915,-0.58,
3797,-0.91,-0.575,
3798,-0.885,-0.575,
3799,-0.88,-0.565,
3800,-0.87,-0.57,
3801,-0.865,-0.585,
3802,-0.865,-0.59,
3803,-0.88,-0.6,
3804,-0.88,-0.61,
3805,-0.88,-0.61,
3806,-0.9,-0.615,
3807,-0.91,-0.6,
3808,-0.91,-0.585,
3809,-0.89,-0.59,
3810,-0.885,-0.59,
3811,-0.865,-0.565,
3812,-0.855,-0.57,
3813,-0.875,-0.575,
3814,-0.87,-0.59,
3815,-0.875,-0.595,
3816,-0.875,-0.61,
3817,-0.9,-0.615,
3818,-0.91,-0.61,
3819,-0.9,-0.6,
3820,-0.905,-0.605,
3821,-0.89,-0.58,
3822,-0.89,-0.575,
3823,-0.87,-0.575,
3824,-0.85,-0.57,
3825,-0.86,-0.57,
3826,-0.855,-0.595,
3827,-0.87,-0.6,
3828,-0.875,-0.61,
3829,-0.88,-0.595,
3830,-0.88,-0.6,
3831,-0.88,-0.6,
3832,-0.88,-0.58,
3833,-0.87,-0.575,
3834,-0.87,-0.58,
3835,-0.88,-0.565,
3836,-0.855,-0.58,
3837,-0.85,-0.575,
3838,-0.86,-0.58,
3839,-0.855,-0.575,
3840,-0.865,-0.595,
3841,-0.88,-0.59,
3842,-0.885,-0.585,
3843,-0.885,-0.585,
3844,-0.89,-0.57,
3845,-0.875,-0.555,
3846,-0.86,-0.55,
3847,-0.875,-0.53,
3848,-0.845,-0.555,
3849,-0.85,-0.545,
3850,-0.855,-0.545,
3851,-0.885,-0.57,
3852,-0.875,-0.58,
3853,-0.87,-0.575,
3854,-0.895,-0.59,
3855,-0.895,-0.57,
3856,-0.89,-0.56,
3857,-0.855,-0.565,
3858,-0.86,-0.545,
3859,-0.85,-0.555,
3860,-0.845,-0.535,
3861,-0.845,-0.55,
3862,-0.845,-0.555,
3863,-0.86,-0.555,
3864,-0.875,-0.555,
3865,-0.895,-0.57,
3866,-0.89,-0.585,
3867,-0.895,-0.585,
3868,-0.89,-0.565,
3869,-0.855,-0.565,
3870,-0.85,-0.56,
3871,-0.845,-0.545,
3872,-0.84,-0.54,
3873,-0.835,-0.555,
3874,-0.855,-0.555,
3875,-0.845,-0.57,
3876,-0.845,-0.58,
3877,-0.855,-0.58,
3878,-0.85,-0.58,
3879,-0.835,-0.58,
3880,-0.82,-0.575,
3881,-0.805,-0.56,
3882,-0.795,-0.555,
3883,-0.775,-0.545,
3884,-0.765,-0.555,
3885,-0.765,-0.545,
3886,-0.74,-0.555,
3887,-0.75,-0.54,
3888,-0.73,-0.565,
3889,-0.735,-0.53,
3890,-0.735,-0.52,
3891,-0.7,-0.495,
3892,-0.685,-0.48,
3893,-0.685,-0.44,
3894,-0.675,-0.44,
3895,-0.665,-0.4,
3896,-0.665,-0.39,
3897,-0.67,-0.375,
3898,-0.69,-0.37,
3899,-0.695,-0.38,
3900,-0.72,-0.36,
3901,-0.74,-0.365,
3902,-0.76,-0.385,
3903,-0.76,-0.385,
3904,-0.765,-0.36,
3905,-0.765,-0.37,
3906,-0.79,-0.365,
3907,-0.795,-0.385,
3908,-0.795,-0.395,
3909,-0.81,-0.415,
3910,-0.82,-0.44,
3911,-0.84,-0.47,
3912,-0.855,-0.485,
3913,-0.86,-0.51,
3914,-0.9,-0.515,
3915,-0.885,-0.525,
3916,-0.87,-0.525,
3917,-0.87,-0.505,
3918,-0.855,-0.5,
3919,-0.865,-0.49,
3920,-0.86,-0.49,
3921,-0.89,-0.505,
3922,-0.88,-0.53,
3923,-0.89,-0.53,
3924,-0.89,-0.54,
3925,-0.895,-0.565,
3926,-0.915,-0.57,
3927,-0.905,-0.54,
3928,-0.9,-0.545,
3929,-0.89,-0.535,
3930,-0.88,-0.53,
3931,-0.875,-0.505,
3932,-0.87,-0.51,
3933,-0.875,-0.53,
3934,-0.88,-0.545,
3935,-0.875,-0.555,
3936,-0.87,-0.56,
3937,-0.875,-0.54,
3938,-0.87,-0.545,
3939,-0.865,-0.54,
3940,-0.845,-0.53,
3941,-0.82,-0.53,
3942,-0.785,-0.52,
3943,-0.72,-0.5,
3944,-0.635,-0.45,
3945,-0.53,-0.345,
3946,-0.41,-0.195,
3947,-0.27,0.035,
3948,-0.15,0.275,
3949,-0.05,0.545,
3950,-0.015,0.8,
3951,-0.07,1.035,
3952,-0.215,1.195,
3953,-0.44,1.23,
3954,-0.705,1.115,
3955,-0.965,0.84,
3956,-1.21,0.475,
3957,-1.43,0.055,
3958,-1.555,-0.365,N
3959,-1.625,-0.69,
3960,-1.575,-0.845,
3961,-1.475,-0.855,
3962,-1.34,-0.78,
3963,-1.235,-0.67,
3964,-1.145,-0.565,
3965,-1.065,-0.535,
3966,-1.005,-0.48,
3967,-0.945,-0.465,
3968,-0.865,-0.47,
3969,-0.825,-0.46,
3970,-0.795,-0.475,
3971,-0.8,-0.475,
3972,-0.815,-0.47,
3973,-0.805,-0.47,
3974,-0.835,-0.48,
3975,-0.83,-0.495,
3976,-0.82,-0.475,
3977,-0.815,-0.47,
3978,-0.77,-0.45,
3979,-0.76,-0.455,
3980,-0.75,-0.455,
3981,-0.755,-0.46,
3982,-0.76,-0.445,
3983,-0.75,-0.435,
3984,-0.755,-0.455,
3985,-0.765,-0.46,
3986,-0.775,-0.45,
3987,-0.765,-0.435,
3988,-0.755,-0.43,
3989,-0.74,-0.445,
3990,-0.735,-0.42,
3991,-0.72,-0.4,
3992,-0.705,-0.425,
3993,-0.705,-0.41,
3994,-0.705,-0.41,
3995,-0.715,-0.425,
3996,-0.715,-0.425,
3997,-0.715,-0.43,
3998,-0.725,-0.435,
3999,-0.715,-0.41,
4000,-0.705,-0.395,
4001,-0.695,-0.385,
4002,-0.675,-0.38,
4003,-0.68,-0.365,
4004,-0.66,-0.36,
4005,-0.66,-0.37,
4006,-0.65,-0.365,
4007,-0.66,-0.37,
4008,-0.69,-0.385,
4009,-0.675,-0.375,
4010,-0.695,-0.39,
4011,-0.685,-0.37,
4012,-0.69,-0.36,
4013,-0.655,-0.335,
4014,-0.645,-0.315,
4015,-0.635,-0.305,
4016,-0.61,-0.3,
4017,-0.615,-0.29,
4018,-0.605,-0.29,
4019,-0.59,-0.29,
4020,-0.59,-0.3,
4021,-0.585,-0.28,
4022,-0.585,-0.27,
4023,-0.57,-0.25,
4024,-0.555,-0.23,
4025,-0.535,-0.23,
4026,-0.52,-0.21,
4027,-0.495,-0.175,
4028,-0.495,-0.155,
4029,-0.46,-0.14,
4030,-0.46,-0.135,
4031,-0.455,-0.135,
4032,-0.435,-0.12,
4033,-0.43,-0.08,
4034,-0.425,-0.085,
4035,-0.405,-0.08,
4036,-0.385,-0.015,
4037,-0.34,-0.005,
4038,-0.325,0.025,
4039,-0.3,0.05,
4040,-0.285,0.06,
4041,-0.265,0.085,
4042,-0.23,0.09,
4043,-0.235,0.095,
4044,-0.22,0.105,
4045,-0.21,0.115,
4046,-0.215,0.13,
4047,-0.2,0.145,
4048,-0.185,0.18,
4049,-0.16,0.195,
4050,-0.16,0.2,
4051,-0.145,0.225,
4052,-0.135,0.235,
4053,-0.13,0.21,
4054,-0.14,0.215,
4055,-0.135,0.215,
4056,-0.16,0.215,
4057,-0.175,0.21,
4058,-0.175,0.21,
4059,-0.19,0.185,
4060,-0.2,0.18,
4061,-0.21,0.165,
4062,-0.225,0.145,
4063,-0.255,0.13,
4064,-0.28,0.105,
4065,-0.31,0.055,
4066,-0.335,0.03,
4067,-0.375,-0.02,
4068,-0.415,-0.075,
4069,-0.435,-0.095,
4070,-0.485,-0.145,
4071,-0.505,-0.165,
4072,-0.545,-0.195,
4073,-0.555,-0.215,
4074,-0.575,-0.24,
4075,-0.595,-0.26,
4076,-0.615,-0.31,
4077,-0.64,-0.335,
4078,-0.675,-0.38,
4079,-0.69,-0.4,
4080,-0.705,-0.415,
4081,-0.73,-0.44,
4082,-0.755,-0.46,
4083,-0.77,-0.475,
4084,-0.765,-0.47,
4085,-0.775,-0.475,
4086,-0.775,-0.475,
4087,-0.775,-0.48,
4088,-0.76,-0.49,
4089,-0.765,-0.495,
4090,-0.77,-0.5,
4091,-0.78,-0.51,
4092,-0.8,-0.55,
4093,-0.8,-0.535,
4094,-0.795,-0.55,
4095,-0.815,-0.535,
4096,-0.815,-0.53,
4097,-0.795,-0.52,
4098,-0.795,-0.52,
4099,-0.79,-0.51,
4100,-0.785,-0.515,
4101,-0.79,-0.525,
4102,-0.79,-0.525,
4103,-0.81,-0.535,
4104,-0.81,-0.535,
4105,-0.81,-0.55,
4106,-0.815,-0.555,
4107,-0.81,-0.545,
4108,-0.81,-0.535,
4109,-0.8,-0.51,
4110,-0.795,-0.505,
4111,-0.77,-0.51,
4112,-0.78,-0.5,
4113,-0.78,-0.49,
4114,-0.785,-0.505,
4115,-0.78,-0.51,
4116,-0.785,-0.52,
4117,-0.8,-0.525,
4118,-0.805,-0.515,
4119,-0.81,-0.515,
4120,-0.8,-0.5,
4121,-0.795,-0.51,
4122,-0.785,-0.49,
4123,-0.77,-0.49,
4124,-0.77,-0.51,
4125,-0.76,-0.51,
4126,-0.765,-0.51,
4127,-0.79,-0.505,
4128,-0.785,-0.52,
4129,-0.8,-0.535,
4130,-0.81,-0.525,
4131,-0.805,-0.535,
4132,-0.805,-0.53,
4133,-0.815,-0.51,
4134,-0.81,-0.5,
4135,-0.815,-0.485,
4136,-0.79,-0.495,
4137,-0.785,-0.5,
4138,-0.805,-0.505,
4139,-0.815,-0.515,
4140,-0.83,-0.535,
4141,-0.845,-0.56,
4142,-0.86,-0.56,
4143,-0.84,-0.56,
4144,-0.855,-0.54,
4145,-0.855,-0.535,
4146,-0.85,-0.52,
4147,-0.84,-0.535,
4148,-0.83,-0.535,
4149,-0.845,-0.54,
4150,-0.85,-0.56,
4151,-0.87,-0.57,
4152,-0.87,-0.565,
4153,-0.885,-0.575,
4154,-0.88,-0.585,
4155,-0.875,-0.57,
4156,-0.865,-0.565,
4157,-0.865,-0.555,
4158,-0.87,-0.555,
4159,-0.865,-0.54,
4160,-0.865,-0.54,
4161,-0.855,-0.54,
4162,-0.85,-0.54,
4163,-0.87,-0.57,
4164,-0.885,-0.56,
4165,-0.895,-0.57,
4166,-0.905,-0.58,
4167,-0.9,-0.58,
4168,-0.905,-0.565,
4169,-0.9,-0.555,
4170,-0.885,-0.555,
4171,-0.88,-0.54,
4172,-0.88,-0.55,
4173,-0.86,-0.555,
4174,-0.875,-0.545,
4175,-0.88,-0.55,
4176,-0.895,-0.565,
4177,-0.915,-0.56,
4178,-0.91,-0.555,
4179,-0.915,-0.56,
4180,-0.92,-0.545,
4181,-0.915,-0.525,
4182,-0.905,-0.535,
4183,-0.895,-0.54,
4184,-0.89,-0.525,
4185,-0.885,-0.53,
4186,-0.89,-0.545,
4187,-0.895,-0.555,
4188,-0.905,-0.565,
4189,-0.925,-0.57,
4190,-0.94,-0.575,
4191,-0.94,-0.565,
4192,-0.94,-0.58,
4193,-0.925,-0.58,
4194,-0.915,-0.57,
4195,-0.905,-0.565,
4196,-0.91,-0.58,
4197,-0.895,-0.55,
4198,-0.91,-0.575,
4199,-0.92,-0.575,
4200,-0.915,-0.585,
4201,-0.925,-0.585,
4202,-0.925,-0.58,
4203,-0.94,-0.585,
4204,-0.93,-0.575,
4205,-0.925,-0.565,
4206,-0.91,-0.565,
4207,-0.905,-0.55,
4208,-0.905,-0.565,
4209,-0.905,-0.555,
4210,-0.92,-0.565,
4211,-0.915,-0.585,
4212,-0.935,-0.585,
4213,-0.94,-0.605,
4214,-0.945,-0.6,
4215,-0.945,-0.58,
4216,-0.94,-0.58,
4217,-0.935,-0.575,
4218,-0.925,-0.57,
4219,-0.93,-0.565,
4220,-0.915,-0.575,
4221,-0.915,-0.565,
4222,-0.915,-0.57,
4223,-0.92,-0.6,
4224,-0.915,-0.6,
4225,-0.93,-0.58,
4226,-0.93,-0.6,
4227,-0.935,-0.585,
4228,-0.945,-0.565,
4229,-0.94,-0.57,
4230,-0.92,-0.545,
4231,-0.93,-0.55,
4232,-0.925,-0.55,
4233,-0.9,-0.55,
4234,-0.9,-0.55,
4235,-0.93,-0.56,
4236,-0.93,-0.565,
4237,-0.95,-0.57,
4238,-0.935,-0.58,
4239,-0.94,-0.57,
4240,-0.93,-0.565,
4241,-0.925,-0.545,
4242,-0.925,-0.52,
4243,-0.915,-0.515,
4244,-0.905,-0.52,
4245,-0.895,-0.505,
4246,-0.915,-0.52,
4247,-0.925,-0.525,
4248,-0.93,-0.535,
4249,-0.94,-0.53,
4250,-0.945,-0.535,
4251,-0.94,-0.54,
4252,-0.94,-0.53,
4253,-0.935,-0.515,
4254,-0.93,-0.505,
4255,-0.935,-0.49,
4256,-0.92,-0.495,
4257,-0.93,-0.5,
4258,-0.915,-0.495,
4259,-0.915,-0.505,
4260,-0.925,-0.515,
4261,-0.92,-0.52,
4262,-0.945,-0.52,
4263,-0.955,-0.53,
4264,-0.96,-0.51,
4265,-0.94,-0.51,
4266,-0.92,-0.495,
4267,-0.9,-0.485,
4268,-0.9,-0.48,
4269,-0.91,-0.48,
4270,-0.91,-0.495,
4271,-0.93,-0.51,
4272,-0.915,-0.5,
4273,-0.93,-0.515,
4274,-0.94,-0.505,
4275,-0.935,-0.51,
4276,-0.95,-0.505,
4277,-0.95,-0.505,
4278,-0.94,-0.495,
4279,-0.91,-0.485,
4280,-0.905,-0.48,
4281,-0.91,-0.485,
4282,-0.905,-0.485,
4283,-0.915,-0.5,
4284,-0.92,-0.52,
4285,-0.935,-0.52,
4286,-0.93,-0.52,
4287,-0.945,-0.505,
4288,-0.935,-0.515,
4289,-0.93,-0.505,
4290,-0.915,-0.5,
4291,-0.925,-0.49,
4292,-0.905,-0.485,
4293,-0.895,-0.505,
4294,-0.9,-0.5,
4295,-0.92,-0.505,
4296,-0.935,-0.52,
4297,-0.945,-0.515,
4298,-0.945,-0.52,
4299,-0.94,-0.505,
4300,-0.925,-0.5,
4301,-0.91,-0.49,
4302,-0.88,-0.485,
4303,-0.865,-0.465,
4304,-0.85,-0.475,
4305,-0.84,-0.485,
4306,-0.825,-0.49,
4307,-0.82,-0.49,
4308,-0.83,-0.485,
4309,-0.845,-0.485,
4310,-0.825,-0.465,
4311,-0.815,-0.465,
4312,-0.805,-0.435,
4313,-0.79,-0.405,
4314,-0.755,-0.395,
4315,-0.73,-0.39,
4316,-0.73,-0.375,
4317,-0.75,-0.345,
4318,-0.735,-0.335,
4319,-0.755,-0.325,
4320,-0.775,-0.325,
4321,-0.795,-0.315,
4322,-0.81,-0.335,
4323,-0.835,-0.32,
4324,-0.83,-0.325,
4325,-0.82,-0.315,
4326,-0.83,-0.305,
4327,-0.835,-0.33,
4328,-0.82,-0.335,
4329,-0.855,-0.35,
4330,-0.88,-0.365,
4331,-0.9,-0.385,
4332,-0.92,-0.41,
4333,-0.94,-0.43,
4334,-0.95,-0.455,
4335,-0.95,-0.47,
4336,-0.945,-0.46,
4337,-0.945,-0.455,
4338,-0.94,-0.47,
4339,-0.935,-0.46,
4340,-0.935,-0.455,
4341,-0.93,-0.46,
4342,-0.945,-0.485,
4343,-0.955,-0.49,
4344,-0.98,-0.51,
4345,-0.975,-0.525,
4346,-0.98,-0.525,
4347,-0.98,-0.535,
4348,-0.98,-0.505,
4349,-0.98,-0.49,
4350,-0.965,-0.49,
4351,-0.96,-0.48,
4352,-0.965,-0.485,
4353,-0.965,-0.485,
4354,-0.955,-0.495,
4355,-0.95,-0.49,
4356,-0.955,-0.49,
4357,-0.97,-0.505,
4358,-0.96,-0.51,
4359,-0.96,-0.52,
4360,-0.955,-0.5,
4361,-0.935,-0.5,
4362,-0.93,-0.49,
4363,-0.91,-0.475,
4364,-0.875,-0.485,
4365,-0.82,-0.465,
4366,-0.74,-0.425,
4367,-0.665,-0.34,
4368,-0.565,-0.2,
4369,-0.44,-0.015,
4370,-0.305,0.2,
4371,-0.215,0.465,
4372,-0.155,0.73,
4373,-0.165,0.955,
4374,-0.27,1.14,
4375,-0.445,1.21,
4376,-0.7,1.15,
4377,-0.965,0.99,
4378,-1.215,0.715,
4379,-1.45,0.35,
4380,-1.65,-0.05,
4381,-1.775,-0.48,
4382,-1.82,-0.795,N
4383,-1.785,-0.975,
4384,-1.66,-1.0,
4385,-1.53,-0.885,
4386,-1.425,-0.76,
4387,-1.345,-0.665,
4388,-1.26,-0.59,
4389,-1.19,-0.56,
4390,-1.125,-0.555,
4391,-1.05,-0.53,
4392,-0.99,-0.5,
4393,-0.975,-0.49,
4394,-0.94,-0.485,
4395,-0.94,-0.47,
4396,-0.945,-0.46,
4397,-0.925,-0.435,
4398,-0.94,-0.435,
4399,-0.91,-0.435,
4400,-0.905,-0.44,
4401,-0.9,-0.435,
4402,-0.89,-0.44,
4403,-0.89,-0.43,
4404,-0.885,-0.44,
4405,-0.885,-0.445,
4406,-0.89,-0.445,
4407,-0.885,-0.42,
4408,-0.89,-0.41,
4409,-0.875,-0.405,
4410,-0.86,-0.39,
4411,-0.845,-0.39,
4412,-0.83,-0.375,
4413,-0.835,-0.375,
4414,-0.845,-0.385,
4415,-0.855,-0.39,
4416,-0.85,-0.385,
4417,-0.865,-0.395,
4418,-0.86,-0.395,
4419,-0.85,-0.395,
4420,-0.84,-0.38,
4421,-0.85,-0.36,
4422,-0.84,-0.35,
4423,-0.82,-0.34,
4424,-0.82,-0.33,
4425,-0.81,-0.34,
4426,-0.8,-0.33,
4427,-0.805,-0.335,
4428,-0.815,-0.32,
4429,-0.81,-0.325,
4430,-0.805,-0.33,
4431,-0.795,-0.325,
4432,-0.795,-0.33,
4433,-0.785,-0.31,
4434,-0.785,-0.3,
4435,-0.785,-0.295,
4436,-0.78,-0.28,
4437,-0.755,-0.285,
4438,-0.745,-0.27,
4439,-0.74,-0.27,
4440,-0.76,-0.27,
4441,-0.75,-0.26,
4442,-0.74,-0.265,
4443,-0.735,-0.25,
4444,-0.73,-0.225,
4445,-0.705,-0.195,
4446,-0.695,-0.185,
4447,-0.675,-0.155,
4448,-0.64,-0.155,
4449,-0.645,-0.13,
4450,-0.64,-0.14,
4451,-0.635,-0.12,
4452,-0.605,-0.115,
4453,-0.615,-0.11,
4454,-0.595,-0.095,
4455,-0.6,-0.08,
4456,-0.565,-0.035,
4457,-0.55,-0.015,
4458,-0.54,0.03,
4459,-0.525,0.05,
4460,-0.475,0.055,
4461,-0.475,0.095,
4462,-0.445,0.105,
4463,-0.44,0.115,
4464,-0.42,0.12,
4465,-0.4,0.135,
4466,-0.39,0.145,
4467,-0.38,0.18,
4468,-0.34,0.215,
4469,-0.325,0.22,
4470,-0.31,0.265,
4471,-0.29,0.29,
4472,-0.255,0.29,
4473,-0.25,0.315,
4474,-0.225,0.33,
4475,-0.225,0.325,
4476,-0.245,0.325,
4477,-0.24,0.32,
4478,-0.245,0.325,
4479,-0.24,0.335,
4480,-0.26,0.34,
4481,-0.23,0.35,
4482,-0.23,0.355,
4483,-0.22,0.36,
4484,-0.23,0.345,
4485,-0.235,0.315,
4486,-0.27,0.29,
4487,-0.315,0.265,
4488,-0.325,0.225,
4489,-0.375,0.18,
4490,-0.41,0.135,
4491,-0.45,0.11,
4492,-0.485,0.065,
4493,-0.53,0.025,
4494,-0.54,-0.005,
4495,-0.57,-0.035,
4496,-0.58,-0.085,
4497,-0.61,-0.115,
4498,-0.645,-0.15,
4499,-0.67,-0.205,
4500,-0.695,-0.225,
4501,-0.735,-0.265,
4502,-0.77,-0.295,
4503,-0.805,-0.315,
4504,-0.805,-0.32,
4505,-0.82,-0.34,
4506,-0.835,-0.34,
4507,-0.83,-0.355,
4508,-0.825,-0.38,
4509,-0.83,-0.38,
4510,-0.855,-0.395,
4511,-0.86,-0.41,
4512,-0.875,-0.435,
4513,-0.885,-0.47,
4514,-0.88,-0.46,
4515,-0.9,-0.45,
4516,-0.895,-0.45,
4517,-0.885,-0.43,
4518,-0.885,-0.425,
4519,-0.875,-0.435,
4520,-0.88,-0.415,
4521,-0.88,-0.435,
4522,-0.885,-0.425,
4523,-0.895,-0.44,
4524,-0.9,-0.465,
4525,-0.92,-0.48,
4526,-0.915,-0.48,
4527,-0.93,-0.49,
4528,-0.935,-0.48,
4529,-0.925,-0.465,
4530,-0.91,-0.465,
4531,-0.905,-0.45,
4532,-0.89,-0.44,
4533,-0.895,-0.455,
4534,-0.885,-0.465,
4535,-0.885,-0.465,
4536,-0.895,-0.46,
4537,-0.91,-0.475,
4538,-0.9,-0.47,
4539,-0.915,-0.465,
4540,-0.895,-0.47,
4541,-0.905,-0.45,
4542,-0.89,-0.435,
4543,-0.88,-0.425,
4544,-0.875,-0.44,
4545,-0.89,-0.435,
4546,-0.88,-0.43,
4547,-0.87,-0.445,
4548,-0.895,-0.435,
4549,-0.89,-0.445,
4550,-0.895,-0.455,
4551,-0.895,-0.44,
4552,-0.89,-0.435,
4553,-0.895,-0.435,
4554,-0.895,-0.41,
4555,-0.87,-0.42,
4556,-0.895,-0.405,
4557,-0.91,-0.43,
4558,-0.9,-0.43,
4559,-0.91,-0.435,
4560,-0.915,-0.455,
4561,-0.92,-0.46,
4562,-0.93,-0.465,
4563,-0.925,-0.45,
4564,-0.925,-0.45,
4565,-0.925,-0.46,
4566,-0.915,-0.445,
4567,-0.92,-0.44,
4568,-0.915,-0.445,
4569,-0.91,-0.46,
4570,-0.925,-0.455,
4571,-0.93,-0.455,
4572,-0.95,-0.485,
4573,-0.95,-0.48,
4574,-0.94,-0.485,
4575,-0.95,-0.475,
4576,-0.955,-0.47,
4577,-0.945,-0.46,
4578,-0.935,-0.465,
4579,-0.945,-0.47,
4580,-0.945,-0.435,
4581,-0.925,-0.465,
4582,-0.935,-0.48,
4583,-0.95,-0.48,
4584,-0.945,-0.485,
4585,-0.95,-0.49,
4586,-0.955,-0.485,
4587,-0.965,-0.475,
4588,-0.975,-0.475,
4589,-0.975,-0.465,
4590,-0.985,-0.45,
4591,-0.965,-0.44,
4592,-0.94,-0.45,
4593,-0.95,-0.46,
4594,-0.95,-0.455,
4595,-0.955,-0.48,
4596,-0.975,-0.47,
4597,-0.96,-0.475,
4598,-0.965,-0.48,
4599,-0.965,-0.49,
4600,-0.975,-0.475,
4601,-0.965,-0.48,
4602,-0.955,-0.47,
4603,-0.945,-0.46,
4604,-0.985,-0.455,
4605,-0.975,-0.46,
4606,-0.96,-0.455,
4607,-0.965,-0.455,
4608,-0.98,-0.465,
4609,-0.985,-0.495,
4610,-0.985,-0.485,
4611,-0.99,-0.47,
4612,-0.98,-0.485,
4613,-0.97,-0.46,
4614,-0.965,-0.46,
4615,-0.96,-0.45,
4616,-0.92,-0.46,
4617,-0.935,-0.455,
4618,-0.935,-0.475,
4619,-0.95,-0.485,
4620,-0.955,-0.495,
4621,-0.965,-0.495,
4622,-0.97,-0.505,
4623,-0.97,-0.485,
4624,-0.975,-0.5,
4625,-0.98,-0.47,
4626,-0.97,-0.475,
4627,-0.95,-0.455,
4628,-0.94,-0.475,
4629,-0.95,-0.47,
4630,-0.96,-0.48,
4631,-0.96,-0.49,
4632,-0.96,-0.495,
4633,-0.97,-0.51,
4634,-0.96,-0.5,
4635,-0.955,-0.505,
4636,-0.97,-0.485,
4637,-0.96,-0.49,
4638,-0.96,-0.495,
4639,-0.95,-0.48,
4640,-0.935,-0.465,
4641,-0.945,-0.475,
4642,-0.945,-0.475,
4643,-0.955,-0.5,
4644,-0.965,-0.5,
4645,-0.965,-0.505,
4646,-0.96,-0.505,
4647,-0.97,-0.5,
4648,-0.96,-0.495,
4649,-0.95,-0.48,
4650,-0.945,-0.475,
4651,-0.935,-0.465,
4652,-0.92,-0.465,
4653,-0.925,-0.475,
4654,-0.93,-0.465,
4655,-0.935,-0.47,
4656,-0.94,-0.475,
4657,-0.95,-0.485,
4658,-0.95,-0.485,
4659,-0.96,-0.47,
4660,-0.965,-0.47,
4661,-0.95,-0.455,
4662,-0.955,-0.46,
4663,-0.935,-0.44,
4664,-0.93,-0.45,
4665,-0.925,-0.455,
4666,-0.93,-0.455,
4667,-0.935,-0.47,
4668,-0.955,-0.47,
4669,-0.945,-0.485,
4670,-0.95,-0.475,
4671,-0.95,-0.47,
4672,-0.955,-0.47,
4673,-0.955,-0.475,
4674,-0.945,-0.455,
4675,-0.93,-0.46,
4676,-0.925,-0.45,
4677,-0.93,-0.455,
4678,-0.93,-0.46,
4679,-0.94,-0.47,
4680,-0.94,-0.475,
4681,-0.95,-0.49,
4682,-0.95,-0.49,
4683,-0.96,-0.49,
4684,-0.95,-0.475,
4685,-0.945,-0.465,
4686,-0.925,-0.455,
4687,-0.92,-0.43,
4688,-0.92,-0.445,
4689,-0.915,-0.445,
4690,-0.92,-0.465,
4691,-0.93,-0.45,
4692,-0.935,-0.475,
4693,-0.945,-0.48,
4694,-0.955,-0.465,
4695,-0.955,-0.495,
4696,-0.95,-0.47,
4697,-0.935,-0.455,
4698,-0.945,-0.46,
4699,-0.935,-0.455,
4700,-0.915,-0.44,
4701,-0.905,-0.46,
4702,-0.91,-0.47,
4703,-0.91,-0.48,
4704,-0.915,-0.495,
4705,-0.925,-0.5,
4706,-0.935,-0.5,
4707,-0.935,-0.49,
4708,-0.945,-0.46,
4709,-0.925,-0.45,
4710,-0.925,-0.44,
4711,-0.915,-0.45,
4712,-0.9,-0.43,
4713,-0.905,-0.45,
4714,-0.905,-0.45,
4715,-0.895,-0.47,
4716,-0.92,-0.455,
4717,-0.905,-0.465,
4718,-0.905,-0.465,
4719,-0.9,-0.47,
4720,-0.9,-0.46,
4721,-0.875,-0.45,
4722,-0.87,-0.425,
4723,-0.84,-0.425,
4724,-0.84,-0.44,
4725,-0.82,-0.44,
4726,-0.825,-0.435,
4727,-0.83,-0.435,
4728,-0.825,-0.435,
4729,-0.825,-0.445,
4730,-0.81,-0.435,
4731,-0.81,-0.415,
4732,-0.78,-0.405,
4733,-0.765,-0.38,
4734,-0.735,-0.365,
4735,-0.725,-0.335,
4736,-0.7,-0.32,
4737,-0.715,-0.31,
4738,-0.71,-0.29,
4739,-0.74,-0.28,
4740,-0.76,-0.29,
4741,-0.775,-0.29,
4742,-0.785,-0.3,
4743,-0.8,-0.305,
4744,-0.81,-0.295,
4745,-0.82,-0.295,
4746,-0.815,-0.29,
4747,-0.82,-0.28,
4748,-0.83,-0.3,
4749,-0.845,-0.305,
4750,-0.88,-0.315,
4751,-0.87,-0.34,
4752,-0.88,-0.375,
4753,-0.9,-0.4,
4754,-0.905,-0.425,
4755,-0.905,-0.425,
4756,-0.915,-0.435,
4757,-0.92,-0.43,
4758,-0.915,-0.42,
4759,-0.9,-0.425,
4760,-0.9,-0.435,
4761,-0.905,-0.44,
4762,-0.91,-0.455,
4763,-0.94,-0.47,
4764,-0.945,-0.48,
4765,-0.945,-0.475,
4766,-0.94,-0.48,
4767,-0.965,-0.495,
4768,-0.96,-0.46,
4769,-0.945,-0.455,
4770,-0.92,-0.45,
4771,-0.91,-0.455,
4772,-0.895,-0.465,
4773,-0.9,-0.455,
4774,-0.905,-0.46,
4775,-0.915,-0.485,
4776,-0.92,-0.47,
4777,-0.905,-0.48,
4778,-0.915,-0.475,
4779,-0.92,-0.485,
4780,-0.92,-0.46,
4781,-0.905,-0.475,
4782,-0.88,-0.46,
4783,-0.845,-0.46,
4784,-0.785,-0.445,
4785,-0.715,-0.415,
4786,-0.61,-0.325,
4787,-0.5,-0.2,
4788,-0.365,-0.02,
4789,-0.205,0.22,
4790,-0.08,0.475,
4791,-0.02,0.75,
4792,-0.035,0.995,
4793,-0.13,1.175,
4794,-0.32,1.26,
4795,-0.56,1.215,
4796,-0.835,1.005,
4797,-1.095,0.72,
4798,-1.33,0.335,
4799,-1.54,-0.055,
4800,-1.64,-0.41,N
4801,-1.65,-0.66,
4802,-1.565,-0.76,
4803,-1.46,-0.74,
4804,-1.34,-0.645,
4805,-1.23,-0.54,
4806,-1.15,-0.47,
4807,-1.065,-0.445,
4808,-1.015,-0.415,
4809,-0.97,-0.43,
4810,-0.9,-0.425,
4811,-0.86,-0.445,
4812,-0.845,-0.43,
4813,-0.865,-0.415,
4814,-0.86,-0.44,
4815,-0.87,-0.435,
4816,-0.87,-0.425,
4817,-0.86,-0.425,
4818,-0.83,-0.41,
4819,-0.83,-0.405,
4820,-0.805,-0.4,
4821,-0.795,-0.405,
4822,-0.805,-0.405,
4823,-0.81,-0.415,
4824,-0.795,-0.415,
4825,-0.795,-0.425,
4826,-0.805,-0.425,
4827,-0.805,-0.41,
4828,-0.81,-0.4,
4829,-0.8,-0.39,
4830,-0.795,-0.385,
4831,-0.78,-0.38,
4832,-0.755,-0.37,
4833,-0.755,-0.375,
4834,-0.755,-0.38,
4835,-0.76,-0.38,
4836,-0.755,-0.38,
4837,-0.775,-0.385,
4838,-0.765,-0.4,
4839,-0.77,-0.39,
4840,-0.77,-0.38,
4841,-0.76,-0.355,
4842,-0.745,-0.345,
4843,-0.735,-0.345,
4844,-0.72,-0.335,
4845,-0.725,-0.345,
4846,-0.715,-0.355,
4847,-0.705,-0.355,
4848,-0.715,-0.345,
4849,-0.735,-0.36,
4850,-0.73,-0.345,
4851,-0.715,-0.34,
4852,-0.715,-0.32,
4853,-0.71,-0.295,
4854,-0.67,-0.28,
4855,-0.66,-0.27,
4856,-0.66,-0.265,
4857,-0.665,-0.27,
4858,-0.66,-0.265,
4859,-0.65,-0.255,
4860,-0.64,-0.25,
4861,-0.65,-0.25,
4862,-0.665,-0.245,
4863,-0.65,-0.23,
4864,-0.62,-0.21,
4865,-0.59,-0.19,
4866,-0.57,-0.175,
4867,-0.555,-0.145,
4868,-0.535,-0.14,
4869,-0.525,-0.105,
4870,-0.52,-0.12,
4871,-0.51,-0.11,
4872,-0.5,-0.105,
4873,-0.49,-0.095,
4874,-0.465,-0.085,
4875,-0.47,-0.045,
4876,-0.45,-0.035,
4877,-0.415,-0.01,
4878,-0.4,0.025,
4879,-0.375,0.04,
4880,-0.33,0.045,
4881,-0.34,0.075,
4882,-0.31,0.105,
4883,-0.3,0.1,
4884,-0.285,0.115,
4885,-0.29,0.12,
4886,-0.275,0.15,
4887,-0.265,0.155,
4888,-0.255,0.175,
4889,-0.21,0.2,
4890,-0.195,0.215,
4891,-0.165,0.24,
4892,-0.16,0.245,
4893,-0.15,0.24,
4894,-0.15,0.25,
4895,-0.145,0.255,
4896,-0.15,0.24,
4897,-0.16,0.24,
4898,-0.175,0.225,
4899,-0.17,0.235,
4900,-0.185,0.245,
4901,-0.175,0.25,
4902,-0.195,0.24,
4903,-0.185,0.235,
4904,-0.195,0.23,
4905,-0.23,0.185,
4906,-0.26,0.145,
4907,-0.27,0.12,
4908,-0.31,0.095,
4909,-0.335,0.045,
4910,-0.375,0.0,
4911,-0.415,-0.02,
4912,-0.44,-0.035,
4913,-0.475,-0.065,
4914,-0.495,-0.1,
4915,-0.515,-0.115,
4916,-0.535,-0.15,
4917,-0.565,-0.19,
4918,-0.6,-0.215,
4919,-0.62,-0.245,
4920,-0.65,-0.295,
4921,-0.685,-0.32,
4922,-0.705,-0.345,
4923,-0.73,-0.36,
4924,-0.765,-0.365,
4925,-0.76,-0.365,
4926,-0.765,-0.375,
4927,-0.76,-0.385,
4928,-0.76,-0.4,
4929,-0.785,-0.41,
4930,-0.785,-0.41,
4931,-0.79,-0.43,
4932,-0.805,-0.45,
4933,-0.835,-0.45,
4934,-0.835,-0.455,
4935,-0.855,-0.45,
4936,-0.85,-0.445,
4937,-0.845,-0.435,
4938,-0.83,-0.435,
4939,-0.83,-0.425,
4940,-0.815,-0.44,
4941,-0.83,-0.445,
4942,-0.835,-0.445,
4943,-0.84,-0.455,
4944,-0.85,-0.49,
4945,-0.845,-0.49,
4946,-0.86,-0.5,
4947,-0.855,-0.49,
4948,-0.86,-0.49,
4949,-0.84,-0.48,
4950,-0.845,-0.455,
4951,-0.84,-0.45,
4952,-0.815,-0.45,
4953,-0.825,-0.46,
4954,-0.815,-0.45,
4955,-0.815,-0.455,
4956,-0.825,-0.455,
4957,-0.83,-0.46,
4958,-0.835,-0.465,
4959,-0.845,-0.46,
4960,-0.845,-0.435,
4961,-0.835,-0.43,
4962,-0.825,-0.435,
4963,-0.805,-0.425,
4964,-0.8,-0.425,
4965,-0.805,-0.43,
4966,-0.8,-0.415,
4967,-0.805,-0.435,
4968,-0.82,-0.44,
4969,-0.82,-0.44,
4970,-0.825,-0.44,
4971,-0.835,-0.45,
4972,-0.815,-0.44,
4973,-0.805,-0.435,
4974,-0.8,-0.415,
4975,-0.785,-0.41,
4976,-0.785,-0.41,
4977,-0.79,-0.415,
4978,-0.795,-0.43,
4979,-0.815,-0.43,
4980,-0.8,-0.455,
4981,-0.82,-0.455,
4982,-0.83,-0.465,
4983,-0.845,-0.455,
4984,-0.85,-0.445,
4985,-0.835,-0.425,
4986,-0.825,-0.425,
4987,-0.82,-0.43,
4988,-0.81,-0.425,
4989,-0.82,-0.44,
4990,-0.815,-0.44,
4991,-0.83,-0.445,
4992,-0.845,-0.47,
4993,-0.865,-0.48,
4994,-0.86,-0.48,
4995,-0.87,-0.465,
4996,-0.885,-0.45,
4997,-0.865,-0.475,
4998,-0.87,-0.46,
4999,-0.85,-0.44,
5000,-0.85,-0.44,
5001,-0.85,-0.445,
5002,-0.85,-0.45,
5003,-0.86,-0.46,
5004,-0.865,-0.47,
5005,-0.875,-0.47,
5006,-0.885,-0.475,
5007,-0.885,-0.485,
5008,-0.89,-0.455,
5009,-0.885,-0.465,
5010,-0.875,-0.45,
5011,-0.865,-0.455,
5012,-0.855,-0.44,
5013,-0.87,-0.455,
5014,-0.87,-0.445,
5015,-0.87,-0.47,
5016,-0.89,-0.48,
5017,-0.895,-0.465,
5018,-0.905,-0.475,
5019,-0.915,-0.48,
5020,-0.9,-0.485,
5021,-0.905,-0.46,
5022,-0.89,-0.455,
5023,-0.89,-0.44,
5024,-0.88,-0.44,
5025,-0.885,-0.46,
5026,-0.89,-0.465,
5027,-0.88,-0.47,
5028,-0.89,-0.48,
5029,-0.89,-0.48,
5030,-0.905,-0.495,
5031,-0.925,-0.48,
5032,-0.92,-0.495,
5033,-0.915,-0.475,
5034,-0.9,-0.465,
5035,-0.905,-0.45,
5036,-0.895,-0.46,
5037,-0.89,-0.46,
5038,-0.88,-0.465,
5039,-0.885,-0.475,
5040,-0.895,-0.485,
5041,-0.91,-0.485,
5042,-0.905,-0.475,
5043,-0.93,-0.475,
5044,-0.91,-0.47,
5045,-0.905,-0.48,
5046,-0.895,-0.455,
5047,-0.9,-0.46,
5048,-0.885,-0.455,
5049,-0.9,-0.455,
5050,-0.88,-0.465,
5051,-0.895,-0.485,
5052,-0.9,-0.485,
5053,-0.92,-0.49,
5054,-0.915,-0.485,
5055,-0.92,-0.48,
5056,-0.91,-0.48,
5057,-0.91,-0.47,
5058,-0.9,-0.46,
5059,-0.895,-0.465,
5060,-0.895,-0.46,
5061,-0.885,-0.465,
5062,-0.9,-0.465,
5063,-0.91,-0.495,
5064,-0.9,-0.49,
5065,-0.895,-0.49,
5066,-0.92,-0.5,
5067,-0.925,-0.5,
5068,-0.92,-0.49,
5069,-0.92,-0.46,
5070,-0.91,-0.465,
5071,-0.895,-0.45,
5072,-0.895,-0.465,
5073,-0.87,-0.465,
5074,-0.88,-0.46,
5075,-0.89,-0.485,
5076,-0.895,-0.47,
5077,-0.885,-0.485,
5078,-0.89,-0.48,
5079,-0.91,-0.49,
5080,-0.9,-0.46,
5081,-0.9,-0.46,
5082,-0.89,-0.46,
5083,-0.895,-0.45,
5084,-0.88,-0.45,
5085,-0.895,-0.455,
5086,-0.905,-0.455,
5087,-0.905,-0.465,
5088,-0.905,-0.465,
5089,-0.91,-0.49,
5090,-0.915,-0.48,
5091,-0.91,-0.475,
5092,-0.91,-0.47,
5093,-0.895,-0.455,
5094,-0.885,-0.465,
5095,-0.87,-0.455,
5096,-0.865,-0.46,
5097,-0.885,-0.46,
5098,-0.88,-0.47,
5099,-0.895,-0.465,
5100,-0.895,-0.495,
5101,-0.885,-0.48,
5102,-0.885,-0.485,
5103,-0.895,-0.475,
5104,-0.885,-0.48,
5105,-0.89,-0.455,
5106,-0.89,-0.46,
5107,-0.88,-0.445,
5108,-0.87,-0.445,
5109,-0.875,-0.445,
5110,-0.865,-0.45,
5111,-0.865,-0.465,
5112,-0.875,-0.485,
5113,-0.89,-0.485,
5114,-0.89,-0.475,
5115,-0.895,-0.48,
5116,-0.89,-0.485,
5117,-0.885,-0.465,
5118,-0.88,-0.465,
5119,-0.885,-0.465,
5120,-0.87,-0.46,
5121,-0.885,-0.455,
5122,-0.89,-0.46,
5123,-0.89,-0.465,
5124,-0.89,-0.495,
5125,-0.89,-0.475,
5126,-0.89,-0.495,
5127,-0.9,-0.51,
5128,-0.91,-0.495,
5129,-0.895,-0.48,
5130,-0.895,-0.465,
5131,-0.89,-0.46,
5132,-0.875,-0.47,
5133,-0.87,-0.47,
5134,-0.88,-0.46,
5135,-0.88,-0.475,
5136,-0.89,-0.48,
5137,-0.89,-0.49,
5138,-0.89,-0.51,
5139,-0.92,-0.49,
5140,-0.895,-0.49,
5141,-0.905,-0.465,
5142,-0.88,-0.455,
5143,-0.865,-0.445,
5144,-0.855,-0.44,
5145,-0.855,-0.45,
5146,-0.855,-0.455,
5147,-0.86,-0.485,
5148,-0.85,-0.465,
5149,-0.865,-0.48,
5150,-0.87,-0.475,
5151,-0.89,-0.475,
5152,-0.89,-0.48,
5153,-0.865,-0.445,
5154,-0.88,-0.46,
5155,-0.845,-0.445,
5156,-0.835,-0.435,
5157,-0.825,-0.435,
5158,-0.81,-0.435,
5159,-0.825,-0.445,
5160,-0.81,-0.46,
5161,-0.785,-0.48,
5162,-0.775,-0.48,
5163,-0.785,-0.475,
5164,-0.78,-0.455,
5165,-0.775,-0.415,
5166,-0.765,-0.41,
5167,-0.75,-0.385,
5168,-0.715,-0.38,
5169,-0.705,-0.375,
5170,-0.685,-0.38,
5171,-0.685,-0.375,
5172,-0.685,-0.365,
5173,-0.695,-0.365,
5174,-0.705,-0.34,
5175,-0.72,-0.345,
5176,-0.73,-0.32,
5177,-0.735,-0.3,
5178,-0.735,-0.295,
5179,-0.745,-0.29,
5180,-0.735,-0.285,
5181,-0.735,-0.305,
5182,-0.75,-0.305,
5183,-0.765,-0.325,
5184,-0.775,-0.345,
5185,-0.795,-0.355,
5186,-0.83,-0.36,
5187,-0.85,-0.365,
5188,-0.875,-0.37,
5189,-0.875,-0.385,
5190,-0.87,-0.39,
5191,-0.855,-0.385,
5192,-0.845,-0.41,
5193,-0.86,-0.415,
5194,-0.87,-0.44,
5195,-0.87,-0.465,
5196,-0.895,-0.46,
5197,-0.885,-0.475,
5198,-0.89,-0.49,
5199,-0.895,-0.485,
5200,-0.9,-0.48,
5201,-0.895,-0.46,
5202,-0.9,-0.465,
5203,-0.895,-0.465,
5204,-0.88,-0.465,
5205,-0.885,-0.47,
5206,-0.88,-0.49,
5207,-0.895,-0.49,
5208,-0.875,-0.495,
5209,-0.9,-0.51,
5210,-0.925,-0.525,
5211,-0.935,-0.495,
5212,-0.92,-0.495,
5213,-0.91,-0.485,
5214,-0.91,-0.495,
5215,-0.9,-0.495,
5216,-0.885,-0.495,
5217,-0.88,-0.48,
5218,-0.865,-0.475,
5219,-0.87,-0.49,
5220,-0.87,-0.5,
5221,-0.875,-0.505,
5222,-0.85,-0.53,
5223,-0.805,-0.51,
5224,-0.745,-0.475,
5225,-0.645,-0.385,
5226,-0.505,-0.27,
5227,-0.375,-0.075,
5228,-0.225,0.145,
5229,-0.095,0.375,
5230,-0.02,0.615,
5231,-0.03,0.805,
5232,-0.115,0.98,
5233,-0.295,1.055,
5234,-0.53,1.03,
5235,-0.805,0.885,
5236,-1.065,0.67,
5237,-1.28,0.36,
5238,-1.475,0.05,
5239,-1.6,-0.285,N
5240,-1.625,-0.56,
5241,-1.595,-0.735,
5242,-1.51,-0.8,
5243,-1.415,-0.775,
5244,-1.315,-0.695,
5245,-1.24,-0.62,
5246,-1.18,-0.565,
5247,-1.125,-0.525,
5248,-1.065,-0.505,
5249,-0.99,-0.485,
5250,-0.935,-0.475,
5251,-0.865,-0.435,
5252,-0.825,-0.435,
5253,-0.81,-0.44,
5254,-0.815,-0.455,
5255,-0.84,-0.46,
5256,-0.845,-0.47,
5257,-0.85,-0.475,
5258,-0.85,-0.49,
5259,-0.875,-0.48,
5260,-0.855,-0.485,
5261,-0.835,-0.455,
5262,-0.81,-0.46,
5263,-0.8,-0.425,
5264,-0.785,-0.425,
5265,-0.78,-0.44,
5266,-0.785,-0.435,
5267,-0.785,-0.435,
5268,-0.775,-0.44,
5269,-0.79,-0.455,
5270,-0.775,-0.455,
5271,-0.79,-0.445,
5272,-0.79,-0.43,
5273,-0.77,-0.425,
5274,-0.75,-0.425,
5275,-0.755,-0.405,
5276,-0.755,-0.4,
5277,-0.73,-0.38,
5278,-0.735,-0.385,
5279,-0.76,-0.425,
5280,-0.77,-0.395,
5281,-0.77,-0.42,
5282,-0.76,-0.41,
5283,-0.775,-0.415,
5284,-0.775,-0.395,
5285,-0.77,-0.39,
5286,-0.74,-0.365,
5287,-0.725,-0.355,
5288,-0.71,-0.345,
5289,-0.705,-0.35,
5290,-0.705,-0.355,
5291,-0.695,-0.37,
5292,-0.7,-0.35,
5293,-0.715,-0.345,
5294,-0.705,-0.375,
5295,-0.705,-0.35,
5296,-0.71,-0.34,
5297,-0.69,-0.32,
5298,-0.685,-0.295,
5299,-0.675,-0.295,
5300,-0.66,-0.275,
5301,-0.645,-0.28,
5302,-0.645,-0.28,
5303,-0.635,-0.285,
5304,-0.63,-0.28,
5305,-0.64,-0.28,
5306,-0.63,-0.28,
5307,-0.63,-0.275,
5308,-0.615,-0.25,
5309,-0.61,-0.22,
5310,-0.585,-0.21,
5311,-0.56,-0.2,
5312,-0.565,-0.17,
5313,-0.54,-0.175,
5314,-0.535,-0.16,
5315,-0.51,-0.17,
5316,-0.52,-0.135,
5317,-0.5,-0.14,
5318,-0.485,-0.125,
5319,-0.475,-0.1,
5320,-0.46,-0.07,
5321,-0.42,-0.045,
5322,-0.4,-0.005,
5323,-0.39,0.005,
5324,-0.34,0.025,
5325,-0.32,0.04,
5326,-0.32,0.035,
5327,-0.32,0.06,
5328,-0.305,0.065,
5329,-0.29,0.07,
5330,-0.29,0.075,
5331,-0.265,0.085,
5332,-0.26,0.11,
5333,-0.235,0.145,
5334,-0.215,0.155,
5335,-0.205,0.175,
5336,-0.185,0.185,
5337,-0.185,0.195,
5338,-0.175,0.195,
5339,-0.17,0.185,
5340,-0.155,0.2,
5341,-0.17,0.195,
5342,-0.165,0.185,
5343,-0.175,0.185,
5344,-0.17,0.19,
5345,-0.165,0.205,
5346,-0.195,0.18,
5347,-0.175,0.2,
5348,-0.19,0.19,
5349,-0.2,0.185,
5350,-0.235,0.15,
5351,-0.26,0.1,
5352,-0.295,0.09,
5353,-0.32,0.055,
5354,-0.355,0.015,
5355,-0.385,-0.02,
5356,-0.415,-0.025,
5357,-0.445,-0.05,
5358,-0.465,-0.09,
5359,-0.485,-0.095,
5360,-0.505,-0.13,
5361,-0.54,-0.16,
5362,-0.565,-0.21,
5363,-0.605,-0.24,
5364,-0.64,-0.29,
5365,-0.66,-0.31,
5366,-0.7,-0.35,
5367,-0.71,-0.375,
5368,-0.74,-0.365,
5369,-0.76,-0.39,
5370,-0.75,-0.38,
5371,-0.75,-0.38,
5372,-0.75,-0.4,
5373,-0.76,-0.395,
5374,-0.77,-0.41,
5375,-0.795,-0.45,
5376,-0.795,-0.455,
5377,-0.81,-0.475,
5378,-0.82,-0.47,
5379,-0.84,-0.485,
5380,-0.84,-0.48,
5381,-0.83,-0.47,
5382,-0.835,-0.475,
5383,-0.825,-0.47,
5384,-0.82,-0.465,
5385,-0.82,-0.49,
5386,-0.82,-0.48,
5387,-0.83,-0.495,
5388,-0.84,-0.49,
5389,-0.84,-0.51,
5390,-0.855,-0.505,
5391,-0.845,-0.51,
5392,-0.855,-0.495,
5393,-0.84,-0.5,
5394,-0.83,-0.5,
5395,-0.835,-0.49,
5396,-0.81,-0.485,
5397,-0.82,-0.49,
5398,-0.82,-0.485,
5399,-0.82,-0.495,
5400,-0.825,-0.505,
5401,-0.845,-0.515,
5402,-0.855,-0.505,
5403,-0.865,-0.495,
5404,-0.85,-0.485,
5405,-0.845,-0.47,
5406,-0.825,-0.47,
5407,-0.835,-0.455,
5408,-0.84,-0.45,
5409,-0.82,-0.46,
5410,-0.81,-0.45,
5411,-0.815,-0.475,
5412,-0.82,-0.47,
5413,-0.81,-0.49,
5414,-0.835,-0.485,
5415,-0.84,-0.465,
5416,-0.84,-0.47,
5417,-0.83,-0.475,
5418,-0.835,-0.455,
5419,-0.825,-0.45,
5420,-0.825,-0.44,
5421,-0.815,-0.45,
5422,-0.825,-0.45,
5423,-0.83,-0.46,
5424,-0.835,-0.47,
5425,-0.85,-0.46,
5426,-0.845,-0.465,
5427,-0.85,-0.455,
5428,-0.855,-0.45,
5429,-0.845,-0.445,
5430,-0.84,-0.425,
5431,-0.835,-0.44,
5432,-0.84,-0.435,
5433,-0.845,-0.45,
5434,-0.85,-0.46,
5435,-0.875,-0.46,
5436,-0.87,-0.47,
5437,-0.885,-0.485,
5438,-0.885,-0.48,
5439,-0.895,-0.485,
5440,-0.885,-0.465,
5441,-0.89,-0.47,
5442,-0.88,-0.465,
5443,-0.88,-0.445,
5444,-0.87,-0.445,
5445,-0.875,-0.45,
5446,-0.88,-0.46,
5447,-0.895,-0.46,
5448,-0.91,-0.47,
5449,-0.92,-0.485,
5450,-0.925,-0.505,
5451,-0.915,-0.51,
5452,-0.92,-0.485,
5453,-0.93,-0.475,
5454,-0.915,-0.47,
5455,-0.9,-0.46,
5456,-0.89,-0.455,
5457,-0.89,-0.465,
5458,-0.895,-0.465,
5459,-0.905,-0.48,
5460,-0.91,-0.495,
5461,-0.915,-0.5,
5462,-0.915,-0.505,
5463,-0.925,-0.51,
5464,-0.925,-0.485,
5465,-0.915,-0.475,
5466,-0.915,-0.475,
5467,-0.91,-0.455,
5468,-0.915,-0.45,
5469,-0.905,-0.47,
5470,-0.905,-0.475,
5471,-0.91,-0.5,
5472,-0.91,-0.515,
5473,-0.925,-0.51,
5474,-0.93,-0.505,
5475,-0.93,-0.515,
5476,-0.925,-0.505,
5477,-0.915,-0.48,
5478,-0.915,-0.475,
5479,-0.905,-0.47,
5480,-0.905,-0.46,
5481,-0.9,-0.475,
5482,-0.92,-0.465,
5483,-0.92,-0.475,
5484,-0.925,-0.5,
5485,-0.925,-0.52,
5486,-0.94,-0.515,
5487,-0.945,-0.515,
5488,-0.94,-0.505,
5489,-0.93,-0.5,
5490,-0.935,-0.49,
5491,-0.93,-0.465,
5492,-0.915,-0.48,
5493,-0.92,-0.455,
5494,-0.905,-0.475,
5495,-0.9,-0.485,
5496,-0.92,-0.485,
5497,-0.915,-0.475,
5498,-0.915,-0.49,
5499,-0.935,-0.465,
5500,-0.945,-0.49,
5501,-0.94,-0.485,
5502,-0.93,-0.46,
5503,-0.925,-0.465,
5504,-0.91,-0.49,
5505,-0.9,-0.475,
5506,-0.91,-0.475,
5507,-0.925,-0.48,
5508,-0.92,-0.485,
5509,-0.92,-0.49,
5510,-0.93,-0.485,
5511,-0.94,-0.48,
5512,-0.92,-0.475,
5513,-0.925,-0.47,
5514,-0.91,-0.465,
5515,-0.91,-0.455,
5516,-0.9,-0.435,
5517,-0.91,-0.455,
5518,-0.915,-0.46,
5519,-0.925,-0.465,
5520,-0.915,-0.46,
5521,-0.935,-0.485,
5522,-0.945,-0.475,
5523,-0.935,-0.495,
5524,-0.955,-0.46,
5525,-0.925,-0.47,
5526,-0.925,-0.44,
5527,-0.925,-0.44,
5528,-0.9,-0.445,
5529,-0.905,-0.46,
5530,-0.91,-0.45,
5531,-0.915,-0.475,
5532,-0.925,-0.47,
5533,-0.93,-0.47,
5534,-0.945,-0.465,
5535,-0.94,-0.485,
5536,-0.95,-0.47,
5537,-0.95,-0.46,
5538,-0.915,-0.46,
5539,-0.915,-0.435,
5540,-0.91,-0.45,
5541,-0.91,-0.45,
5542,-0.9,-0.46,
5543,-0.925,-0.475,
5544,-0.92,-0.46,
5545,-0.93,-0.48,
5546,-0.92,-0.475,
5547,-0.95,-0.48,
5548,-0.935,-0.48,
5549,-0.93,-0.455,
5550,-0.92,-0.435,
5551,-0.92,-0.42,
5552,-0.915,-0.43,
5553,-0.91,-0.45,
5554,-0.9,-0.455,
5555,-0.915,-0.46,
5556,-0.915,-0.475,
5557,-0.925,-0.48,
5558,-0.93,-0.47,
5559,-0.935,-0.465,
5560,-0.94,-0.455,
5561,-0.93,-0.445,
5562,-0.925,-0.45,
5563,-0.925,-0.425,
5564,-0.9,-0.405,
5565,-0.9,-0.425,
5566,-0.895,-0.435,
5567,-0.905,-0.44,
5568,-0.915,-0.43,
5569,-0.92,-0.44,
5570,-0.94,-0.445,
5571,-0.95,-0.445,
5572,-0.945,-0.44,
5573,-0.945,-0.43,
5574,-0.925,-0.415,
5575,-0.905,-0.42,
5576,-0.9,-0.405,
5577,-0.89,-0.41,
5578,-0.89,-0.42,
5579,-0.91,-0.425,
5580,-0.91,-0.43,
5581,-0.925,-0.435,
5582,-0.935,-0.435,
5583,-0.93,-0.44,
5584,-0.925,-0.435,
5585,-0.905,-0.42,
5586,-0.9,-0.42,
5587,-0.88,-0.405,
5588,-0.865,-0.405,
5589,-0.87,-0.405,
5590,-0.84,-0.415,
5591,-0.835,-0.42,
5592,-0.83,-0.42,
5593,-0.825,-0.445,
5594,-0.83,-0.435,
5595,-0.835,-0.43,
5596,-0.84,-0.41,
5597,-0.83,-0.4,
5598,-0.805,-0.365,
5599,-0.76,-0.34,
5600,-0.73,-0.33,
5601,-0.725,-0.33,
5602,-0.72,-0.315,
5603,-0.725,-0.31,
5604,-0.735,-0.3,
5605,-0.74,-0.29,
5606,-0.775,-0.29,
5607,-0.775,-0.27,
5608,-0.79,-0.27,
5609,-0.805,-0.27,
5610,-0.8,-0.26,
5611,-0.8,-0.265,
5612,-0.79,-0.265,
5613,-0.795,-0.28,
5614,-0.82,-0.285,
5615,-0.84,-0.3,
5616,-0.87,-0.33,
5617,-0.895,-0.34,
5618,-0.91,-0.365,
5619,-0.935,-0.39,
5620,-0.935,-0.39,
5621,-0.925,-0.4,
5622,-0.92,-0.405,
5623,-0.91,-0.41,
5624,-0.905,-0.4,
5625,-0.895,-0.415,
5626,-0.905,-0.405,
5627,-0.91,-0.42,
5628,-0.925,-0.435,
5629,-0.93,-0.45,
5630,-0.95,-0.475,
5631,-0.955,-0.46,
5632,-0.955,-0.47,
5633,-0.945,-0.45,
5634,-0.925,-0.44,
5635,-0.925,-0.44,
5636,-0.93,-0.44,
5637,-0.935,-0.435,
5638,-0.935,-0.44,
5639,-0.925,-0.45,
5640,-0.935,-0.455,
5641,-0.94,-0.46,
5642,-0.955,-0.465,
5643,-0.965,-0.47,
5644,-0.94,-0.46,
5645,-0.92,-0.445,
5646,-0.905,-0.435,
5647,-0.895,-0.415,
5648,-0.885,-0.42,
5649,-0.87,-0.43,
5650,-0.82,-0.415,
5651,-0.765,-0.41,
5652,-0.69,-0.34,
5653,-0.585,-0.22,
5654,-0.465,-0.035,
5655,-0.31,0.205,
5656,-0.2,0.47,
5657,-0.09,0.74,
5658,-0.09,0.995,
5659,-0.2,1.155,
5660,-0.4,1.2,
5661,-0.675,1.095,
5662,-0.96,0.87,
5663,-1.245,0.535,
5664,-1.495,0.115,
5665,-1.675,-0.295,
5666,-1.765,-0.665,
5667,-1.73,-0.895,
5668,-1.625,-0.95,
5669,-1.51,-0.865,
5670,-1.375,-0.715,
5671,-1.28,-0.625,
5672,-1.215,-0.55,
5673,-1.15,-0.525,N
5674,-1.09,-0.5,
5675,-1.03,-0.495,
5676,-0.975,-0.485,
5677,-0.93,-0.475,
5678,-0.875,-0.445,
5679,-0.87,-0.44,
5680,-0.855,-0.425,
5681,-0.865,-0.42,
5682,-0.855,-0.42,
5683,-0.855,-0.425,
5684,-0.83,-0.4,
5685,-0.835,-0.415,
5686,-0.835,-0.41,
5687,-0.815,-0.42,
5688,-0.81,-0.42,
5689,-0.82,-0.425,
5690,-0.825,-0.425,
5691,-0.815,-0.415,
5692,-0.805,-0.41,
5693,-0.795,-0.41,
5694,-0.785,-0.39,
5695,-0.78,-0.38,
5696,-0.76,-0.365,
5697,-0.75,-0.38,
5698,-0.75,-0.39,
5699,-0.75,-0.38,
5700,-0.78,-0.39,
5701,-0.76,-0.39,
5702,-0.765,-0.39,
5703,-0.76,-0.4,
5704,-0.765,-0.37,
5705,-0.77,-0.37,
5706,-0.735,-0.34,
5707,-0.735,-0.325,
5708,-0.715,-0.32,
5709,-0.705,-0.335,
5710,-0.705,-0.315,
5711,-0.7,-0.32,
5712,-0.72,-0.335,
5713,-0.72,-0.335,
5714,-0.74,-0.325,
5715,-0.74,-0.32,
5716,-0.715,-0.305,
5717,-0.725,-0.29,
5718,-0.705,-0.265,
5719,-0.685,-0.26,
5720,-0.675,-0.25,
5721,-0.655,-0.245,
5722,-0.665,-0.27,
5723,-0.645,-0.26,
5724,-0.655,-0.26,
5725,-0.655,-0.27,
5726,-0.655,-0.26,
5727,-0.655,-0.235,
5728,-0.645,-0.235,
5729,-0.63,-0.22,
5730,-0.615,-0.2,
5731,-0.58,-0.17,
5732,-0.57,-0.165,
5733,-0.57,-0.155,
5734,-0.535,-0.16,
5735,-0.55,-0.175,
5736,-0.545,-0.145,
5737,-0.535,-0.14,
5738,-0.555,-0.115,
5739,-0.53,-0.125,
5740,-0.51,-0.11,
5741,-0.48,-0.065,
5742,-0.45,-0.045,
5743,-0.435,-0.025,
5744,-0.395,0.005,
5745,-0.38,0.005,
5746,-0.37,0.015,
5747,-0.34,0.035,
5748,-0.32,0.035,
5749,-0.32,0.045,
5750,-0.32,0.06,
5751,-0.305,0.075,
5752,-0.3,0.105,
5753,-0.275,0.13,
5754,-0.25,0.14,
5755,-0.22,0.165,
5756,-0.21,0.185,
5757,-0.195,0.195,
5758,-0.185,0.205,
5759,-0.17,0.21,
5760,-0.175,0.205,
5761,-0.175,0.21,
5762,-0.175,0.205,
5763,-0.16,0.225,
5764,-0.17,0.215,
5765,-0.16,0.23,
5766,-0.15,0.235,
5767,-0.155,0.255,
5768,-0.15,0.255,
5769,-0.16,0.245,
5770,-0.17,0.215,
5771,-0.19,0.2,
5772,-0.215,0.18,
5773,-0.225,0.16,
5774,-0.27,0.14,
5775,-0.285,0.125,
5776,-0.3,0.08,
5777,-0.335,0.075,
5778,-0.36,0.05,
5779,-0.37,0.035,
5780,-0.395,-0.005,
5781,-0.41,-0.025,
5782,-0.435,-0.07,
5783,-0.46,-0.11,
5784,-0.505,-0.14,
5785,-0.53,-0.175,
5786,-0.57,-0.215,
5787,-0.595,-0.26,
5788,-0.625,-0.255,
5789,-0.645,-0.275,
5790,-0.66,-0.285,
5791,-0.67,-0.285,
5792,-0.68,-0.315,
5793,-0.685,-0.325,
5794,-0.705,-0.365,
5795,-0.71,-0.39,
5796,-0.725,-0.4,
5797,-0.735,-0.415,
5798,-0.76,-0.425,
5799,-0.765,-0.435,
5800,-0.77,-0.445,
5801,-0.775,-0.43,
5802,-0.77,-0.43,
5803,-0.75,-0.41,
5804,-0.765,-0.405,
5805,-0.765,-0.435,
5806,-0.78,-0.43,
5807,-0.785,-0.44,
5808,-0.785,-0.465,
5809,-0.785,-0.47,
5810,-0.79,-0.455,
5811,-0.79,-0.455,
5812,-0.79,-0.475,
5813,-0.775,-0.485,
5814,-0.78,-0.455,
5815,-0.775,-0.455,
5816,-0.77,-0.445,
5817,-0.755,-0.445,
5818,-0.78,-0.445,
5819,-0.765,-0.47,
5820,-0.765,-0.46,
5821,-0.775,-0.49,
5822,-0.775,-0.47,
5823,-0.795,-0.475,
5824,-0.785,-0.465,
5825,-0.78,-0.445,
5826,-0.79,-0.445,
5827,-0.775,-0.44,
5828,-0.755,-0.43,
5829,-0.755,-0.43,
5830,-0.755,-0.455,
5831,-0.76,-0.445,
5832,-0.75,-0.45,
5833,-0.755,-0.465,
5834,-0.765,-0.455,
5835,-0.77,-0.46,
5836,-0.775,-0.445,
5837,-0.765,-0.45,
5838,-0.765,-0.43,
5839,-0.755,-0.425,
5840,-0.745,-0.43,
5841,-0.745,-0.415,
5842,-0.745,-0.425,
5843,-0.76,-0.42,
5844,-0.77,-0.43,
5845,-0.775,-0.425,
5846,-0.765,-0.44,
5847,-0.775,-0.445,
5848,-0.765,-0.44,
5849,-0.765,-0.425,
5850,-0.76,-0.42,
5851,-0.755,-0.41,
5852,-0.76,-0.405,
5853,-0.755,-0.42,
5854,-0.76,-0.42,
5855,-0.765,-0.43,
5856,-0.78,-0.435,
5857,-0.78,-0.445,
5858,-0.79,-0.45,
5859,-0.795,-0.47,
5860,-0.81,-0.455,
5861,-0.81,-0.435,
5862,-0.8,-0.43,
5863,-0.825,-0.435,
5864,-0.8,-0.42,
5865,-0.78,-0.43,
5866,-0.77,-0.435,
5867,-0.79,-0.435,
5868,-0.8,-0.47,
5869,-0.805,-0.47,
5870,-0.81,-0.485,
5871,-0.82,-0.49,
5872,-0.82,-0.47,
5873,-0.825,-0.455,
5874,-0.815,-0.455,
5875,-0.815,-0.455,
5876,-0.795,-0.44,
5877,-0.815,-0.46,
5878,-0.805,-0.465,
5879,-0.805,-0.465,
5880,-0.815,-0.475,
5881,-0.825,-0.475,
5882,-0.82,-0.5,
5883,-0.83,-0.495,
5884,-0.825,-0.48,
5885,-0.84,-0.48,
5886,-0.825,-0.46,
5887,-0.815,-0.46,
5888,-0.815,-0.455,
5889,-0.825,-0.455,
5890,-0.81,-0.485,
5891,-0.815,-0.485,
5892,-0.82,-0.49,
5893,-0.84,-0.515,
5894,-0.85,-0.495,
5895,-0.85,-0.515,
5896,-0.845,-0.5,
5897,-0.83,-0.49,
5898,-0.82,-0.475,
5899,-0.825,-0.475,
5900,-0.81,-0.465,
5901,-0.8,-0.465,
5902,-0.795,-0.49,
5903,-0.805,-0.485,
5904,-0.82,-0.505,
5905,-0.83,-0.51,
5906,-0.845,-0.51,
5907,-0.855,-0.515,
5908,-0.855,-0.495,
5909,-0.84,-0.49,
5910,-0.825,-0.475,
5911,-0.84,-0.47,
5912,-0.82,-0.465,
5913,-0.82,-0.465,
5914,-0.815,-0.47,
5915,-0.825,-0.48,
5916,-0.82,-0.475,
5917,-0.825,-0.49,
5918,-0.84,-0.49,
5919,-0.85,-0.5,
5920,-0.855,-0.48,
5921,-0.85,-0.475,
5922,-0.84,-0.465,
5923,-0.83,-0.475,
5924,-0.815,-0.45,
5925,-0.815,-0.455,
5926,-0.825,-0.46,
5927,-0.835,-0.48,
5928,-0.84,-0.47,
5929,-0.845,-0.495,
5930,-0.845,-0.495,
5931,-0.85,-0.5,
5932,-0.845,-0.485,
5933,-0.85,-0.465,
5934,-0.835,-0.46,
5935,-0.825,-0.46,
5936,-0.81,-0.475,
5937,-0.81,-0.46,
5938,-0.82,-0.475,
5939,-0.82,-0.48,
5940,-0.82,-0.485,
5941,-0.835,-0.495,
5942,-0.84,-0.49,
5943,-0.84,-0.48,
5944,-0.83,-0.48,
5945,-0.855,-0.475,
5946,-0.835,-0.475,
5947,-0.83,-0.455,
5948,-0.82,-0.455,
5949,-0.815,-0.465,
5950,-0.82,-0.47,
5951,-0.83,-0.465,
5952,-0.825,-0.485,
5953,-0.835,-0.48,
5954,-0.845,-0.5,
5955,-0.835,-0.495,
5956,-0.84,-0.495,
5957,-0.845,-0.49,
5958,-0.835,-0.48,
5959,-0.83,-0.48,
5960,-0.815,-0.465,
5961,-0.82,-0.49,
5962,-0.83,-0.485,
5963,-0.82,-0.485,
5964,-0.845,-0.49,
5965,-0.845,-0.505,
5966,-0.84,-0.495,
5967,-0.84,-0.495,
5968,-0.835,-0.485,
5969,-0.835,-0.48,
5970,-0.825,-0.485,
5971,-0.82,-0.475,
5972,-0.805,-0.46,
5973,-0.815,-0.465,
5974,-0.81,-0.47,
5975,-0.82,-0.485,
5976,-0.84,-0.485,
5977,-0.845,-0.485,
5978,-0.84,-0.5,
5979,-0.845,-0.505,
5980,-0.84,-0.49,
5981,-0.83,-0.485,
5982,-0.825,-0.485,
5983,-0.815,-0.46,
5984,-0.81,-0.45,
5985,-0.8,-0.45,
5986,-0.81,-0.46,
5987,-0.815,-0.46,
5988,-0.815,-0.465,
5989,-0.82,-0.48,
5990,-0.82,-0.485,
5991,-0.83,-0.49,
5992,-0.83,-0.475,
5993,-0.825,-0.455,
5994,-0.825,-0.45,
5995,-0.825,-0.45,
5996,-0.81,-0.435,
5997,-0.82,-0.445,
5998,-0.815,-0.445,
5999,-0.81,-0.46,
6000,-0.815,-0.47,
6001,-0.815,-0.475,
6002,-0.81,-0.465,
6003,-0.83,-0.47,
6004,-0.82,-0.47,
6005,-0.815,-0.455,
6006,-0.81,-0.45,
6007,-0.805,-0.45,
6008,-0.78,-0.435,
6009,-0.78,-0.43,
6010,-0.79,-0.46,
6011,-0.8,-0.46,
6012,-0.8,-0.465,
6013,-0.79,-0.465,
6014,-0.815,-0.46,
6015,-0.805,-0.465,
6016,-0.8,-0.465,
6017,-0.8,-0.45,
6018,-0.765,-0.445,
6019,-0.755,-0.425,
6020,-0.745,-0.425,
6021,-0.705,-0.435,
6022,-0.695,-0.435,
6023,-0.705,-0.435,
6024,-0.715,-0.455,
6025,-0.72,-0.445,
6026,-0.705,-0.435,
6027,-0.71,-0.435,
6028,-0.69,-0.425,
6029,-0.665,-0.4,
6030,-0.645,-0.375,
6031,-0.635,-0.36,
6032,-0.62,-0.345,
6033,-0.61,-0.315,
6034,-0.605,-0.325,
6035,-0.615,-0.33,
6036,-0.655,-0.315,
6037,-0.675,-0.31,
6038,-0.675,-0.32,
6039,-0.69,-0.32,
6040,-0.695,-0.33,
6041,-0.715,-0.32,
6042,-0.7,-0.315,
6043,-0.7,-0.305,
6044,-0.715,-0.305,
6045,-0.725,-0.33,
6046,-0.765,-0.33,
6047,-0.78,-0.365,
6048,-0.785,-0.39,
6049,-0.795,-0.405,
6050,-0.8,-0.42,
6051,-0.81,-0.445,
6052,-0.815,-0.445,
6053,-0.82,-0.44,
6054,-0.8,-0.43,
6055,-0.8,-0.41,
6056,-0.805,-0.405,
6057,-0.795,-0.425,
6058,-0.8,-0.44,
6059,-0.81,-0.435,
6060,-0.83,-0.47,
6061,-0.845,-0.46,
6062,-0.875,-0.48,
6063,-0.88,-0.49,
6064,-0.865,-0.485,
6065,-0.86,-0.475,
6066,-0.84,-0.465,
6067,-0.815,-0.45,
6068,-0.805,-0.445,
6069,-0.805,-0.45,
6070,-0.805,-0.465,
6071,-0.81,-0.47,
6072,-0.81,-0.47,
6073,-0.82,-0.48,
6074,-0.835,-0.475,
6075,-0.84,-0.49,
6076,-0.84,-0.485,
6077,-0.83,-0.475,
6078,-0.825,-0.435,
6079,-0.795,-0.435,
6080,-0.79,-0.43,
6081,-0.775,-0.45,
6082,-0.73,-0.455,
6083,-0.67,-0.445,
6084,-0.605,-0.38,
6085,-0.52,-0.31,
6086,-0.395,-0.15,
6087,-0.26,0.035,
6088,-0.12,0.27,
6089,0.005,0.53,
6090,0.055,0.775,
6091,0.025,0.985,
6092,-0.09,1.13,
6093,-0.27,1.15,
6094,-0.53,1.045,
6095,-0.815,0.835,
6096,-1.075,0.505,
6097,-1.325,0.145,
6098,-1.49,-0.215,N
6099,-1.56,-0.505,
6100,-1.535,-0.695,
6101,-1.435,-0.735,
6102,-1.335,-0.68,
6103,-1.225,-0.58,
6104,-1.125,-0.495,
6105,-1.04,-0.47,
6106,-0.965,-0.465,
6107,-0.92,-0.44,
6108,-0.875,-0.455,
6109,-0.82,-0.455,
6110,-0.795,-0.435,
6111,-0.78,-0.445,
6112,-0.755,-0.43,
6113,-0.76,-0.435,
6114,-0.76,-0.415,
6115,-0.765,-0.415,
6116,-0.745,-0.41,
6117,-0.74,-0.41,
6118,-0.735,-0.43,
6119,-0.725,-0.43,
6120,-0.725,-0.435,
6121,-0.715,-0.445,
6122,-0.72,-0.445,
6123,-0.73,-0.45,
6124,-0.72,-0.43,
6125,-0.735,-0.42,
6126,-0.715,-0.41,
6127,-0.705,-0.39,
6128,-0.7,-0.36,
6129,-0.67,-0.38,
6130,-0.675,-0.385,
6131,-0.685,-0.39,
6132,-0.69,-0.405,
6133,-0.685,-0.4,
6134,-0.695,-0.41,
6135,-0.68,-0.405,
6136,-0.68,-0.415,
6137,-0.67,-0.395,
6138,-0.67,-0.365,
6139,-0.665,-0.36,
6140,-0.63,-0.335,
6141,-0.635,-0.35,
6142,-0.635,-0.355,
6143,-0.635,-0.36,
6144,-0.64,-0.36,
6145,-0.65,-0.365,
6146,-0.655,-0.37,
6147,-0.665,-0.375,
6148,-0.66,-0.35,
6149,-0.65,-0.34,
6150,-0.645,-0.33,
6151,-0.63,-0.31,
6152,-0.61,-0.305,
6153,-0.61,-0.28,
6154,-0.61,-0.275,
6155,-0.61,-0.3,
6156,-0.595,-0.29,
6157,-0.6,-0.305,
6158,-0.6,-0.305,
6159,-0.6,-0.295,
6160,-0.6,-0.275,
6161,-0.595,-0.265,
6162,-0.575,-0.255,
6163,-0.565,-0.245,
6164,-0.535,-0.23,
6165,-0.53,-0.225,
6166,-0.515,-0.235,
6167,-0.54,-0.225,
6168,-0.545,-0.23,
6169,-0.525,-0.225,
6170,-0.53,-0.225,
6171,-0.51,-0.21,
6172,-0.51,-0.19,
6173,-0.49,-0.165,
6174,-0.465,-0.14,
6175,-0.44,-0.125,
6176,-0.405,-0.105,
6177,-0.38,-0.1,
6178,-0.365,-0.11,
6179,-0.375,-0.085,
6180,-0.345,-0.08,
6181,-0.34,-0.07,
6182,-0.345,-0.05,
6183,-0.32,-0.035,
6184,-0.3,-0.015,
6185,-0.275,0.02,
6186,-0.265,0.03,
6187,-0.235,0.06,
6188,-0.22,0.08,
6189,-0.19,0.085,
6190,-0.185,0.11,
6191,-0.17,0.1,
6192,-0.17,0.105,
6193,-0.16,0.12,
6194,-0.15,0.135,
6195,-0.15,0.14,
6196,-0.13,0.15,
6197,-0.125,0.165,
6198,-0.12,0.195,
6199,-0.1,0.19,
6200,-0.095,0.215,
6201,-0.085,0.21,
6202,-0.09,0.21,
6203,-0.095,0.21,
6204,-0.105,0.215,
6205,-0.11,0.19,
6206,-0.135,0.175,
6207,-0.15,0.17,
6208,-0.17,0.17,
6209,-0.17,0.165,
6210,-0.185,0.155,
6211,-0.185,0.145,
6212,-0.205,0.125,
6213,-0.215,0.11,
6214,-0.25,0.07,
6215,-0.28,0.05,
6216,-0.32,-0.01,
6217,-0.37,-0.035,
6218,-0.39,-0.065,
6219,-0.415,-0.095,
6220,-0.45,-0.105,
6221,-0.495,-0.13,
6222,-0.5,-0.16,
6223,-0.525,-0.18,
6224,-0.545,-0.215,
6225,-0.565,-0.225,
6226,-0.57,-0.255,
6227,-0.595,-0.295,
6228,-0.625,-0.31,
6229,-0.65,-0.345,
6230,-0.675,-0.365,
6231,-0.685,-0.385,
6232,-0.705,-0.38,
6233,-0.705,-0.395,
6234,-0.705,-0.4,
6235,-0.71,-0.38,
6236,-0.7,-0.4,
6237,-0.715,-0.395,
6238,-0.73,-0.4,
6239,-0.73,-0.44,
6240,-0.75,-0.435,
6241,-0.775,-0.455,
6242,-0.765,-0.445,
6243,-0.78,-0.465,
6244,-0.79,-0.47,
6245,-0.77,-0.46,
6246,-0.77,-0.465,
6247,-0.755,-0.45,
6248,-0.77,-0.455,
6249,-0.76,-0.45,
6250,-0.755,-0.47,
6251,-0.75,-0.485,
6252,-0.76,-0.47,
6253,-0.77,-0.49,
6254,-0.775,-0.5,
6255,-0.775,-0.505,
6256,-0.775,-0.51,
6257,-0.78,-0.49,
6258,-0.78,-0.465,
6259,-0.78,-0.46,
6260,-0.77,-0.47,
6261,-0.75,-0.46,
6262,-0.745,-0.48,
6263,-0.755,-0.48,
6264,-0.76,-0.48,
6265,-0.765,-0.49,
6266,-0.76,-0.505,
6267,-0.76,-0.51,
6268,-0.76,-0.505,
6269,-0.745,-0.495,
6270,-0.75,-0.485,
6271,-0.735,-0.465,
6272,-0.73,-0.465,
6273,-0.73,-0.46,
6274,-0.725,-0.445,
6275,-0.725,-0.45,
6276,-0.745,-0.475,
6277,-0.755,-0.475,
6278,-0.75,-0.48,
6279,-0.76,-0.485,
6280,-0.76,-0.475,
6281,-0.765,-0.46,
6282,-0.775,-0.45,
6283,-0.75,-0.44,
6284,-0.735,-0.425,
6285,-0.73,-0.425,
6286,-0.725,-0.45,
6287,-0.735,-0.45,
6288,-0.745,-0.47,
6289,-0.76,-0.475,
6290,-0.765,-0.48,
6291,-0.77,-0.49,
6292,-0.79,-0.475,
6293,-0.785,-0.47,
6294,-0.77,-0.465,
6295,-0.765,-0.455,
6296,-0.745,-0.45,
6297,-0.765,-0.455,
6298,-0.77,-0.465,
6299,-0.765,-0.47,
6300,-0.785,-0.48,
6301,-0.78,-0.49,
6302,-0.79,-0.5,
6303,-0.785,-0.495,
6304,-0.795,-0.49,
6305,-0.795,-0.495,
6306,-0.795,-0.475,
6307,-0.785,-0.47,
6308,-0.775,-0.46,
6309,-0.785,-0.465,
6310,-0.785,-0.48,
6311,-0.805,-0.48,
6312,-0.805,-0.485,
6313,-0.81,-0.505,
6314,-0.825,-0.515,
6315,-0.835,-0.51,
6316,-0.83,-0.505,
6317,-0.825,-0.485,
6318,-0.815,-0.485,
6319,-0.815,-0.485,
6320,-0.8,-0.475,
6321,-0.795,-0.485,
6322,-0.81,-0.495,
6323,-0.805,-0.495,
6324,-0.83,-0.52,
6325,-0.84,-0.515,
6326,-0.84,-0.525,
6327,-0.855,-0.51,
6328,-0.84,-0.51,
6329,-0.84,-0.515,
6330,-0.83,-0.5,
6331,-0.835,-0.48,
6332,-0.83,-0.48,
6333,-0.825,-0.495,
6334,-0.81,-0.485,
6335,-0.81,-0.495,
6336,-0.84,-0.515,
6337,-0.835,-0.525,
6338,-0.83,-0.515,
6339,-0.835,-0.51,
6340,-0.845,-0.515,
6341,-0.85,-0.495,
6342,-0.84,-0.495,
6343,-0.845,-0.5,
6344,-0.84,-0.47,
6345,-0.825,-0.49,
6346,-0.835,-0.48,
6347,-0.835,-0.485,
6348,-0.86,-0.485,
6349,-0.855,-0.5,
6350,-0.865,-0.51,
6351,-0.89,-0.535,
6352,-0.875,-0.51,
6353,-0.87,-0.505,
6354,-0.875,-0.475,
6355,-0.845,-0.475,
6356,-0.83,-0.47,
6357,-0.82,-0.47,
6358,-0.845,-0.465,
6359,-0.845,-0.475,
6360,-0.855,-0.49,
6361,-0.86,-0.5,
6362,-0.87,-0.5,
6363,-0.87,-0.51,
6364,-0.88,-0.495,
6365,-0.87,-0.48,
6366,-0.86,-0.485,
6367,-0.85,-0.485,
6368,-0.855,-0.47,
6369,-0.845,-0.46,
6370,-0.855,-0.47,
6371,-0.87,-0.48,
6372,-0.885,-0.495,
6373,-0.885,-0.495,
6374,-0.9,-0.505,
6375,-0.885,-0.495,
6376,-0.895,-0.5,
6377,-0.88,-0.475,
6378,-0.88,-0.485,
6379,-0.87,-0.47,
6380,-0.865,-0.465,
6381,-0.85,-0.475,
6382,-0.85,-0.485,
6383,-0.855,-0.495,
6384,-0.865,-0.495,
6385,-0.88,-0.51,
6386,-0.885,-0.505,
6387,-0.89,-0.505,
6388,-0.885,-0.51,
6389,-0.89,-0.485,
6390,-0.87,-0.47,
6391,-0.87,-0.465,
6392,-0.87,-0.455,
6393,-0.85,-0.46,
6394,-0.86,-0.47,
6395,-0.875,-0.475,
6396,-0.855,-0.5,
6397,-0.87,-0.5,
6398,-0.875,-0.515,
6399,-0.87,-0.515,
6400,-0.885,-0.5,
6401,-0.875,-0.48,
6402,-0.87,-0.495,
6403,-0.86,-0.475,
6404,-0.86,-0.48,
6405,-0.845,-0.47,
6406,-0.85,-0.475,
6407,-0.855,-0.485,
6408,-0.87,-0.5,
6409,-0.88,-0.5,
6410,-0.885,-0.495,
6411,-0.87,-0.505,
6412,-0.885,-0.495,
6413,-0.865,-0.485,
6414,-0.865,-0.47,
6415,-0.87,-0.45,
6416,-0.855,-0.445,
6417,-0.85,-0.45,
6418,-0.845,-0.44,
6419,-0.855,-0.45,
6420,-0.85,-0.475,
6421,-0.86,-0.48,
6422,-0.875,-0.47,
6423,-0.88,-0.48,
6424,-0.875,-0.465,
6425,-0.89,-0.46,
6426,-0.875,-0.46,
6427,-0.875,-0.44,
6428,-0.85,-0.44,
6429,-0.84,-0.45,
6430,-0.845,-0.455,
6431,-0.85,-0.465,
6432,-0.855,-0.455,
6433,-0.87,-0.48,
