,MLII,V4,symbol
0,-1.0,-0.685,
1,-1.0,-0.685,
2,-1.0,-0.685,
3,-1.0,-0.685,
4,-1.0,-0.685,
5,-1.0,-0.685,
6,-1.0,-0.685,
7,-0.985,-0.68,
8,-0.97,-0.68,
9,-0.97,-0.695,
10,-0.97,-0.695,
11,-0.97,-0.695,
12,-0.98,-0.705,
13,-0.975,-0.705,
14,-0.975,-0.695,
15,-0.985,-0.69,
16,-0.98,-0.69,
17,-0.97,-0.67,
18,-0.975,-0.675,
19,-0.955,-0.665,
20,-0.945,-0.675,
21,-0.95,-0.675,
22,-0.965,-0.68,
23,-0.95,-0.68,
24,-0.955,-0.685,
25,-0.96,-0.69,
26,-0.96,-0.69,
27,-0.965,-0.68,
28,-0.97,-0.67,
29,-0.965,-0.665,
30,-0.95,-0.66,
31,-0.95,-0.65,
32,-0.925,-0.655,
33,-0.93,-0.66,
34,-0.94,-0.66,
35,-0.935,-0.665,
36,-0.94,-0.665,
37,-0.95,-0.67,
38,-0.965,-0.675,
39,-0.96,-0.675,
40,-0.95,-0.665,
41,-0.955,-0.66,
42,-0.94,-0.655,
43,-0.945,-0.65,
44,-0.925,-0.66,
45,-0.925,-0.66,
46,-0.93,-0.665,
47,-0.93,-0.68,
48,-0.935,-0.675,
49,-0.945,-0.675,
50,-0.95,-0.675,
51,-0.95,-0.675,
52,-0.945,-0.66,
53,-0.94,-0.66,
54,-0.935,-0.655,
55,-0.92,-0.655,
56,-0.92,-0.64,
57,-0.92,-0.65,
58,-0.915,-0.645,
59,-0.915,-0.655,
60,-0.92,-0.66,
61,-0.92,-0.69,
62,-0.93,-0.675,
63,-0.93,-0.675,
64,-0.95,-0.665,
65,-0.955,-0.66,
66,-0.93,-0.65,
67,-0.915,-0.645,
68,-0.905,-0.64,
69,-0.9,-0.65,
70,-0.91,-0.655,
71,-0.92,-0.655,
72,-0.925,-0.66,
73,-0.925,-0.68,
74,-0.925,-0.69,
75,-0.92,-0.68,
76,-0.93,-0.685,
77,-0.935,-0.67,
78,-0.92,-0.655,
79,-0.905,-0.635,
80,-0.905,-0.64,
81,-0.895,-0.64,
82,-0.9,-0.655,
83,-0.905,-0.675,
84,-0.915,-0.69,
85,-0.92,-0.7,
86,-0.91,-0.68,
87,-0.92,-0.675,
88,-0.925,-0.675,
89,-0.91,-0.655,
90,-0.915,-0.65,
91,-0.9,-0.645,
92,-0.895,-0.635,
93,-0.9,-0.65,
94,-0.9,-0.66,
95,-0.905,-0.67,
96,-0.91,-0.675,
97,-0.91,-0.68,
98,-0.92,-0.675,
99,-0.92,-0.655,
100,-0.92,-0.66,+
101,-0.92,-0.655,
102,-0.91,-0.645,
103,-0.92,-0.655,
104,-0.9,-0.64,
105,-0.895,-0.66,
106,-0.9,-0.665,
107,-0.905,-0.67,
108,-0.915,-0.68,
109,-0.91,-0.67,
110,-0.92,-0.68,
111,-0.925,-0.675,
112,-0.935,-0.67,
113,-0.91,-0.655,
114,-0.905,-0.66,
115,-0.905,-0.655,
116,-0.895,-0.655,
117,-0.895,-0.66,
118,-0.895,-0.675,
119,-0.9,-0.67,
120,-0.91,-0.675,
121,-0.905,-0.685,
122,-0.915,-0.675,
123,-0.92,-0.68,
124,-0.915,-0.685,
125,-0.91,-0.67,
126,-0.92,-0.665,
127,-0.9,-0.66,
128,-0.89,-0.66,
129,-0.895,-0.665,
130,-0.895,-0.655,
131,-0.895,-0.665,
132,-0.905,-0.665,
133,-0.91,-0.68,
134,-0.915,-0.685,
135,-0.91,-0.68,
136,-0.915,-0.68,
137,-0.92,-0.66,
138,-0.9,-0.655,
139,-0.9,-0.65,
140,-0.895,-0.65,
141,-0.885,-0.665,
142,-0.895,-0.66,
143,-0.9,-0.675,
144,-0.9,-0.68,
145,-0.905,-0.68,
146,-0.915,-0.69,
147,-0.92,-0.68,
148,-0.92,-0.67,
149,-0.91,-0.67,
150,-0.905,-0.66,
151,-0.9,-0.655,
152,-0.895,-0.655,
153,-0.885,-0.645,
154,-0.89,-0.66,
155,-0.885,-0.67,
156,-0.885,-0.685,
157,-0.89,-0.68,
158,-0.9,-0.68,
159,-0.89,-0.675,
160,-0.895,-0.69,
161,-0.885,-0.675,
162,-0.87,-0.67,
163,-0.88,-0.67,
164,-0.865,-0.65,
165,-0.87,-0.67,
166,-0.87,-0.66,
167,-0.87,-0.68,
168,-0.865,-0.685,
169,-0.86,-0.685,
170,-0.85,-0.685,
171,-0.85,-0.675,
172,-0.835,-0.68,
173,-0.82,-0.665,
174,-0.82,-0.66,
175,-0.81,-0.645,
176,-0.81,-0.64,
177,-0.815,-0.65,
178,-0.83,-0.64,
179,-0.835,-0.665,
180,-0.85,-0.665,
181,-0.865,-0.665,
182,-0.865,-0.655,
183,-0.87,-0.655,
184,-0.87,-0.65,
185,-0.865,-0.64,
186,-0.87,-0.635,
187,-0.86,-0.64,
188,-0.845,-0.62,
189,-0.83,-0.605,
190,-0.82,-0.605,
191,-0.815,-0.615,
192,-0.815,-0.605,
193,-0.82,-0.615,
194,-0.825,-0.62,
195,-0.84,-0.63,
196,-0.845,-0.64,
197,-0.855,-0.64,
198,-0.875,-0.63,
199,-0.88,-0.625,
200,-0.88,-0.635,
201,-0.895,-0.645,
202,-0.91,-0.67,
203,-0.92,-0.675,
204,-0.93,-0.685,
205,-0.935,-0.69,
206,-0.925,-0.69,
207,-0.925,-0.695,
208,-0.93,-0.68,
209,-0.92,-0.665,
210,-0.91,-0.67,
211,-0.91,-0.665,
212,-0.905,-0.68,
213,-0.91,-0.69,
214,-0.935,-0.735,
215,-0.935,-0.75,
216,-0.935,-0.745,
217,-0.915,-0.69,
218,-0.85,-0.615,
219,-0.75,-0.48,
220,-0.655,-0.36,
221,-0.57,-0.27,
222,-0.5,-0.245,
223,-0.465,-0.26,
224,-0.445,-0.345,
225,-0.495,-0.515,
226,-0.61,-0.78,
227,-0.75,-1.065,
228,-0.92,-1.33,
229,-1.015,-1.495,
230,-1.015,-1.535,
231,-0.91,-1.455,
232,-0.72,-1.3,
233,-0.475,-1.105,
234,-0.21,-0.92,
235,0.035,-0.765,
236,0.26,-0.635,
237,0.49,-0.545,
238,0.69,-0.49,
239,0.88,-0.475,
240,1.025,-0.465,
241,1.13,-0.46,
242,1.19,-0.475,
243,1.195,-0.515,R
244,1.165,-0.58,
245,1.085,-0.635,
246,0.97,-0.67,
247,0.815,-0.69,
248,0.635,-0.685,
249,0.425,-0.67,
250,0.215,-0.66,
251,0.0,-0.64,
252,-0.215,-0.61,
253,-0.43,-0.625,
254,-0.645,-0.645,
255,-0.835,-0.69,
256,-0.98,-0.73,
257,-1.07,-0.75,
258,-1.125,-0.76,
259,-1.14,-0.75,
260,-1.13,-0.71,
261,-1.12,-0.69,
262,-1.095,-0.665,
263,-1.08,-0.65,
264,-1.085,-0.64,
265,-1.07,-0.625,
266,-1.07,-0.615,
267,-1.06,-0.585,
268,-1.045,-0.575,
269,-1.035,-0.555,
270,-1.02,-0.54,
271,-1.015,-0.54,
272,-1.0,-0.535,
273,-1.0,-0.545,
274,-1.005,-0.555,
275,-1.02,-0.555,
276,-1.025,-0.565,
277,-1.04,-0.565,
278,-1.04,-0.545,
279,-1.05,-0.54,
280,-1.045,-0.53,
281,-1.04,-0.515,
282,-1.03,-0.51,
283,-1.025,-0.52,
284,-1.015,-0.51,
285,-1.01,-0.525,
286,-1.025,-0.52,
287,-1.025,-0.52,
288,-1.035,-0.52,
289,-1.045,-0.525,
290,-1.04,-0.525,
291,-1.045,-0.535,
292,-1.04,-0.52,
293,-1.04,-0.515,
294,-1.025,-0.51,
295,-1.02,-0.505,
296,-1.015,-0.495,
297,-1.02,-0.51,
298,-1.02,-0.5,
299,-1.035,-0.51,
300,-1.045,-0.52,
301,-1.05,-0.54,
302,-1.06,-0.545,
303,-1.06,-0.535,
304,-1.06,-0.54,
305,-1.055,-0.52,
306,-1.06,-0.515,
307,-1.045,-0.515,
308,-1.05,-0.505,
309,-1.055,-0.515,
310,-1.055,-0.525,
311,-1.07,-0.535,
312,-1.075,-0.545,
313,-1.075,-0.56,
314,-1.08,-0.55,
315,-1.09,-0.555,
316,-1.09,-0.545,
317,-1.085,-0.54,
318,-1.09,-0.54,
319,-1.08,-0.53,
320,-1.085,-0.535,
321,-1.08,-0.545,
322,-1.085,-0.565,
323,-1.09,-0.575,
324,-1.11,-0.58,
325,-1.125,-0.595,
326,-1.125,-0.595,
327,-1.135,-0.61,
328,-1.15,-0.615,
329,-1.15,-0.61,
330,-1.14,-0.605,
331,-1.14,-0.605,
332,-1.135,-0.605,
333,-1.155,-0.625,
334,-1.17,-0.65,
335,-1.175,-0.66,
336,-1.195,-0.695,
337,-1.19,-0.7,
338,-1.185,-0.725,
339,-1.2,-0.72,
340,-1.2,-0.705,
341,-1.195,-0.715,
342,-1.2,-0.71,
343,-1.21,-0.705,
344,-1.195,-0.725,
345,-1.205,-0.73,
346,-1.195,-0.745,
347,-1.205,-0.765,
348,-1.21,-0.78,
349,-1.21,-0.81,
350,-1.22,-0.81,
351,-1.21,-0.815,
352,-1.21,-0.815,
353,-1.205,-0.805,
354,-1.18,-0.82,
355,-1.18,-0.82,
356,-1.165,-0.825,
357,-1.16,-0.83,
358,-1.16,-0.84,
359,-1.155,-0.845,
360,-1.145,-0.855,
361,-1.14,-0.855,
362,-1.12,-0.855,
363,-1.115,-0.85,
364,-1.105,-0.855,
365,-1.09,-0.835,
366,-1.07,-0.835,
367,-1.05,-0.825,
368,-1.02,-0.825,
369,-1.005,-0.845,
370,-0.995,-0.835,
371,-0.97,-0.83,
372,-0.965,-0.825,
373,-0.95,-0.84,
374,-0.935,-0.825,
375,-0.935,-0.83,
376,-0.92,-0.815,
377,-0.9,-0.805,
378,-0.885,-0.805,
379,-0.85,-0.78,
380,-0.845,-0.775,
381,-0.84,-0.775,
382,-0.845,-0.79,
383,-0.825,-0.795,
384,-0.835,-0.785,
385,-0.835,-0.785,
386,-0.83,-0.775,
387,-0.83,-0.775,
388,-0.82,-0.785,
389,-0.82,-0.745,
390,-0.82,-0.75,
391,-0.81,-0.735,
392,-0.81,-0.735,
393,-0.815,-0.74,
394,-0.825,-0.75,
395,-0.845,-0.745,
396,-0.86,-0.765,
397,-0.875,-0.76,
398,-0.885,-0.76,
399,-0.9,-0.755,
400,-0.905,-0.75,
401,-0.905,-0.735,
402,-0.905,-0.735,
403,-0.915,-0.715,
404,-0.9,-0.715,
405,-0.92,-0.73,
406,-0.925,-0.74,
407,-0.94,-0.755,
408,-0.94,-0.755,
409,-0.965,-0.76,
410,-0.96,-0.76,
411,-0.97,-0.755,
412,-0.97,-0.76,
413,-0.97,-0.745,
414,-0.96,-0.745,
415,-0.96,-0.72,
416,-0.96,-0.72,
417,-0.97,-0.725,
418,-0.97,-0.73,
419,-0.96,-0.735,
420,-0.975,-0.745,
421,-0.98,-0.76,
422,-0.975,-0.765,
423,-0.99,-0.755,
424,-0.98,-0.75,
425,-0.97,-0.71,
426,-0.965,-0.69,
427,-0.955,-0.685,
428,-0.95,-0.69,
429,-0.95,-0.695,
430,-0.955,-0.7,
431,-0.955,-0.7,
432,-0.945,-0.715,
433,-0.94,-0.72,
434,-0.955,-0.725,
435,-0.95,-0.7,
436,-0.935,-0.7,
437,-0.935,-0.69,
438,-0.93,-0.68,
439,-0.925,-0.69,
440,-0.915,-0.69,
441,-0.915,-0.685,
442,-0.92,-0.695,
443,-0.91,-0.69,
444,-0.925,-0.695,
445,-0.925,-0.695,
446,-0.93,-0.685,
447,-0.93,-0.68,
448,-0.93,-0.685,
449,-0.92,-0.675,
450,-0.925,-0.67,
451,-0.905,-0.665,
452,-0.91,-0.66,
453,-0.905,-0.665,
454,-0.9,-0.66,
455,-0.895,-0.665,
456,-0.91,-0.675,
457,-0.91,-0.675,
458,-0.905,-0.68,
459,-0.91,-0.675,
460,-0.91,-0.67,
461,-0.905,-0.665,
462,-0.895,-0.66,
463,-0.89,-0.645,
464,-0.875,-0.64,
465,-0.885,-0.655,
466,-0.885,-0.65,
467,-0.895,-0.65,
468,-0.89,-0.665,
469,-0.905,-0.675,
470,-0.9,-0.67,
471,-0.905,-0.67,
472,-0.895,-0.67,
473,-0.895,-0.665,
474,-0.89,-0.65,
475,-0.89,-0.64,
476,-0.875,-0.635,
477,-0.87,-0.64,
478,-0.88,-0.645,
479,-0.88,-0.65,
480,-0.88,-0.665,
481,-0.895,-0.665,
482,-0.9,-0.675,
483,-0.9,-0.67,
484,-0.9,-0.665,
485,-0.895,-0.66,
486,-0.885,-0.65,
487,-0.875,-0.65,
488,-0.86,-0.655,
489,-0.86,-0.645,
490,-0.86,-0.645,
491,-0.865,-0.665,
492,-0.87,-0.66,
493,-0.865,-0.65,
494,-0.88,-0.65,
495,-0.87,-0.655,
496,-0.875,-0.65,
497,-0.865,-0.64,
498,-0.86,-0.645,
499,-0.86,-0.63,
500,-0.855,-0.64,
501,-0.855,-0.635,
502,-0.855,-0.645,
503,-0.865,-0.67,
504,-0.865,-0.67,
505,-0.865,-0.675,
506,-0.88,-0.675,
507,-0.87,-0.675,
508,-0.865,-0.655,
509,-0.87,-0.655,
510,-0.86,-0.65,
511,-0.865,-0.64,
512,-0.845,-0.645,
513,-0.845,-0.665,
514,-0.845,-0.655,
515,-0.845,-0.665,
516,-0.86,-0.67,
517,-0.86,-0.67,
518,-0.865,-0.665,
519,-0.875,-0.675,
520,-0.875,-0.66,
521,-0.865,-0.655,
522,-0.865,-0.645,
523,-0.86,-0.64,
524,-0.86,-0.635,
525,-0.845,-0.65,
526,-0.84,-0.645,
527,-0.85,-0.65,
528,-0.86,-0.665,
529,-0.86,-0.675,
530,-0.875,-0.67,
531,-0.86,-0.675,
532,-0.86,-0.665,
533,-0.86,-0.65,
534,-0.86,-0.655,
535,-0.845,-0.655,
536,-0.84,-0.655,
537,-0.84,-0.645,
538,-0.85,-0.67,
539,-0.845,-0.66,
540,-0.865,-0.665,
541,-0.86,-0.67,
542,-0.87,-0.675,
543,-0.875,-0.68,
544,-0.88,-0.685,
545,-0.885,-0.67,
546,-0.86,-0.665,
547,-0.855,-0.66,
548,-0.845,-0.66,
549,-0.835,-0.655,
550,-0.845,-0.66,
551,-0.855,-0.66,
552,-0.86,-0.66,
553,-0.865,-0.67,
554,-0.865,-0.68,
555,-0.87,-0.67,
556,-0.86,-0.675,
557,-0.865,-0.665,
558,-0.845,-0.665,
559,-0.855,-0.655,
560,-0.835,-0.645,
561,-0.85,-0.655,
562,-0.86,-0.66,
563,-0.84,-0.655,
564,-0.855,-0.665,
565,-0.855,-0.675,
566,-0.86,-0.675,
567,-0.855,-0.675,
568,-0.86,-0.68,
569,-0.855,-0.68,
570,-0.845,-0.67,
571,-0.84,-0.665,
572,-0.84,-0.65,
573,-0.835,-0.65,
574,-0.845,-0.65,
575,-0.845,-0.675,
576,-0.84,-0.68,
577,-0.86,-0.69,
578,-0.855,-0.7,
579,-0.855,-0.7,
580,-0.86,-0.68,
581,-0.86,-0.69,
582,-0.855,-0.68,
583,-0.86,-0.66,
584,-0.85,-0.66,
585,-0.845,-0.665,
586,-0.84,-0.665,
587,-0.86,-0.685,
588,-0.86,-0.685,
589,-0.87,-0.69,
590,-0.88,-0.68,
591,-0.855,-0.695,
592,-0.865,-0.685,
593,-0.85,-0.685,
594,-0.85,-0.685,
595,-0.845,-0.675,
596,-0.84,-0.665,
597,-0.835,-0.665,
598,-0.835,-0.675,
599,-0.835,-0.68,
600,-0.855,-0.69,
601,-0.85,-0.69,
602,-0.855,-0.695,
603,-0.855,-0.68,
604,-0.845,-0.68,
605,-0.85,-0.665,
606,-0.835,-0.655,
607,-0.84,-0.655,
608,-0.83,-0.665,
609,-0.835,-0.665,
610,-0.825,-0.67,
611,-0.82,-0.685,
612,-0.825,-0.685,
613,-0.835,-0.695,
614,-0.835,-0.7,
615,-0.83,-0.695,
616,-0.825,-0.69,
617,-0.82,-0.675,
618,-0.83,-0.67,
619,-0.825,-0.665,
620,-0.82,-0.65,
621,-0.805,-0.66,
622,-0.795,-0.645,
623,-0.795,-0.66,
624,-0.79,-0.67,
625,-0.79,-0.675,
626,-0.795,-0.67,
627,-0.79,-0.67,
628,-0.78,-0.67,
629,-0.78,-0.66,
630,-0.785,-0.655,
631,-0.79,-0.655,
632,-0.79,-0.65,
633,-0.8,-0.655,
634,-0.805,-0.65,
635,-0.82,-0.645,
636,-0.82,-0.665,
637,-0.815,-0.67,
638,-0.82,-0.67,
639,-0.815,-0.665,
640,-0.795,-0.655,
641,-0.775,-0.625,
642,-0.77,-0.615,
643,-0.755,-0.625,
644,-0.75,-0.615,
645,-0.755,-0.62,
646,-0.775,-0.635,
647,-0.785,-0.64,
648,-0.785,-0.665,
649,-0.815,-0.68,
650,-0.845,-0.7,
651,-0.855,-0.7,
652,-0.87,-0.705,
653,-0.865,-0.71,
654,-0.86,-0.7,
655,-0.865,-0.68,
656,-0.85,-0.68,
657,-0.845,-0.685,
658,-0.85,-0.69,
659,-0.845,-0.71,
660,-0.86,-0.715,
661,-0.86,-0.73,
662,-0.865,-0.73,
663,-0.865,-0.73,
664,-0.865,-0.745,
665,-0.875,-0.77,
666,-0.875,-0.77,
667,-0.875,-0.755,
668,-0.84,-0.72,
669,-0.8,-0.655,
670,-0.725,-0.54,
671,-0.64,-0.43,
672,-0.565,-0.35,
673,-0.495,-0.32,
674,-0.46,-0.36,
675,-0.475,-0.465,
676,-0.51,-0.65,
677,-0.61,-0.9,
678,-0.74,-1.19,
679,-0.85,-1.385,
680,-0.905,-1.495,
681,-0.845,-1.465,
682,-0.69,-1.3,
683,-0.455,-1.1,
684,-0.205,-0.875,
685,0.075,-0.695,
686,0.345,-0.53,
687,0.595,-0.425,
688,0.84,-0.345,
689,1.055,-0.31,
690,1.23,-0.3,
691,1.345,-0.33,
692,1.4,-0.39,
693,1.39,-0.485,R
694,1.295,-0.595,
695,1.18,-0.66,
696,1.015,-0.7,
697,0.805,-0.71,
698,0.565,-0.715,
699,0.335,-0.69,
700,0.11,-0.66,
701,-0.125,-0.62,
702,-0.345,-0.61,
703,-0.58,-0.63,
704,-0.775,-0.67,
705,-0.93,-0.735,
706,-1.045,-0.78,
707,-1.11,-0.815,
708,-1.145,-0.81,
709,-1.135,-0.78,
710,-1.12,-0.74,
711,-1.1,-0.7,
712,-1.075,-0.66,
713,-1.05,-0.625,
714,-1.02,-0.59,
715,-1.02,-0.58,
716,-0.99,-0.56,
717,-0.965,-0.55,
718,-0.97,-0.555,
719,-0.98,-0.56,
720,-0.98,-0.57,
721,-0.995,-0.58,
722,-1.01,-0.585,
723,-1.015,-0.57,
724,-1.005,-0.555,
725,-0.995,-0.54,
726,-0.98,-0.535,
727,-0.98,-0.53,
728,-0.975,-0.53,
729,-0.98,-0.53,
730,-0.98,-0.545,
731,-0.99,-0.545,
732,-0.995,-0.55,
733,-1.005,-0.545,
734,-1.005,-0.545,
735,-1.015,-0.54,
736,-1.01,-0.555,
737,-1.0,-0.525,
738,-0.995,-0.53,
739,-0.985,-0.515,
740,-0.98,-0.51,
741,-0.98,-0.515,
742,-0.98,-0.515,
743,-0.995,-0.53,
744,-1.005,-0.535,
745,-1.01,-0.545,
746,-1.035,-0.55,
747,-1.03,-0.55,
748,-1.03,-0.55,
749,-1.025,-0.545,
750,-1.015,-0.525,
751,-1.005,-0.525,
752,-1.0,-0.52,
753,-1.0,-0.51,
754,-1.005,-0.535,
755,-1.025,-0.545,
756,-1.045,-0.55,
757,-1.055,-0.56,
758,-1.055,-0.57,
759,-1.065,-0.57,
760,-1.075,-0.565,
761,-1.08,-0.565,
762,-1.065,-0.56,
763,-1.075,-0.56,
764,-1.06,-0.565,
765,-1.08,-0.575,
766,-1.075,-0.595,
767,-1.08,-0.59,
768,-1.09,-0.6,
769,-1.105,-0.615,
770,-1.11,-0.62,
771,-1.12,-0.625,
772,-1.13,-0.635,
773,-1.13,-0.625,
774,-1.12,-0.645,
775,-1.12,-0.64,
776,-1.11,-0.655,
777,-1.12,-0.66,
778,-1.12,-0.68,
779,-1.135,-0.68,
780,-1.135,-0.7,
781,-1.16,-0.7,
782,-1.16,-0.715,
783,-1.165,-0.73,
784,-1.17,-0.73,
785,-1.165,-0.725,
786,-1.16,-0.75,
787,-1.15,-0.75,
788,-1.135,-0.755,
789,-1.145,-0.76,
790,-1.145,-0.78,
791,-1.14,-0.775,
792,-1.145,-0.785,
793,-1.145,-0.795,
794,-1.14,-0.805,
795,-1.14,-0.795,
796,-1.11,-0.795,
797,-1.1,-0.805,
798,-1.07,-0.8,
799,-1.06,-0.79,
800,-1.035,-0.78,
801,-1.015,-0.79,
802,-1.01,-0.795,
803,-1.005,-0.8,
804,-0.99,-0.8,
805,-0.985,-0.81,
806,-0.97,-0.815,
807,-0.955,-0.81,
808,-0.94,-0.8,
809,-0.925,-0.78,
810,-0.89,-0.77,
811,-0.875,-0.75,
812,-0.86,-0.745,
813,-0.845,-0.75,
814,-0.825,-0.76,
815,-0.82,-0.76,
816,-0.815,-0.775,
817,-0.8,-0.775,
818,-0.81,-0.77,
819,-0.805,-0.765,
820,-0.8,-0.755,
821,-0.795,-0.74,
822,-0.77,-0.74,
823,-0.775,-0.74,
824,-0.765,-0.74,
825,-0.77,-0.755,
826,-0.77,-0.745,
827,-0.79,-0.76,
828,-0.795,-0.76,
829,-0.815,-0.76,
830,-0.83,-0.775,
831,-0.83,-0.77,
832,-0.85,-0.76,
833,-0.87,-0.765,
834,-0.875,-0.76,
835,-0.87,-0.76,
836,-0.87,-0.765,
837,-0.885,-0.78,
838,-0.9,-0.775,
839,-0.91,-0.8,
840,-0.93,-0.815,
841,-0.93,-0.815,
842,-0.97,-0.805,
843,-0.985,-0.82,
844,-0.96,-0.8,
845,-0.975,-0.8,
846,-0.97,-0.8,
847,-0.965,-0.785,
848,-0.97,-0.79,
849,-0.965,-0.805,
850,-0.975,-0.8,
851,-0.975,-0.8,
852,-0.995,-0.805,
853,-1.0,-0.81,
854,-1.0,-0.805,
855,-1.005,-0.81,
856,-1.005,-0.785,
857,-1.0,-0.785,
858,-0.995,-0.78,
859,-0.975,-0.78,
860,-0.98,-0.77,
861,-0.975,-0.76,
862,-0.98,-0.765,
863,-0.97,-0.77,
864,-0.985,-0.775,
865,-0.985,-0.775,
866,-0.98,-0.775,
867,-0.98,-0.775,
868,-0.97,-0.76,
869,-0.955,-0.755,
870,-0.945,-0.745,
871,-0.93,-0.74,
872,-0.92,-0.735,
873,-0.915,-0.73,
874,-0.925,-0.735,
875,-0.925,-0.74,
876,-0.93,-0.73,
877,-0.92,-0.755,
878,-0.935,-0.745,
879,-0.94,-0.755,
880,-0.93,-0.745,
881,-0.925,-0.745,
882,-0.91,-0.735,
883,-0.905,-0.735,
884,-0.9,-0.72,
885,-0.9,-0.715,
886,-0.905,-0.73,
887,-0.905,-0.74,
888,-0.91,-0.735,
889,-0.905,-0.74,
890,-0.91,-0.74,
891,-0.915,-0.75,
892,-0.92,-0.74,
893,-0.9,-0.73,
894,-0.885,-0.72,
895,-0.88,-0.695,
896,-0.87,-0.69,
897,-0.875,-0.69,
898,-0.87,-0.69,
899,-0.88,-0.7,
900,-0.89,-0.725,
901,-0.9,-0.73,
902,-0.91,-0.74,
903,-0.9,-0.735,
904,-0.895,-0.735,
905,-0.88,-0.725,
906,-0.88,-0.72,
907,-0.875,-0.71,
908,-0.87,-0.7,
909,-0.865,-0.705,
910,-0.87,-0.71,
911,-0.87,-0.725,
912,-0.87,-0.715,
913,-0.88,-0.735,
914,-0.885,-0.735,
915,-0.88,-0.735,
916,-0.88,-0.73,
917,-0.88,-0.73,
918,-0.87,-0.725,
919,-0.86,-0.71,
920,-0.855,-0.71,
921,-0.855,-0.695,
922,-0.855,-0.715,
923,-0.85,-0.715,
924,-0.865,-0.725,
925,-0.87,-0.74,
926,-0.875,-0.735,
927,-0.87,-0.735,
928,-0.865,-0.725,
929,-0.865,-0.7,
930,-0.86,-0.7,
931,-0.855,-0.685,
932,-0.84,-0.69,
933,-0.84,-0.695,
934,-0.84,-0.7,
935,-0.845,-0.71,
936,-0.85,-0.725,
937,-0.865,-0.705,
938,-0.86,-0.72,
939,-0.87,-0.72,
940,-0.87,-0.715,
941,-0.855,-0.705,
942,-0.855,-0.69,
943,-0.86,-0.69,
944,-0.845,-0.695,
945,-0.84,-0.685,
946,-0.845,-0.705,
947,-0.835,-0.695,
948,-0.85,-0.7,
949,-0.855,-0.71,
950,-0.87,-0.715,
951,-0.875,-0.72,
952,-0.875,-0.71,
953,-0.86,-0.715,
954,-0.865,-0.7,
955,-0.85,-0.705,
956,-0.84,-0.685,
957,-0.84,-0.69,
958,-0.84,-0.695,
959,-0.85,-0.695,
960,-0.84,-0.71,
961,-0.86,-0.7,
962,-0.865,-0.715,
963,-0.865,-0.705,
964,-0.865,-0.705,
965,-0.85,-0.695,
966,-0.845,-0.685,
967,-0.84,-0.675,
968,-0.825,-0.68,
969,-0.82,-0.675,
970,-0.82,-0.695,
971,-0.825,-0.7,
972,-0.84,-0.7,
973,-0.85,-0.705,
974,-0.845,-0.71,
975,-0.855,-0.715,
976,-0.865,-0.705,
977,-0.865,-0.7,
978,-0.84,-0.69,
979,-0.84,-0.695,
980,-0.825,-0.675,
981,-0.82,-0.68,
982,-0.825,-0.69,
983,-0.83,-0.68,
984,-0.83,-0.695,
985,-0.835,-0.695,
986,-0.84,-0.7,
987,-0.845,-0.7,
988,-0.845,-0.705,
989,-0.85,-0.705,
990,-0.835,-0.69,
991,-0.84,-0.695,
992,-0.835,-0.665,
993,-0.835,-0.68,
994,-0.82,-0.685,
995,-0.825,-0.68,
996,-0.835,-0.695,
997,-0.835,-0.695,
998,-0.855,-0.7,
999,-0.845,-0.695,
1000,-0.845,-0.675,
1001,-0.84,-0.665,
1002,-0.825,-0.68,
1003,-0.82,-0.665,
1004,-0.825,-0.66,
1005,-0.815,-0.67,
1006,-0.825,-0.68,
1007,-0.825,-0.69,
1008,-0.835,-0.72,
1009,-0.84,-0.715,
1010,-0.835,-0.71,
1011,-0.835,-0.71,
1012,-0.835,-0.695,
1013,-0.84,-0.685,
1014,-0.835,-0.675,
1015,-0.83,-0.67,
1016,-0.815,-0.665,
1017,-0.81,-0.685,
1018,-0.805,-0.69,
1019,-0.815,-0.705,
1020,-0.83,-0.72,
1021,-0.84,-0.72,
1022,-0.83,-0.715,
1023,-0.83,-0.71,
1024,-0.83,-0.69,
1025,-0.82,-0.685,
1026,-0.82,-0.685,
1027,-0.805,-0.67,
1028,-0.8,-0.685,
1029,-0.81,-0.7,
1030,-0.815,-0.7,
1031,-0.81,-0.7,
1032,-0.83,-0.71,
1033,-0.825,-0.705,
1034,-0.84,-0.71,
1035,-0.84,-0.7,
1036,-0.835,-0.69,
1037,-0.825,-0.68,
1038,-0.81,-0.665,
1039,-0.795,-0.66,
1040,-0.79,-0.66,
1041,-0.785,-0.665,
1042,-0.8,-0.68,
1043,-0.805,-0.705,
1044,-0.815,-0.695,
1045,-0.82,-0.7,
1046,-0.815,-0.7,
1047,-0.815,-0.705,
1048,-0.83,-0.7,
1049,-0.81,-0.68,
1050,-0.79,-0.665,
1051,-0.755,-0.655,
1052,-0.74,-0.67,
1053,-0.73,-0.675,
1054,-0.73,-0.675,
1055,-0.735,-0.685,
1056,-0.735,-0.695,
1057,-0.75,-0.7,
1058,-0.75,-0.68,
1059,-0.75,-0.67,
1060,-0.77,-0.67,
1061,-0.78,-0.66,
1062,-0.78,-0.65,
1063,-0.77,-0.65,
1064,-0.765,-0.65,
1065,-0.77,-0.65,
1066,-0.77,-0.665,
1067,-0.765,-0.66,
1068,-0.775,-0.66,
1069,-0.775,-0.645,
1070,-0.765,-0.635,
1071,-0.75,-0.63,
1072,-0.75,-0.625,
1073,-0.735,-0.625,
1074,-0.735,-0.63,
1075,-0.735,-0.635,
1076,-0.75,-0.645,
1077,-0.765,-0.655,
1078,-0.775,-0.67,
1079,-0.8,-0.69,
1080,-0.825,-0.695,
1081,-0.835,-0.71,
1082,-0.845,-0.705,
1083,-0.84,-0.705,
1084,-0.835,-0.695,
1085,-0.83,-0.675,
1086,-0.825,-0.67,
1087,-0.81,-0.665,
1088,-0.805,-0.675,
1089,-0.82,-0.685,
1090,-0.825,-0.705,
1091,-0.83,-0.72,
1092,-0.845,-0.765,
1093,-0.86,-0.78,
1094,-0.87,-0.76,
1095,-0.835,-0.69,
1096,-0.755,-0.565,
1097,-0.66,-0.43,
1098,-0.55,-0.31,
1099,-0.46,-0.255,
1100,-0.39,-0.265,
1101,-0.375,-0.36,
1102,-0.41,-0.55,
1103,-0.515,-0.85,
1104,-0.685,-1.17,
1105,-0.84,-1.425,
1106,-0.925,-1.56,
1107,-0.915,-1.54,
1108,-0.755,-1.395,
1109,-0.515,-1.17,
1110,-0.22,-0.945,
1111,0.06,-0.755,
1112,0.335,-0.625,
1113,0.57,-0.57,
1114,0.78,-0.555,
1115,0.955,-0.545,
1116,1.09,-0.55,
1117,1.16,-0.575,
1118,1.185,-0.615,
1119,1.16,-0.655,R
1120,1.105,-0.68,
1121,1.02,-0.685,
1122,0.91,-0.67,
1123,0.74,-0.665,
1124,0.555,-0.645,
1125,0.34,-0.63,
1126,0.145,-0.62,
1127,-0.065,-0.605,
1128,-0.295,-0.615,
1129,-0.515,-0.64,
1130,-0.695,-0.675,
1131,-0.875,-0.7,
1132,-0.965,-0.725,
1133,-1.025,-0.73,
1134,-1.045,-0.715,
1135,-1.035,-0.68,
1136,-1.025,-0.66,
1137,-1.0,-0.625,
1138,-0.975,-0.615,
1139,-0.97,-0.6,
1140,-0.965,-0.58,
1141,-0.95,-0.575,
1142,-0.935,-0.55,
1143,-0.925,-0.535,
1144,-0.93,-0.525,
1145,-0.92,-0.505,
1146,-0.915,-0.5,
1147,-0.91,-0.5,
1148,-0.92,-0.5,
1149,-0.915,-0.505,
1150,-0.92,-0.51,
1151,-0.925,-0.515,
1152,-0.935,-0.51,
1153,-0.94,-0.52,
1154,-0.94,-0.51,
1155,-0.945,-0.5,
1156,-0.94,-0.5,
1157,-0.935,-0.48,
1158,-0.935,-0.47,
1159,-0.925,-0.475,
1160,-0.915,-0.485,
1161,-0.925,-0.49,
1162,-0.94,-0.49,
1163,-0.93,-0.505,
1164,-0.93,-0.52,
1165,-0.94,-0.545,
1166,-0.94,-0.53,
1167,-0.95,-0.53,
1168,-0.945,-0.505,
1169,-0.945,-0.49,
1170,-0.955,-0.47,
1171,-0.94,-0.475,
1172,-0.945,-0.48,
1173,-0.945,-0.49,
1174,-0.94,-0.5,
1175,-0.96,-0.525,
1176,-0.955,-0.52,
1177,-0.97,-0.525,
1178,-0.975,-0.53,
1179,-0.985,-0.52,
1180,-0.98,-0.5,
1181,-0.97,-0.515,
1182,-0.975,-0.51,
1183,-0.97,-0.5,
1184,-0.965,-0.51,
1185,-0.97,-0.515,
1186,-0.995,-0.52,
1187,-1.0,-0.525,
1188,-1.005,-0.545,
1189,-1.01,-0.545,
1190,-1.015,-0.55,
1191,-1.02,-0.54,
1192,-1.02,-0.535,
1193,-1.02,-0.53,
1194,-1.015,-0.545,
1195,-1.025,-0.54,
1196,-1.025,-0.545,
1197,-1.035,-0.555,
1198,-1.04,-0.57,
1199,-1.02,-0.585,
1200,-1.05,-0.605,
1201,-1.055,-0.605,
1202,-1.06,-0.615,
1203,-1.075,-0.63,
1204,-1.075,-0.615,
1205,-1.07,-0.62,
1206,-1.07,-0.625,
1207,-1.06,-0.62,
1208,-1.065,-0.645,
1209,-1.065,-0.655,
1210,-1.075,-0.675,
1211,-1.09,-0.685,
1212,-1.105,-0.71,
1213,-1.125,-0.73,
1214,-1.12,-0.72,
1215,-1.125,-0.725,
1216,-1.125,-0.735,
1217,-1.12,-0.72,
1218,-1.115,-0.74,
1219,-1.11,-0.735,
1220,-1.11,-0.74,
1221,-1.11,-0.765,
1222,-1.125,-0.795,
1223,-1.13,-0.805,
1224,-1.125,-0.825,
1225,-1.115,-0.83,
1226,-1.115,-0.835,
1227,-1.11,-0.835,
1228,-1.09,-0.835,
1229,-1.08,-0.83,
1230,-1.055,-0.84,
1231,-1.05,-0.83,
1232,-1.035,-0.835,
1233,-1.03,-0.845,
1234,-1.01,-0.85,
1235,-1.0,-0.845,
1236,-0.985,-0.855,
1237,-0.98,-0.85,
1238,-0.965,-0.845,
1239,-0.95,-0.85,
1240,-0.935,-0.835,
1241,-0.91,-0.83,
1242,-0.885,-0.815,
1243,-0.865,-0.8,
1244,-0.845,-0.805,
1245,-0.83,-0.815,
1246,-0.815,-0.82,
1247,-0.8,-0.815,
1248,-0.8,-0.815,
1249,-0.785,-0.815,
1250,-0.785,-0.82,
1251,-0.785,-0.8,
1252,-0.765,-0.79,
1253,-0.75,-0.78,
1254,-0.735,-0.76,
1255,-0.725,-0.74,
1256,-0.72,-0.745,
1257,-0.72,-0.75,
1258,-0.72,-0.77,
1259,-0.74,-0.755,
1260,-0.755,-0.765,
1261,-0.75,-0.765,
1262,-0.75,-0.755,
1263,-0.745,-0.735,
1264,-0.75,-0.725,
1265,-0.765,-0.735,
1266,-0.755,-0.72,
1267,-0.76,-0.72,
1268,-0.765,-0.715,
1269,-0.775,-0.725,
1270,-0.785,-0.735,
1271,-0.81,-0.74,
1272,-0.82,-0.745,
1273,-0.83,-0.735,
1274,-0.835,-0.74,
1275,-0.84,-0.74,
1276,-0.855,-0.72,
1277,-0.845,-0.735,
1278,-0.85,-0.73,
1279,-0.85,-0.715,
1280,-0.845,-0.72,
1281,-0.855,-0.715,
1282,-0.85,-0.735,
1283,-0.86,-0.74,
1284,-0.875,-0.74,
1285,-0.87,-0.745,
1286,-0.875,-0.745,
1287,-0.875,-0.725,
1288,-0.88,-0.71,
1289,-0.875,-0.71,
1290,-0.86,-0.705,
1291,-0.855,-0.715,
1292,-0.85,-0.705,
1293,-0.84,-0.71,
1294,-0.845,-0.715,
1295,-0.85,-0.715,
1296,-0.85,-0.725,
1297,-0.855,-0.715,
1298,-0.85,-0.72,
1299,-0.855,-0.695,
1300,-0.845,-0.695,
1301,-0.835,-0.695,
1302,-0.83,-0.69,
1303,-0.83,-0.675,
1304,-0.81,-0.685,
1305,-0.805,-0.69,
1306,-0.815,-0.695,
1307,-0.835,-0.7,
1308,-0.845,-0.685,
1309,-0.835,-0.69,
1310,-0.84,-0.7,
1311,-0.83,-0.7,
1312,-0.81,-0.69,
1313,-0.81,-0.68,
1314,-0.805,-0.68,
1315,-0.78,-0.665,
1316,-0.79,-0.67,
1317,-0.78,-0.67,
1318,-0.795,-0.69,
1319,-0.795,-0.685,
1320,-0.785,-0.7,
1321,-0.795,-0.7,
1322,-0.81,-0.715,
1323,-0.8,-0.705,
1324,-0.79,-0.69,
1325,-0.795,-0.68,
1326,-0.795,-0.665,
1327,-0.775,-0.66,
1328,-0.765,-0.675,
1329,-0.765,-0.68,
1330,-0.76,-0.685,
1331,-0.765,-0.7,
1332,-0.76,-0.705,
1333,-0.77,-0.705,
1334,-0.78,-0.7,
1335,-0.775,-0.71,
1336,-0.76,-0.685,
1337,-0.765,-0.685,
1338,-0.755,-0.67,
1339,-0.755,-0.67,
1340,-0.74,-0.685,
1341,-0.745,-0.69,
1342,-0.745,-0.7,
1343,-0.75,-0.695,
1344,-0.76,-0.705,
1345,-0.765,-0.71,
1346,-0.77,-0.715,
1347,-0.755,-0.715,
1348,-0.755,-0.7,
1349,-0.75,-0.7,
1350,-0.745,-0.685,
1351,-0.74,-0.685,
1352,-0.745,-0.695,
1353,-0.75,-0.7,
1354,-0.745,-0.705,
1355,-0.75,-0.715,
1356,-0.74,-0.7,
1357,-0.735,-0.715,
1358,-0.745,-0.71,
1359,-0.75,-0.7,
1360,-0.755,-0.695,
1361,-0.745,-0.695,
1362,-0.73,-0.68,
1363,-0.73,-0.685,
1364,-0.72,-0.695,
1365,-0.725,-0.69,
1366,-0.715,-0.7,
1367,-0.725,-0.705,
1368,-0.73,-0.705,
1369,-0.735,-0.705,
1370,-0.73,-0.71,
1371,-0.73,-0.695,
1372,-0.735,-0.68,
1373,-0.715,-0.675,
1374,-0.705,-0.67,
1375,-0.705,-0.675,
1376,-0.695,-0.675,
1377,-0.695,-0.69,
1378,-0.69,-0.7,
1379,-0.7,-0.7,
1380,-0.705,-0.71,
1381,-0.705,-0.72,
1382,-0.71,-0.71,
1383,-0.72,-0.71,
1384,-0.72,-0.715,
1385,-0.72,-0.71,
1386,-0.69,-0.71,
1387,-0.68,-0.7,
1388,-0.685,-0.7,
1389,-0.685,-0.7,
1390,-0.685,-0.7,
1391,-0.69,-0.71,
1392,-0.69,-0.71,
1393,-0.695,-0.72,
1394,-0.705,-0.725,
1395,-0.7,-0.73,
1396,-0.695,-0.72,
1397,-0.68,-0.705,
1398,-0.67,-0.705,
1399,-0.66,-0.705,
1400,-0.67,-0.695,
1401,-0.655,-0.715,
1402,-0.655,-0.71,
1403,-0.68,-0.705,
1404,-0.675,-0.725,
1405,-0.685,-0.735,
1406,-0.68,-0.74,
1407,-0.69,-0.74,
1408,-0.68,-0.73,
1409,-0.68,-0.715,
1410,-0.67,-0.715,
1411,-0.655,-0.7,
1412,-0.66,-0.715,
1413,-0.67,-0.705,
1414,-0.665,-0.72,
1415,-0.675,-0.73,
1416,-0.68,-0.73,
1417,-0.68,-0.725,
1418,-0.67,-0.74,
1419,-0.665,-0.73,
1420,-0.665,-0.73,
1421,-0.65,-0.72,
1422,-0.645,-0.725,
1423,-0.63,-0.715,
1424,-0.63,-0.73,
1425,-0.635,-0.725,
1426,-0.645,-0.73,
1427,-0.655,-0.745,
1428,-0.655,-0.755,
1429,-0.66,-0.755,
1430,-0.665,-0.755,
1431,-0.65,-0.76,
1432,-0.65,-0.74,
1433,-0.64,-0.73,
1434,-0.65,-0.72,
1435,-0.635,-0.72,
1436,-0.62,-0.725,
1437,-0.63,-0.725,
1438,-0.635,-0.74,
1439,-0.65,-0.745,
1440,-0.655,-0.74,
1441,-0.655,-0.75,
1442,-0.655,-0.755,
1443,-0.65,-0.75,
1444,-0.64,-0.74,
1445,-0.63,-0.75,
1446,-0.625,-0.74,
1447,-0.625,-0.73,
1448,-0.63,-0.73,
1449,-0.63,-0.745,
1450,-0.615,-0.75,
1451,-0.63,-0.75,
1452,-0.63,-0.76,
1453,-0.63,-0.755,
1454,-0.64,-0.765,
1455,-0.645,-0.76,
1456,-0.62,-0.75,
1457,-0.62,-0.75,
1458,-0.595,-0.745,
1459,-0.605,-0.735,
1460,-0.59,-0.74,
1461,-0.6,-0.74,
1462,-0.595,-0.75,
1463,-0.61,-0.76,
1464,-0.625,-0.765,
1465,-0.625,-0.77,
1466,-0.61,-0.765,
1467,-0.605,-0.755,
1468,-0.605,-0.765,
1469,-0.595,-0.755,
1470,-0.585,-0.75,
1471,-0.575,-0.745,
1472,-0.555,-0.75,
1473,-0.56,-0.765,
1474,-0.555,-0.765,
1475,-0.56,-0.765,
1476,-0.565,-0.765,
1477,-0.58,-0.77,
1478,-0.58,-0.765,
1479,-0.575,-0.77,
1480,-0.565,-0.755,
1481,-0.56,-0.74,
1482,-0.53,-0.745,
1483,-0.505,-0.73,
1484,-0.49,-0.73,
1485,-0.495,-0.75,
1486,-0.485,-0.755,
1487,-0.5,-0.755,
1488,-0.51,-0.76,
1489,-0.52,-0.775,
1490,-0.535,-0.765,
1491,-0.555,-0.755,
1492,-0.545,-0.75,
1493,-0.535,-0.765,
1494,-0.535,-0.745,
1495,-0.525,-0.735,
1496,-0.525,-0.72,
1497,-0.52,-0.735,
1498,-0.535,-0.74,
1499,-0.535,-0.73,
1500,-0.525,-0.735,
1501,-0.51,-0.73,
1502,-0.485,-0.725,
1503,-0.49,-0.715,
1504,-0.48,-0.725,
1505,-0.48,-0.715,
1506,-0.48,-0.72,
1507,-0.485,-0.715,
1508,-0.505,-0.735,
1509,-0.53,-0.755,
1510,-0.54,-0.77,
1511,-0.565,-0.79,
1512,-0.575,-0.8,
1513,-0.595,-0.805,
1514,-0.595,-0.81,
1515,-0.595,-0.8,
1516,-0.585,-0.775,
1517,-0.58,-0.78,
1518,-0.57,-0.77,
1519,-0.56,-0.765,
1520,-0.555,-0.77,
1521,-0.555,-0.79,
1522,-0.565,-0.815,
1523,-0.57,-0.835,
1524,-0.585,-0.86,
1525,-0.61,-0.885,
1526,-0.6,-0.875,
1527,-0.57,-0.815,
1528,-0.515,-0.7,
1529,-0.44,-0.595,
1530,-0.35,-0.48,
1531,-0.26,-0.41,
1532,-0.185,-0.41,
1533,-0.165,-0.475,
1534,-0.165,-0.595,
1535,-0.23,-0.83,
1536,-0.325,-1.11,
1537,-0.46,-1.355,
1538,-0.56,-1.525,
1539,-0.57,-1.535,
1540,-0.47,-1.415,
1541,-0.275,-1.195,
1542,-0.02,-0.97,
1543,0.26,-0.76,
1544,0.52,-0.595,
1545,0.76,-0.495,
1546,0.98,-0.435,
1547,1.17,-0.4,
1548,1.345,-0.39,
1549,1.475,-0.4,
1550,1.555,-0.42,
1551,1.6,-0.47,
1552,1.615,-0.55,R
1553,1.55,-0.655,
1554,1.48,-0.71,
1555,1.375,-0.75,
1556,1.21,-0.805,
1557,0.995,-0.81,
1558,0.795,-0.795,
1559,0.595,-0.79,
1560,0.4,-0.775,
1561,0.21,-0.755,
1562,0.0,-0.75,
1563,-0.19,-0.755,
1564,-0.38,-0.79,
1565,-0.55,-0.845,
1566,-0.675,-0.88,
1567,-0.76,-0.89,
1568,-0.8,-0.9,
1569,-0.81,-0.87,
1570,-0.815,-0.84,
1571,-0.8,-0.81,
1572,-0.78,-0.8,
1573,-0.765,-0.78,
1574,-0.755,-0.77,
1575,-0.74,-0.75,
1576,-0.72,-0.72,
1577,-0.705,-0.68,
1578,-0.675,-0.67,
1579,-0.67,-0.655,
1580,-0.655,-0.65,
1581,-0.66,-0.665,
1582,-0.665,-0.66,
1583,-0.67,-0.665,
1584,-0.68,-0.665,
1585,-0.695,-0.66,
1586,-0.705,-0.66,
1587,-0.705,-0.66,
1588,-0.705,-0.655,
1589,-0.695,-0.645,
1590,-0.67,-0.65,
1591,-0.665,-0.625,
1592,-0.66,-0.64,
1593,-0.665,-0.64,
1594,-0.68,-0.65,
1595,-0.69,-0.655,
1596,-0.685,-0.665,
1597,-0.695,-0.67,
1598,-0.7,-0.66,
1599,-0.7,-0.67,
1600,-0.7,-0.655,
1601,-0.695,-0.665,
1602,-0.69,-0.655,
1603,-0.69,-0.65,
1604,-0.675,-0.65,
1605,-0.68,-0.65,
1606,-0.69,-0.65,
1607,-0.69,-0.66,
1608,-0.7,-0.665,
1609,-0.705,-0.675,
1610,-0.715,-0.67,
1611,-0.71,-0.665,
1612,-0.715,-0.66,
1613,-0.7,-0.655,
1614,-0.695,-0.64,
1615,-0.7,-0.635,
1616,-0.69,-0.63,
1617,-0.69,-0.65,
1618,-0.705,-0.655,
1619,-0.71,-0.665,
1620,-0.72,-0.67,
1621,-0.73,-0.695,
1622,-0.745,-0.68,
1623,-0.745,-0.68,
1624,-0.745,-0.685,
1625,-0.73,-0.675,
1626,-0.74,-0.665,
1627,-0.745,-0.66,
1628,-0.72,-0.66,
1629,-0.725,-0.675,
1630,-0.75,-0.69,
1631,-0.75,-0.695,
1632,-0.755,-0.705,
1633,-0.765,-0.71,
1634,-0.77,-0.705,
1635,-0.77,-0.71,
1636,-0.78,-0.71,
1637,-0.775,-0.705,
1638,-0.785,-0.705,
1639,-0.775,-0.705,
1640,-0.775,-0.73,
1641,-0.78,-0.73,
1642,-0.795,-0.74,
1643,-0.805,-0.77,
1644,-0.82,-0.77,
1645,-0.825,-0.79,
1646,-0.82,-0.805,
1647,-0.825,-0.795,
1648,-0.835,-0.8,
1649,-0.825,-0.795,
1650,-0.815,-0.795,
1651,-0.82,-0.795,
1652,-0.815,-0.795,
1653,-0.825,-0.81,
1654,-0.84,-0.825,
1655,-0.83,-0.84,
1656,-0.835,-0.86,
1657,-0.845,-0.87,
1658,-0.84,-0.885,
1659,-0.84,-0.85,
1660,-0.83,-0.87,
1661,-0.83,-0.865,
1662,-0.815,-0.865,
1663,-0.8,-0.845,
1664,-0.79,-0.86,
1665,-0.79,-0.88,
1666,-0.78,-0.875,
1667,-0.785,-0.89,
1668,-0.78,-0.91,
1669,-0.775,-0.9,
1670,-0.765,-0.89,
1671,-0.745,-0.88,
1672,-0.725,-0.87,
1673,-0.705,-0.88,
1674,-0.675,-0.86,
1675,-0.66,-0.865,
1676,-0.65,-0.855,
1677,-0.64,-0.865,
1678,-0.62,-0.87,
1679,-0.595,-0.87,
1680,-0.585,-0.88,
1681,-0.58,-0.885,
1682,-0.58,-0.875,
1683,-0.555,-0.855,
1684,-0.54,-0.845,
1685,-0.535,-0.845,
1686,-0.52,-0.84,
1687,-0.49,-0.835,
1688,-0.47,-0.82,
1689,-0.465,-0.83,
1690,-0.455,-0.84,
1691,-0.455,-0.835,
1692,-0.46,-0.85,
1693,-0.475,-0.85,
1694,-0.455,-0.845,
1695,-0.465,-0.835,
1696,-0.455,-0.83,
1697,-0.45,-0.84,
1698,-0.445,-0.83,
1699,-0.45,-0.835,
1700,-0.45,-0.84,
1701,-0.45,-0.84,
1702,-0.455,-0.85,
1703,-0.48,-0.865,
1704,-0.505,-0.87,
1705,-0.51,-0.87,
1706,-0.52,-0.865,
1707,-0.535,-0.86,
1708,-0.545,-0.845,
1709,-0.55,-0.855,
1710,-0.555,-0.86,
1711,-0.555,-0.85,
1712,-0.565,-0.86,
1713,-0.58,-0.86,
1714,-0.585,-0.855,
1715,-0.615,-0.875,
1716,-0.62,-0.885,
1717,-0.645,-0.885,
1718,-0.655,-0.895,
1719,-0.655,-0.875,
1720,-0.665,-0.875,
1721,-0.66,-0.86,
1722,-0.655,-0.845,
1723,-0.645,-0.845,
1724,-0.65,-0.85,
1725,-0.655,-0.855,
1726,-0.665,-0.86,
1727,-0.675,-0.86,
1728,-0.68,-0.88,
1729,-0.69,-0.88,
1730,-0.695,-0.875,
1731,-0.69,-0.875,
1732,-0.68,-0.86,
1733,-0.675,-0.85,
1734,-0.665,-0.84,
1735,-0.65,-0.84,
1736,-0.635,-0.83,
1737,-0.65,-0.83,
1738,-0.64,-0.835,
1739,-0.65,-0.83,
1740,-0.65,-0.825,
1741,-0.655,-0.835,
1742,-0.65,-0.835,
1743,-0.645,-0.82,
1744,-0.65,-0.815,
1745,-0.635,-0.8,
1746,-0.615,-0.785,
1747,-0.62,-0.775,
1748,-0.605,-0.77,
1749,-0.62,-0.775,
1750,-0.615,-0.79,
1751,-0.625,-0.81,
1752,-0.61,-0.805,
1753,-0.62,-0.805,
1754,-0.62,-0.79,
1755,-0.625,-0.775,
1756,-0.63,-0.77,
1757,-0.615,-0.75,
1758,-0.595,-0.745,
1759,-0.595,-0.75,
1760,-0.575,-0.74,
1761,-0.59,-0.755,
1762,-0.58,-0.755,
1763,-0.58,-0.77,
1764,-0.59,-0.77,
1765,-0.595,-0.775,
1766,-0.59,-0.77,
1767,-0.59,-0.755,
1768,-0.58,-0.75,
1769,-0.57,-0.73,
1770,-0.565,-0.735,
1771,-0.56,-0.72,
1772,-0.55,-0.73,
1773,-0.565,-0.73,
1774,-0.575,-0.75,
1775,-0.57,-0.75,
1776,-0.58,-0.755,
1777,-0.575,-0.76,
1778,-0.595,-0.755,
1779,-0.595,-0.745,
1780,-0.58,-0.735,
1781,-0.575,-0.745,
1782,-0.57,-0.74,
1783,-0.565,-0.725,
1784,-0.56,-0.735,
1785,-0.55,-0.73,
1786,-0.555,-0.72,
1787,-0.57,-0.74,
1788,-0.565,-0.735,
1789,-0.58,-0.74,
1790,-0.575,-0.735,
1791,-0.585,-0.735,
1792,-0.58,-0.73,
1793,-0.58,-0.73,
1794,-0.565,-0.71,
1795,-0.555,-0.71,
1796,-0.55,-0.705,
1797,-0.555,-0.71,
1798,-0.555,-0.705,
1799,-0.565,-0.715,
1800,-0.56,-0.725,
1801,-0.57,-0.725,
1802,-0.57,-0.73,
1803,-0.575,-0.735,
1804,-0.57,-0.725,
1805,-0.575,-0.71,
1806,-0.555,-0.7,
1807,-0.56,-0.685,
1808,-0.555,-0.685,
1809,-0.55,-0.69,
1810,-0.56,-0.69,
1811,-0.57,-0.705,
1812,-0.565,-0.705,
1813,-0.575,-0.71,
1814,-0.58,-0.7,
1815,-0.565,-0.7,
1816,-0.56,-0.69,
1817,-0.555,-0.685,
1818,-0.555,-0.68,
1819,-0.545,-0.665,
1820,-0.55,-0.665,
1821,-0.55,-0.685,
1822,-0.55,-0.69,
1823,-0.575,-0.7,
1824,-0.565,-0.71,
1825,-0.565,-0.715,
1826,-0.57,-0.71,
1827,-0.565,-0.705,
1828,-0.565,-0.69,
1829,-0.555,-0.69,
1830,-0.54,-0.68,
1831,-0.555,-0.675,
1832,-0.55,-0.68,
1833,-0.56,-0.68,
1834,-0.56,-0.68,
1835,-0.555,-0.69,
1836,-0.575,-0.705,
1837,-0.57,-0.69,
1838,-0.575,-0.695,
1839,-0.58,-0.685,
1840,-0.57,-0.665,
1841,-0.565,-0.65,
1842,-0.55,-0.66,
1843,-0.545,-0.65,
1844,-0.535,-0.66,
1845,-0.545,-0.66,
1846,-0.54,-0.68,
1847,-0.555,-0.69,
1848,-0.555,-0.695,
1849,-0.565,-0.69,
1850,-0.56,-0.68,
1851,-0.56,-0.68,
1852,-0.56,-0.675,
1853,-0.555,-0.655,
1854,-0.565,-0.67,
1855,-0.555,-0.645,
1856,-0.55,-0.66,
1857,-0.555,-0.655,
1858,-0.555,-0.675,
1859,-0.55,-0.68,
1860,-0.555,-0.68,
1861,-0.565,-0.675,
1862,-0.56,-0.67,
1863,-0.55,-0.675,
1864,-0.555,-0.665,
1865,-0.56,-0.68,
1866,-0.57,-0.665,
1867,-0.565,-0.665,
1868,-0.56,-0.645,
1869,-0.55,-0.655,
1870,-0.555,-0.64,
1871,-0.555,-0.67,
1872,-0.55,-0.675,
1873,-0.57,-0.665,
1874,-0.565,-0.67,
1875,-0.57,-0.675,
1876,-0.565,-0.675,
1877,-0.56,-0.665,
1878,-0.555,-0.66,
1879,-0.55,-0.645,
1880,-0.545,-0.635,
1881,-0.55,-0.635,
1882,-0.555,-0.645,
1883,-0.555,-0.645,
1884,-0.565,-0.655,
1885,-0.565,-0.655,
1886,-0.57,-0.655,
1887,-0.585,-0.66,
1888,-0.575,-0.645,
1889,-0.57,-0.645,
1890,-0.55,-0.65,
1891,-0.55,-0.625,
1892,-0.535,-0.625,
1893,-0.55,-0.635,
1894,-0.56,-0.645,
1895,-0.555,-0.645,
1896,-0.565,-0.66,
1897,-0.565,-0.66,
1898,-0.565,-0.65,
1899,-0.57,-0.645,
1900,-0.56,-0.65,
1901,-0.565,-0.63,
1902,-0.55,-0.62,
1903,-0.54,-0.62,
1904,-0.535,-0.615,
1905,-0.54,-0.625,
1906,-0.55,-0.635,
1907,-0.55,-0.635,
1908,-0.57,-0.635,
1909,-0.565,-0.64,
1910,-0.565,-0.64,
1911,-0.56,-0.62,
1912,-0.55,-0.62,
1913,-0.53,-0.62,
1914,-0.54,-0.62,
1915,-0.53,-0.61,
1916,-0.525,-0.62,
1917,-0.535,-0.64,
1918,-0.535,-0.62,
1919,-0.55,-0.645,
1920,-0.54,-0.64,
1921,-0.54,-0.625,
1922,-0.53,-0.62,
1923,-0.52,-0.62,
1924,-0.51,-0.615,
1925,-0.495,-0.605,
1926,-0.485,-0.59,
1927,-0.48,-0.57,
1928,-0.485,-0.58,
1929,-0.49,-0.58,
1930,-0.5,-0.59,
1931,-0.515,-0.595,
1932,-0.53,-0.605,
1933,-0.53,-0.605,
1934,-0.55,-0.6,
1935,-0.545,-0.585,
1936,-0.555,-0.58,
1937,-0.545,-0.565,
1938,-0.53,-0.56,
1939,-0.505,-0.535,
1940,-0.49,-0.535,
1941,-0.48,-0.545,
1942,-0.495,-0.54,
1943,-0.49,-0.55,
1944,-0.505,-0.57,
1945,-0.525,-0.57,
1946,-0.535,-0.57,
1947,-0.545,-0.57,
1948,-0.555,-0.58,
1949,-0.565,-0.575,
1950,-0.56,-0.58,
1951,-0.565,-0.59,
1952,-0.57,-0.59,
1953,-0.585,-0.6,
1954,-0.58,-0.6,
1955,-0.59,-0.615,
1956,-0.6,-0.61,
1957,-0.6,-0.625,
1958,-0.6,-0.625,
1959,-0.595,-0.62,
1960,-0.6,-0.615,
1961,-0.58,-0.62,
1962,-0.595,-0.625,
1963,-0.585,-0.635,
1964,-0.6,-0.64,
1965,-0.59,-0.61,
1966,-0.55,-0.51,
1967,-0.475,-0.385,
1968,-0.38,-0.275,
1969,-0.3,-0.19,
1970,-0.23,-0.18,
1971,-0.185,-0.25,
1972,-0.185,-0.405,
1973,-0.26,-0.695,
1974,-0.42,-1.005,
1975,-0.59,-1.28,
1976,-0.69,-1.435,
1977,-0.685,-1.435,
1978,-0.57,-1.3,
1979,-0.36,-1.095,
1980,-0.11,-0.89,
1981,0.15,-0.72,
1982,0.39,-0.585,
1983,0.615,-0.515,
1984,0.82,-0.48,
1985,1.0,-0.47,
1986,1.14,-0.46,
1987,1.24,-0.46,
1988,1.285,-0.495,
1989,1.275,-0.55,R
1990,1.225,-0.585,
1991,1.155,-0.595,
1992,1.035,-0.59,
1993,0.88,-0.575,
1994,0.695,-0.565,
1995,0.49,-0.535,
1996,0.3,-0.51,
1997,0.11,-0.495,
1998,-0.09,-0.495,
1999,-0.295,-0.52,
2000,-0.475,-0.575,
2001,-0.635,-0.605,
2002,-0.745,-0.63,
2003,-0.805,-0.64,
2004,-0.84,-0.62,
2005,-0.84,-0.59,
2006,-0.825,-0.545,
2007,-0.795,-0.515,
2008,-0.765,-0.49,
2009,-0.745,-0.485,
2010,-0.715,-0.45,
2011,-0.685,-0.44,
2012,-0.685,-0.43,
2013,-0.675,-0.43,
2014,-0.685,-0.425,
2015,-0.69,-0.415,
2016,-0.715,-0.43,
2017,-0.72,-0.425,
2018,-0.72,-0.435,
2019,-0.73,-0.435,
2020,-0.73,-0.41,
2021,-0.73,-0.415,
2022,-0.71,-0.405,
2023,-0.7,-0.385,
2024,-0.69,-0.375,
2025,-0.7,-0.38,
2026,-0.695,-0.385,
2027,-0.705,-0.39,
2028,-0.705,-0.405,
2029,-0.71,-0.405,
2030,-0.71,-0.405,
2031,-0.71,-0.39,
2032,-0.72,-0.39,
2033,-0.725,-0.38,
2034,-0.715,-0.365,
2035,-0.715,-0.345,
2036,-0.705,-0.36,
2037,-0.715,-0.37,
2038,-0.715,-0.37,
2039,-0.72,-0.39,
2040,-0.735,-0.385,
2041,-0.74,-0.395,
2042,-0.75,-0.395,
2043,-0.74,-0.395,
2044,-0.76,-0.385,
2045,-0.765,-0.38,
2046,-0.74,-0.365,
2047,-0.74,-0.355,
2048,-0.735,-0.35,
2049,-0.74,-0.355,
2050,-0.755,-0.38,
2051,-0.765,-0.395,
2052,-0.77,-0.4,
2053,-0.785,-0.41,
2054,-0.785,-0.405,
2055,-0.79,-0.4,
2056,-0.785,-0.385,
2057,-0.795,-0.385,
2058,-0.785,-0.385,
2059,-0.795,-0.38,
2060,-0.8,-0.395,
2061,-0.79,-0.395,
2062,-0.81,-0.41,
2063,-0.81,-0.425,
2064,-0.82,-0.44,
2065,-0.825,-0.445,
2066,-0.84,-0.455,
2067,-0.86,-0.44,
2068,-0.84,-0.445,
2069,-0.845,-0.45,
2070,-0.845,-0.45,
2071,-0.845,-0.455,
2072,-0.845,-0.46,
2073,-0.855,-0.47,
2074,-0.865,-0.485,
2075,-0.875,-0.5,
2076,-0.885,-0.515,
2077,-0.9,-0.525,
2078,-0.925,-0.52,
2079,-0.93,-0.535,
2080,-0.925,-0.55,
2081,-0.915,-0.545,
2082,-0.915,-0.55,
2083,-0.905,-0.55,
2084,-0.91,-0.57,
2085,-0.915,-0.575,
2086,-0.925,-0.585,
2087,-0.94,-0.6,
2088,-0.955,-0.615,
2089,-0.945,-0.615,
2090,-0.96,-0.62,
2091,-0.95,-0.63,
2092,-0.945,-0.64,
2093,-0.935,-0.63,
2094,-0.935,-0.635,
2095,-0.92,-0.635,
2096,-0.895,-0.64,
2097,-0.9,-0.655,
2098,-0.89,-0.655,
2099,-0.89,-0.675,
2100,-0.885,-0.675,
2101,-0.885,-0.68,
2102,-0.865,-0.69,
2103,-0.84,-0.695,
2104,-0.825,-0.685,
2105,-0.8,-0.675,
2106,-0.79,-0.67,
2107,-0.77,-0.665,
2108,-0.74,-0.655,
2109,-0.73,-0.665,
2110,-0.72,-0.665,
2111,-0.705,-0.665,
2112,-0.7,-0.67,
2113,-0.69,-0.665,
2114,-0.67,-0.65,
2115,-0.66,-0.65,
2116,-0.65,-0.635,
2117,-0.625,-0.63,
2118,-0.605,-0.615,
2119,-0.59,-0.605,
2120,-0.58,-0.61,
2121,-0.565,-0.605,
2122,-0.555,-0.61,
2123,-0.56,-0.615,
2124,-0.565,-0.61,
2125,-0.555,-0.62,
2126,-0.565,-0.605,
2127,-0.565,-0.605,
2128,-0.57,-0.585,
2129,-0.565,-0.585,
2130,-0.59,-0.565,
2131,-0.575,-0.57,
2132,-0.57,-0.56,
2133,-0.57,-0.555,
2134,-0.585,-0.575,
2135,-0.605,-0.59,
2136,-0.62,-0.595,
2137,-0.645,-0.585,
2138,-0.65,-0.585,
2139,-0.655,-0.585,
2140,-0.66,-0.565,
2141,-0.665,-0.55,
2142,-0.66,-0.555,
2143,-0.675,-0.55,
2144,-0.68,-0.545,
2145,-0.7,-0.55,
2146,-0.695,-0.555,
2147,-0.725,-0.56,
2148,-0.72,-0.575,
2149,-0.72,-0.56,
2150,-0.74,-0.57,
2151,-0.745,-0.56,
2152,-0.745,-0.545,
2153,-0.73,-0.545,
2154,-0.73,-0.545,
2155,-0.72,-0.53,
2156,-0.715,-0.545,
2157,-0.73,-0.53,
2158,-0.74,-0.54,
2159,-0.74,-0.555,
2160,-0.76,-0.565,
2161,-0.765,-0.555,
2162,-0.76,-0.565,
2163,-0.755,-0.55,
2164,-0.765,-0.535,
2165,-0.76,-0.52,
2166,-0.74,-0.52,
2167,-0.735,-0.51,
2168,-0.725,-0.525,
2169,-0.725,-0.52,
2170,-0.725,-0.525,
2171,-0.725,-0.525,
2172,-0.73,-0.53,
2173,-0.74,-0.54,
2174,-0.735,-0.53,
2175,-0.735,-0.52,
2176,-0.745,-0.51,
2177,-0.725,-0.51,
2178,-0.72,-0.51,
2179,-0.725,-0.495,
2180,-0.705,-0.475,
2181,-0.7,-0.48,
2182,-0.71,-0.49,
2183,-0.715,-0.485,
2184,-0.715,-0.495,
2185,-0.715,-0.49,
2186,-0.735,-0.495,
2187,-0.73,-0.505,
2188,-0.725,-0.48,
2189,-0.715,-0.475,
2190,-0.7,-0.47,
2191,-0.69,-0.465,
2192,-0.695,-0.455,
2193,-0.705,-0.46,
2194,-0.705,-0.46,
2195,-0.71,-0.48,
2196,-0.705,-0.48,
2197,-0.705,-0.49,
2198,-0.715,-0.485,
2199,-0.705,-0.485,
2200,-0.7,-0.495,
2201,-0.705,-0.48,
2202,-0.69,-0.455,
2203,-0.68,-0.45,
2204,-0.67,-0.455,
2205,-0.68,-0.45,
2206,-0.68,-0.45,
2207,-0.69,-0.465,
2208,-0.685,-0.46,
2209,-0.7,-0.475,
2210,-0.7,-0.485,
2211,-0.7,-0.46,
2212,-0.71,-0.465,
2213,-0.7,-0.455,
2214,-0.685,-0.45,
2215,-0.69,-0.445,
2216,-0.675,-0.425,
2217,-0.675,-0.42,
2218,-0.685,-0.44,
2219,-0.685,-0.44,
2220,-0.685,-0.445,
2221,-0.705,-0.45,
2222,-0.71,-0.45,
2223,-0.71,-0.46,
2224,-0.71,-0.445,
2225,-0.705,-0.44,
2226,-0.7,-0.43,
2227,-0.705,-0.425,
2228,-0.69,-0.425,
2229,-0.675,-0.42,
2230,-0.68,-0.43,
2231,-0.685,-0.44,
2232,-0.695,-0.45,
2233,-0.705,-0.46,
2234,-0.71,-0.455,
2235,-0.705,-0.45,
2236,-0.705,-0.435,
2237,-0.695,-0.43,
2238,-0.7,-0.415,
2239,-0.68,-0.41,
2240,-0.675,-0.415,
2241,-0.69,-0.41,
2242,-0.7,-0.42,
2243,-0.685,-0.42,
2244,-0.7,-0.425,
2245,-0.69,-0.43,
2246,-0.695,-0.445,
2247,-0.71,-0.44,
2248,-0.71,-0.425,
2249,-0.69,-0.425,
2250,-0.695,-0.425,
2251,-0.685,-0.415,
2252,-0.67,-0.4,
2253,-0.675,-0.41,
2254,-0.685,-0.415,
2255,-0.685,-0.425,
2256,-0.685,-0.44,
2257,-0.7,-0.44,
2258,-0.705,-0.44,
2259,-0.715,-0.425,
2260,-0.71,-0.435,
2261,-0.705,-0.42,
2262,-0.695,-0.4,
2263,-0.695,-0.4,
2264,-0.695,-0.4,
2265,-0.69,-0.415,
2266,-0.69,-0.415,
2267,-0.69,-0.43,
2268,-0.695,-0.435,
2269,-0.7,-0.435,
2270,-0.715,-0.43,
2271,-0.715,-0.43,
2272,-0.715,-0.42,
2273,-0.715,-0.405,
2274,-0.715,-0.41,
2275,-0.7,-0.41,
2276,-0.675,-0.41,
2277,-0.685,-0.42,
2278,-0.69,-0.42,
2279,-0.695,-0.435,
2280,-0.715,-0.44,
2281,-0.72,-0.445,
2282,-0.725,-0.445,
2283,-0.72,-0.44,
2284,-0.71,-0.425,
2285,-0.715,-0.425,
2286,-0.71,-0.4,
2287,-0.705,-0.395,
2288,-0.71,-0.41,
2289,-0.705,-0.425,
2290,-0.705,-0.435,
2291,-0.71,-0.435,
2292,-0.705,-0.445,
2293,-0.705,-0.435,
2294,-0.71,-0.43,
2295,-0.705,-0.425,
2296,-0.7,-0.415,
2297,-0.695,-0.415,
2298,-0.685,-0.405,
2299,-0.685,-0.395,
2300,-0.675,-0.41,
2301,-0.675,-0.425,
2302,-0.685,-0.41,
2303,-0.695,-0.425,
2304,-0.7,-0.435,
2305,-0.7,-0.44,
2306,-0.72,-0.435,
2307,-0.705,-0.425,
2308,-0.7,-0.42,
2309,-0.695,-0.42,
2310,-0.68,-0.42,
2311,-0.68,-0.405,
2312,-0.675,-0.4,
2313,-0.675,-0.415,
2314,-0.695,-0.425,
2315,-0.695,-0.43,
2316,-0.705,-0.435,
2317,-0.72,-0.435,
2318,-0.72,-0.425,
2319,-0.715,-0.425,
2320,-0.725,-0.425,
2321,-0.7,-0.41,
2322,-0.705,-0.41,
2323,-0.695,-0.405,
2324,-0.69,-0.405,
2325,-0.705,-0.41,
2326,-0.7,-0.42,
2327,-0.705,-0.425,
2328,-0.695,-0.43,
2329,-0.705,-0.43,
2330,-0.72,-0.44,
2331,-0.715,-0.44,
2332,-0.72,-0.42,
2333,-0.71,-0.405,
2334,-0.7,-0.41,
2335,-0.695,-0.4,
2336,-0.685,-0.415,
2337,-0.69,-0.4,
2338,-0.7,-0.42,
2339,-0.7,-0.41,
2340,-0.71,-0.425,
2341,-0.73,-0.43,
2342,-0.735,-0.425,
2343,-0.73,-0.415,
2344,-0.715,-0.41,
2345,-0.71,-0.405,
2346,-0.71,-0.415,
2347,-0.705,-0.405,
2348,-0.69,-0.41,
2349,-0.69,-0.415,
2350,-0.705,-0.42,
2351,-0.71,-0.44,
2352,-0.715,-0.43,
2353,-0.72,-0.43,
2354,-0.725,-0.435,
2355,-0.725,-0.425,
2356,-0.72,-0.415,
2357,-0.715,-0.425,
2358,-0.71,-0.405,
2359,-0.71,-0.4,
2360,-0.71,-0.395,
2361,-0.7,-0.41,
2362,-0.705,-0.395,
2363,-0.705,-0.41,
2364,-0.7,-0.425,
2365,-0.7,-0.425,
2366,-0.705,-0.435,
2367,-0.705,-0.425,
2368,-0.695,-0.42,
2369,-0.695,-0.42,
2370,-0.695,-0.405,
2371,-0.69,-0.39,
2372,-0.69,-0.405,
2373,-0.685,-0.4,
2374,-0.685,-0.405,
2375,-0.665,-0.405,
2376,-0.67,-0.41,
2377,-0.675,-0.425,
2378,-0.655,-0.43,
2379,-0.66,-0.435,
2380,-0.655,-0.425,
2381,-0.655,-0.41,
2382,-0.65,-0.4,
2383,-0.655,-0.39,
2384,-0.65,-0.385,
2385,-0.665,-0.385,
2386,-0.67,-0.39,
2387,-0.69,-0.39,
2388,-0.685,-0.41,
2389,-0.7,-0.425,
2390,-0.705,-0.415,
2391,-0.71,-0.405,
2392,-0.695,-0.39,
2393,-0.675,-0.375,
2394,-0.66,-0.34,
2395,-0.64,-0.335,
2396,-0.625,-0.32,
2397,-0.625,-0.34,
2398,-0.625,-0.36,
2399,-0.64,-0.365,
2400,-0.66,-0.375,
2401,-0.685,-0.385,
2402,-0.7,-0.4,
2403,-0.72,-0.405,
2404,-0.74,-0.415,
2405,-0.74,-0.415,
2406,-0.74,-0.4,
2407,-0.745,-0.395,
2408,-0.73,-0.395,
2409,-0.73,-0.4,
2410,-0.73,-0.42,
2411,-0.745,-0.42,
2412,-0.75,-0.425,
2413,-0.755,-0.435,
2414,-0.76,-0.44,
2415,-0.765,-0.45,
2416,-0.765,-0.45,
2417,-0.77,-0.455,
2418,-0.775,-0.47,
2419,-0.765,-0.45,
2420,-0.73,-0.38,
2421,-0.675,-0.27,
2422,-0.595,-0.16,
2423,-0.495,-0.08,
2424,-0.435,-0.025,
2425,-0.38,-0.05,
2426,-0.36,-0.16,
2427,-0.39,-0.335,
2428,-0.48,-0.6,
2429,-0.615,-0.885,
2430,-0.725,-1.095,
2431,-0.79,-1.19,
2432,-0.74,-1.13,
2433,-0.6,-0.945,
2434,-0.37,-0.72,
2435,-0.105,-0.485,
2436,0.17,-0.295,
2437,0.445,-0.16,
2438,0.69,-0.075,
2439,0.92,-0.035,
2440,1.12,-0.005,
2441,1.3,-0.01,
2442,1.395,-0.035,
2443,1.445,-0.085,
2444,1.43,-0.185,R
2445,1.35,-0.28,
2446,1.23,-0.35,
2447,1.03,-0.42,
2448,0.79,-0.45,
2449,0.535,-0.435,
2450,0.295,-0.425,
2451,0.065,-0.385,
2452,-0.15,-0.36,
2453,-0.39,-0.355,
2454,-0.615,-0.4,
2455,-0.79,-0.44,
2456,-0.92,-0.48,
2457,-1.005,-0.505,
2458,-1.045,-0.495,
2459,-1.055,-0.48,
2460,-1.04,-0.445,
2461,-1.02,-0.42,
2462,-1.005,-0.39,
2463,-0.99,-0.35,
2464,-0.965,-0.31,
2465,-0.94,-0.31,
2466,-0.915,-0.27,
2467,-0.9,-0.265,
2468,-0.9,-0.27,
2469,-0.9,-0.285,
2470,-0.905,-0.295,
2471,-0.915,-0.29,
2472,-0.91,-0.31,
2473,-0.92,-0.305,
2474,-0.925,-0.305,
2475,-0.92,-0.305,
2476,-0.925,-0.285,
2477,-0.93,-0.285,
2478,-0.905,-0.26,
2479,-0.91,-0.265,
2480,-0.895,-0.265,
2481,-0.9,-0.265,
2482,-0.905,-0.27,
2483,-0.91,-0.285,
2484,-0.915,-0.285,
2485,-0.93,-0.295,
2486,-0.92,-0.285,
2487,-0.94,-0.285,
2488,-0.925,-0.275,
2489,-0.93,-0.27,
2490,-0.93,-0.25,
2491,-0.93,-0.255,
2492,-0.91,-0.24,
2493,-0.92,-0.255,
2494,-0.92,-0.26,
2495,-0.925,-0.27,
2496,-0.95,-0.275,
2497,-0.94,-0.27,
2498,-0.945,-0.27,
2499,-0.95,-0.27,
2500,-0.945,-0.245,
2501,-0.945,-0.255,
2502,-0.95,-0.25,
2503,-0.95,-0.255,
2504,-0.93,-0.25,
2505,-0.935,-0.255,
2506,-0.945,-0.26,
2507,-0.955,-0.28,
2508,-0.965,-0.275,
2509,-0.975,-0.285,
2510,-0.98,-0.28,
2511,-1.005,-0.295,
2512,-1.0,-0.29,
2513,-1.0,-0.285,
2514,-0.975,-0.29,
2515,-0.97,-0.29,
2516,-0.975,-0.295,
2517,-0.975,-0.295,
2518,-0.99,-0.295,
2519,-1.0,-0.31,
2520,-1.015,-0.325,
2521,-1.025,-0.335,
2522,-1.03,-0.35,
2523,-1.045,-0.355,
2524,-1.04,-0.345,
2525,-1.04,-0.345,
2526,-1.03,-0.34,
2527,-1.03,-0.34,
2528,-1.03,-0.345,
2529,-1.03,-0.35,
2530,-1.05,-0.37,
2531,-1.055,-0.395,
2532,-1.07,-0.415,
2533,-1.08,-0.43,
2534,-1.09,-0.445,
2535,-1.095,-0.445,
2536,-1.1,-0.45,
2537,-1.09,-0.445,
2538,-1.095,-0.435,
2539,-1.085,-0.43,
2540,-1.075,-0.445,
2541,-1.085,-0.45,
2542,-1.095,-0.465,
2543,-1.1,-0.465,
2544,-1.09,-0.49,
2545,-1.105,-0.5,
2546,-1.1,-0.51,
2547,-1.1,-0.52,
2548,-1.09,-0.53,
2549,-1.09,-0.52,
2550,-1.065,-0.51,
2551,-1.05,-0.5,
2552,-1.04,-0.495,
2553,-1.025,-0.505,
2554,-1.015,-0.515,
2555,-1.005,-0.52,
2556,-1.0,-0.53,
2557,-0.995,-0.535,
2558,-0.99,-0.535,
2559,-0.975,-0.535,
2560,-0.96,-0.515,
2561,-0.945,-0.51,
2562,-0.92,-0.495,
2563,-0.895,-0.48,
2564,-0.875,-0.48,
2565,-0.86,-0.485,
2566,-0.845,-0.49,
2567,-0.835,-0.495,
2568,-0.83,-0.5,
2569,-0.825,-0.505,
2570,-0.81,-0.505,
2571,-0.805,-0.485,
2572,-0.795,-0.48,
2573,-0.775,-0.47,
2574,-0.78,-0.47,
2575,-0.77,-0.46,
2576,-0.75,-0.455,
2577,-0.745,-0.475,
2578,-0.74,-0.48,
2579,-0.745,-0.48,
2580,-0.75,-0.5,
2581,-0.745,-0.48,
2582,-0.745,-0.495,
2583,-0.75,-0.48,
2584,-0.755,-0.485,
2585,-0.75,-0.465,
2586,-0.75,-0.465,
2587,-0.745,-0.47,
2588,-0.755,-0.46,
2589,-0.77,-0.48,
2590,-0.775,-0.48,
2591,-0.785,-0.49,
2592,-0.8,-0.505,
2593,-0.825,-0.51,
2594,-0.835,-0.505,
2595,-0.85,-0.505,
2596,-0.865,-0.505,
2597,-0.87,-0.485,
2598,-0.875,-0.48,
2599,-0.88,-0.485,
2600,-0.88,-0.485,
2601,-0.895,-0.5,
2602,-0.9,-0.505,
2603,-0.91,-0.52,
2604,-0.915,-0.53,
2605,-0.935,-0.535,
2606,-0.935,-0.54,
2607,-0.955,-0.54,
2608,-0.97,-0.53,
2609,-0.955,-0.53,
2610,-0.95,-0.515,
2611,-0.955,-0.505,
2612,-0.94,-0.525,
2613,-0.945,-0.51,
2614,-0.95,-0.51,
2615,-0.965,-0.53,
2616,-0.98,-0.52,
2617,-0.975,-0.53,
2618,-0.98,-0.515,
2619,-0.98,-0.52,
2620,-0.975,-0.505,
2621,-0.975,-0.505,
2622,-0.95,-0.49,
2623,-0.935,-0.49,
2624,-0.935,-0.48,
2625,-0.94,-0.49,
2626,-0.94,-0.495,
2627,-0.93,-0.505,
2628,-0.94,-0.515,
2629,-0.945,-0.515,
2630,-0.955,-0.505,
2631,-0.945,-0.495,
2632,-0.935,-0.475,
2633,-0.935,-0.485,
2634,-0.92,-0.485,
2635,-0.915,-0.465,
2636,-0.9,-0.46,
2637,-0.895,-0.47,
2638,-0.91,-0.455,
2639,-0.925,-0.46,
2640,-0.925,-0.475,
2641,-0.91,-0.47,
2642,-0.915,-0.47,
2643,-0.905,-0.455,
2644,-0.895,-0.45,
2645,-0.9,-0.435,
2646,-0.89,-0.44,
2647,-0.88,-0.435,
2648,-0.875,-0.435,
2649,-0.875,-0.435,
2650,-0.875,-0.43,
2651,-0.885,-0.44,
2652,-0.88,-0.44,
2653,-0.885,-0.45,
2654,-0.895,-0.445,
2655,-0.89,-0.435,
2656,-0.88,-0.43,
2657,-0.88,-0.435,
2658,-0.865,-0.44,
2659,-0.86,-0.43,
2660,-0.855,-0.43,
2661,-0.865,-0.43,
2662,-0.865,-0.425,
2663,-0.875,-0.43,
2664,-0.87,-0.425,
2665,-0.88,-0.435,
2666,-0.885,-0.445,
2667,-0.88,-0.445,
2668,-0.875,-0.44,
2669,-0.87,-0.43,
2670,-0.855,-0.42,
2671,-0.865,-0.43,
2672,-0.86,-0.42,
2673,-0.855,-0.42,
2674,-0.855,-0.415,
2675,-0.85,-0.425,
2676,-0.865,-0.425,
2677,-0.875,-0.44,
2678,-0.875,-0.455,
2679,-0.88,-0.45,
2680,-0.87,-0.435,
2681,-0.875,-0.435,
2682,-0.87,-0.43,
2683,-0.865,-0.41,
2684,-0.84,-0.4,
2685,-0.84,-0.39,
2686,-0.845,-0.39,
2687,-0.855,-0.405,
2688,-0.865,-0.415,
2689,-0.88,-0.435,
2690,-0.875,-0.44,
2691,-0.885,-0.425,
2692,-0.875,-0.415,
2693,-0.86,-0.4,
2694,-0.86,-0.41,
2695,-0.855,-0.395,
2696,-0.84,-0.385,
2697,-0.835,-0.41,
2698,-0.835,-0.41,
2699,-0.845,-0.41,
2700,-0.86,-0.435,
2701,-0.88,-0.445,
2702,-0.88,-0.44,
2703,-0.88,-0.435,
2704,-0.865,-0.42,
2705,-0.855,-0.405,
2706,-0.845,-0.395,
2707,-0.835,-0.395,
2708,-0.83,-0.39,
2709,-0.82,-0.4,
2710,-0.835,-0.4,
2711,-0.85,-0.415,
2712,-0.845,-0.415,
2713,-0.85,-0.415,
2714,-0.865,-0.41,
2715,-0.865,-0.405,
2716,-0.86,-0.405,
2717,-0.86,-0.395,
2718,-0.855,-0.385,
2719,-0.84,-0.385,
2720,-0.84,-0.38,
2721,-0.845,-0.395,
2722,-0.845,-0.415,
2723,-0.855,-0.415,
2724,-0.865,-0.42,
2725,-0.87,-0.425,
2726,-0.87,-0.415,
2727,-0.885,-0.405,
2728,-0.87,-0.395,
2729,-0.865,-0.39,
2730,-0.845,-0.385,
2731,-0.83,-0.38,
2732,-0.825,-0.38,
2733,-0.825,-0.38,
2734,-0.835,-0.38,
2735,-0.835,-0.385,
2736,-0.85,-0.4,
2737,-0.855,-0.395,
2738,-0.85,-0.41,
2739,-0.85,-0.415,
2740,-0.855,-0.395,
2741,-0.85,-0.395,
2742,-0.835,-0.395,
2743,-0.835,-0.4,
2744,-0.84,-0.4,
2745,-0.835,-0.395,
2746,-0.83,-0.38,
2747,-0.825,-0.385,
2748,-0.835,-0.38,
2749,-0.845,-0.405,
2750,-0.85,-0.405,
2751,-0.865,-0.395,
2752,-0.86,-0.405,
2753,-0.85,-0.4,
2754,-0.835,-0.395,
2755,-0.845,-0.38,
2756,-0.825,-0.37,
2757,-0.825,-0.39,
2758,-0.82,-0.36,
2759,-0.825,-0.38,
2760,-0.84,-0.39,
2761,-0.845,-0.385,
2762,-0.86,-0.39,
2763,-0.855,-0.405,
2764,-0.855,-0.395,
2765,-0.855,-0.385,
2766,-0.845,-0.37,
2767,-0.845,-0.365,
2768,-0.83,-0.36,
2769,-0.825,-0.37,
2770,-0.83,-0.38,
2771,-0.835,-0.385,
2772,-0.835,-0.4,
2773,-0.85,-0.405,
2774,-0.855,-0.4,
2775,-0.86,-0.39,
2776,-0.855,-0.375,
2777,-0.845,-0.365,
2778,-0.83,-0.355,
2779,-0.83,-0.35,
2780,-0.82,-0.355,
2781,-0.83,-0.365,
2782,-0.83,-0.36,
2783,-0.825,-0.37,
2784,-0.83,-0.38,
2785,-0.845,-0.385,
2786,-0.85,-0.39,
2787,-0.86,-0.38,
2788,-0.865,-0.385,
2789,-0.845,-0.355,
2790,-0.845,-0.345,
2791,-0.825,-0.355,
2792,-0.805,-0.36,
2793,-0.815,-0.37,
2794,-0.82,-0.375,
2795,-0.825,-0.38,
2796,-0.83,-0.39,
2797,-0.83,-0.385,
2798,-0.84,-0.4,
2799,-0.84,-0.39,
2800,-0.835,-0.385,
2801,-0.83,-0.39,
2802,-0.825,-0.375,
2803,-0.82,-0.37,
2804,-0.8,-0.37,
2805,-0.795,-0.375,
2806,-0.8,-0.385,
2807,-0.805,-0.39,
2808,-0.82,-0.405,
2809,-0.825,-0.41,
2810,-0.835,-0.405,
2811,-0.84,-0.39,
2812,-0.835,-0.385,
2813,-0.825,-0.38,
2814,-0.81,-0.38,
2815,-0.795,-0.375,
2816,-0.765,-0.36,
2817,-0.76,-0.37,
2818,-0.755,-0.375,
2819,-0.765,-0.385,
2820,-0.77,-0.385,
2821,-0.775,-0.39,
2822,-0.795,-0.39,
2823,-0.81,-0.39,
2824,-0.82,-0.375,
2825,-0.81,-0.38,
2826,-0.8,-0.355,
2827,-0.79,-0.35,
2828,-0.78,-0.335,
2829,-0.795,-0.335,
2830,-0.8,-0.335,
2831,-0.78,-0.33,
2832,-0.775,-0.345,
2833,-0.785,-0.345,
2834,-0.775,-0.355,
2835,-0.775,-0.36,
2836,-0.78,-0.37,
2837,-0.79,-0.355,
2838,-0.795,-0.365,
2839,-0.815,-0.365,
2840,-0.83,-0.365,
2841,-0.845,-0.39,
2842,-0.855,-0.405,
2843,-0.87,-0.43,
2844,-0.87,-0.43,
2845,-0.875,-0.42,
2846,-0.88,-0.44,
2847,-0.89,-0.42,
2848,-0.895,-0.42,
2849,-0.885,-0.415,
2850,-0.875,-0.415,
2851,-0.865,-0.405,
2852,-0.86,-0.425,
2853,-0.875,-0.425,
2854,-0.875,-0.44,
2855,-0.885,-0.47,
2856,-0.9,-0.485,
2857,-0.91,-0.485,
2858,-0.89,-0.44,
2859,-0.85,-0.35,
2860,-0.78,-0.23,
2861,-0.68,-0.11,
2862,-0.58,-0.02,
2863,-0.5,0.035,
2864,-0.445,0.035,
2865,-0.42,-0.03,
2866,-0.435,-0.19,
2867,-0.505,-0.42,
2868,-0.64,-0.7,
2869,-0.795,-0.975,
2870,-0.955,-1.195,
2871,-1.04,-1.31,
2872,-1.04,-1.28,
2873,-0.91,-1.16,
2874,-0.72,-0.98,
2875,-0.47,-0.805,
2876,-0.215,-0.635,
2877,0.0,-0.52,
2878,0.19,-0.435,
2879,0.39,-0.395,
2880,0.565,-0.365,
2881,0.73,-0.355,
2882,0.855,-0.345,
2883,0.965,-0.355,
2884,1.015,-0.375,
2885,1.01,-0.41,R
2886,0.97,-0.425,
2887,0.91,-0.42,
2888,0.81,-0.395,
2889,0.655,-0.385,
2890,0.47,-0.38,
2891,0.285,-0.37,
2892,0.085,-0.36,
2893,-0.1,-0.36,
2894,-0.295,-0.37,
2895,-0.515,-0.4,
2896,-0.73,-0.43,
2897,-0.885,-0.455,
2898,-0.99,-0.48,
2899,-1.07,-0.49,
2900,-1.1,-0.47,
2901,-1.105,-0.445,
2902,-1.095,-0.42,
2903,-1.075,-0.39,
2904,-1.05,-0.365,
2905,-1.03,-0.345,
2906,-1.025,-0.335,
2907,-1.015,-0.32,
2908,-1.01,-0.31,
2909,-1.005,-0.28,
2910,-0.99,-0.265,
2911,-0.975,-0.26,
2912,-0.97,-0.27,
2913,-0.96,-0.265,
2914,-0.975,-0.275,
2915,-0.985,-0.285,
2916,-1.005,-0.295,
2917,-1.005,-0.295,
2918,-1.01,-0.3,
2919,-1.0,-0.295,
2920,-1.0,-0.295,
2921,-1.0,-0.28,
2922,-0.99,-0.28,
2923,-0.985,-0.27,
2924,-0.98,-0.26,
2925,-0.985,-0.25,
2926,-0.98,-0.265,
2927,-0.99,-0.275,
2928,-1.0,-0.28,
2929,-1.005,-0.295,
2930,-1.01,-0.295,
2931,-1.01,-0.3,
2932,-1.02,-0.28,
2933,-1.025,-0.27,
2934,-1.0,-0.26,
2935,-1.02,-0.255,
2936,-1.01,-0.245,
2937,-0.99,-0.245,
2938,-1.0,-0.265,
2939,-1.005,-0.28,
2940,-1.025,-0.29,
2941,-1.02,-0.295,
2942,-1.04,-0.285,
2943,-1.06,-0.285,
2944,-1.035,-0.28,
2945,-1.045,-0.27,
2946,-1.045,-0.27,
2947,-1.045,-0.28,
2948,-1.03,-0.28,
2949,-1.035,-0.285,
2950,-1.03,-0.275,
2951,-1.025,-0.29,
2952,-1.045,-0.295,
2953,-1.05,-0.305,
2954,-1.07,-0.315,
2955,-1.07,-0.31,
2956,-1.075,-0.295,
2957,-1.08,-0.29,
2958,-1.07,-0.29,
2959,-1.08,-0.285,
2960,-1.07,-0.275,
2961,-1.08,-0.3,
2962,-1.08,-0.32,
2963,-1.09,-0.335,
2964,-1.1,-0.34,
2965,-1.11,-0.345,
2966,-1.125,-0.355,
2967,-1.13,-0.355,
2968,-1.135,-0.355,
2969,-1.125,-0.34,
2970,-1.14,-0.35,
2971,-1.15,-0.355,
2972,-1.145,-0.385,
2973,-1.14,-0.38,
2974,-1.145,-0.395,
2975,-1.155,-0.41,
2976,-1.165,-0.43,
2977,-1.17,-0.44,
2978,-1.185,-0.455,
2979,-1.19,-0.47,
2980,-1.19,-0.46,
2981,-1.2,-0.465,
2982,-1.195,-0.47,
2983,-1.19,-0.475,
2984,-1.195,-0.485,
2985,-1.2,-0.5,
2986,-1.2,-0.515,
2987,-1.2,-0.54,
2988,-1.21,-0.545,
2989,-1.225,-0.57,
2990,-1.22,-0.565,
2991,-1.225,-0.58,
2992,-1.225,-0.58,
2993,-1.215,-0.58,
2994,-1.205,-0.59,
2995,-1.19,-0.595,
2996,-1.185,-0.6,
2997,-1.17,-0.6,
2998,-1.175,-0.62,
2999,-1.17,-0.64,
3000,-1.165,-0.645,
3001,-1.165,-0.655,
3002,-1.155,-0.65,
3003,-1.14,-0.65,
3004,-1.125,-0.64,
3005,-1.11,-0.65,
3006,-1.095,-0.64,
3007,-1.08,-0.64,
3008,-1.045,-0.63,
3009,-1.03,-0.64,
3010,-1.02,-0.64,
3011,-1.01,-0.655,
3012,-1.0,-0.665,
3013,-0.985,-0.655,
3014,-0.975,-0.66,
3015,-0.96,-0.655,
3016,-0.94,-0.66,
3017,-0.93,-0.63,
3018,-0.905,-0.625,
3019,-0.905,-0.62,
3020,-0.885,-0.605,
3021,-0.88,-0.61,
3022,-0.86,-0.61,
3023,-0.855,-0.605,
3024,-0.855,-0.62,
3025,-0.86,-0.62,
3026,-0.855,-0.61,
3027,-0.85,-0.605,
3028,-0.85,-0.595,
3029,-0.85,-0.58,
3030,-0.84,-0.57,
3031,-0.84,-0.555,
3032,-0.82,-0.555,
3033,-0.84,-0.57,
3034,-0.845,-0.57,
3035,-0.865,-0.58,
3036,-0.88,-0.575,
3037,-0.89,-0.585,
3038,-0.905,-0.6,
3039,-0.915,-0.585,
3040,-0.925,-0.585,
3041,-0.925,-0.565,
3042,-0.93,-0.56,
3043,-0.935,-0.55,
3044,-0.94,-0.545,
3045,-0.95,-0.55,
3046,-0.97,-0.565,
3047,-0.975,-0.565,
3048,-0.99,-0.585,
3049,-1.0,-0.575,
3050,-1.025,-0.58,
3051,-1.02,-0.575,
3052,-1.02,-0.57,
3053,-1.025,-0.555,
3054,-1.02,-0.56,
3055,-1.015,-0.555,
3056,-1.005,-0.55,
3057,-1.015,-0.55,
3058,-1.025,-0.545,
3059,-1.025,-0.57,
3060,-1.035,-0.585,
3061,-1.04,-0.585,
3062,-1.045,-0.57,
3063,-1.045,-0.58,
3064,-1.05,-0.565,
3065,-1.045,-0.555,
3066,-1.025,-0.57,
3067,-1.025,-0.56,
3068,-1.015,-0.555,
3069,-1.02,-0.555,
3070,-1.02,-0.555,
3071,-1.02,-0.575,
3072,-1.01,-0.57,
3073,-1.025,-0.575,
3074,-1.025,-0.57,
3075,-1.025,-0.56,
3076,-1.02,-0.555,
3077,-1.01,-0.545,
3078,-1.005,-0.535,
3079,-0.99,-0.54,
3080,-0.98,-0.53,
3081,-0.98,-0.515,
3082,-0.985,-0.52,
3083,-0.995,-0.54,
3084,-1.005,-0.53,
3085,-0.995,-0.535,
3086,-1.01,-0.545,
3087,-0.99,-0.54,
3088,-0.99,-0.535,
3089,-1.0,-0.525,
3090,-0.985,-0.53,
3091,-0.99,-0.53,
3092,-0.975,-0.515,
3093,-0.97,-0.52,
3094,-0.975,-0.515,
3095,-0.98,-0.52,
3096,-0.98,-0.535,
3097,-0.985,-0.54,
3098,-0.985,-0.55,
3099,-0.99,-0.545,
3100,-0.995,-0.53,
3101,-0.98,-0.535,
3102,-0.975,-0.52,
3103,-0.965,-0.51,
3104,-0.96,-0.505,
3105,-0.96,-0.51,
3106,-0.965,-0.505,
3107,-0.97,-0.525,
3108,-0.98,-0.54,
3109,-0.985,-0.55,
3110,-0.995,-0.55,
3111,-0.995,-0.545,
3112,-1.0,-0.535,
3113,-0.98,-0.525,
3114,-0.97,-0.53,
3115,-0.965,-0.52,
3116,-0.955,-0.51,
3117,-0.95,-0.515,
3118,-0.97,-0.52,
3119,-0.975,-0.53,
3120,-0.97,-0.535,
3121,-1.0,-0.54,
3122,-0.985,-0.555,
3123,-0.985,-0.55,
3124,-0.99,-0.545,
3125,-0.985,-0.53,
3126,-0.97,-0.52,
3127,-0.965,-0.51,
3128,-0.95,-0.515,
3129,-0.96,-0.515,
3130,-0.955,-0.535,
3131,-0.965,-0.53,
3132,-0.97,-0.54,
3133,-0.985,-0.545,
3134,-0.985,-0.54,
3135,-0.98,-0.55,
3136,-0.995,-0.54,
3137,-0.97,-0.53,
3138,-0.96,-0.54,
3139,-0.96,-0.515,
3140,-0.96,-0.52,
3141,-0.965,-0.515,
3142,-0.98,-0.535,
3143,-0.975,-0.535,
3144,-0.975,-0.545,
3145,-0.98,-0.56,
3146,-0.98,-0.555,
3147,-0.98,-0.545,
3148,-0.975,-0.54,
3149,-0.985,-0.535,
3150,-0.98,-0.53,
3151,-0.97,-0.53,
3152,-0.965,-0.53,
3153,-0.955,-0.525,
3154,-0.96,-0.53,
3155,-0.97,-0.545,
3156,-0.975,-0.54,
3157,-0.98,-0.555,
3158,-0.98,-0.56,
3159,-0.98,-0.55,
3160,-0.98,-0.54,
3161,-0.98,-0.545,
3162,-0.97,-0.545,
3163,-0.965,-0.53,
3164,-0.96,-0.535,
3165,-0.96,-0.545,
3166,-0.96,-0.555,
3167,-0.97,-0.545,
3168,-0.975,-0.555,
3169,-0.975,-0.56,
3170,-0.985,-0.56,
3171,-0.995,-0.565,
3172,-0.98,-0.555,
3173,-0.975,-0.555,
3174,-0.985,-0.54,
3175,-0.975,-0.54,
3176,-0.965,-0.54,
3177,-0.96,-0.54,
3178,-0.965,-0.55,
3179,-0.98,-0.555,
3180,-0.975,-0.55,
3181,-0.99,-0.56,
3182,-1.0,-0.565,
3183,-1.0,-0.565,
3184,-0.97,-0.57,
3185,-0.975,-0.56,
3186,-0.975,-0.545,
3187,-0.955,-0.54,
3188,-0.96,-0.525,
3189,-0.955,-0.53,
3190,-0.97,-0.53,
3191,-0.975,-0.545,
3192,-0.985,-0.53,
3193,-0.995,-0.555,
3194,-0.995,-0.56,
3195,-0.995,-0.57,
3196,-1.005,-0.56,
3197,-0.985,-0.545,
3198,-0.98,-0.53,
3199,-0.975,-0.535,
3200,-0.955,-0.52,
3201,-0.95,-0.525,
3202,-0.97,-0.545,
3203,-0.97,-0.55,
3204,-0.97,-0.55,
3205,-0.98,-0.56,
3206,-0.985,-0.565,
3207,-0.98,-0.565,
3208,-0.99,-0.55,
3209,-0.97,-0.535,
3210,-0.965,-0.535,
3211,-0.96,-0.525,
3212,-0.95,-0.525,
3213,-0.955,-0.535,
3214,-0.955,-0.535,
3215,-0.96,-0.545,
3216,-0.97,-0.555,
3217,-0.975,-0.555,
3218,-0.985,-0.555,
3219,-0.985,-0.55,
3220,-0.97,-0.555,
3221,-0.97,-0.54,
3222,-0.97,-0.53,
3223,-0.955,-0.52,
3224,-0.945,-0.53,
3225,-0.94,-0.54,
3226,-0.945,-0.555,
3227,-0.95,-0.555,
3228,-0.95,-0.56,
3229,-0.965,-0.565,
3230,-0.96,-0.565,
3231,-0.965,-0.56,
3232,-0.95,-0.55,
3233,-0.96,-0.555,
3234,-0.96,-0.545,
3235,-0.95,-0.545,
3236,-0.935,-0.53,
3237,-0.925,-0.535,
3238,-0.92,-0.525,
3239,-0.925,-0.535,
3240,-0.92,-0.535,
3241,-0.915,-0.535,
3242,-0.915,-0.54,
3243,-0.91,-0.545,
3244,-0.91,-0.53,
3245,-0.905,-0.54,
3246,-0.905,-0.535,
3247,-0.905,-0.53,
3248,-0.9,-0.525,
3249,-0.9,-0.535,
3250,-0.91,-0.535,
3251,-0.93,-0.54,
3252,-0.94,-0.54,
3253,-0.94,-0.54,
3254,-0.955,-0.53,
3255,-0.96,-0.535,
3256,-0.945,-0.535,
3257,-0.935,-0.51,
3258,-0.915,-0.495,
3259,-0.9,-0.485,
3260,-0.87,-0.485,
3261,-0.865,-0.47,
3262,-0.87,-0.49,
3263,-0.89,-0.49,
3264,-0.89,-0.52,
3265,-0.91,-0.52,
3266,-0.94,-0.55,
3267,-0.965,-0.555,
3268,-0.98,-0.555,
3269,-0.985,-0.55,
3270,-0.99,-0.57,
3271,-1.0,-0.56,
3272,-0.985,-0.555,
3273,-0.985,-0.565,
3274,-0.995,-0.565,
3275,-0.98,-0.57,
3276,-0.995,-0.57,
3277,-0.99,-0.595,
3278,-0.995,-0.595,
3279,-1.01,-0.615,
3280,-1.015,-0.625,
3281,-1.025,-0.63,
3282,-1.025,-0.61,
3283,-1.005,-0.56,
3284,-0.95,-0.455,
3285,-0.88,-0.35,
3286,-0.77,-0.25,
3287,-0.69,-0.19,
3288,-0.635,-0.19,
3289,-0.59,-0.25,
3290,-0.605,-0.41,
3291,-0.655,-0.655,
3292,-0.79,-0.945,
3293,-0.93,-1.185,
3294,-1.015,-1.31,
3295,-1.01,-1.275,
3296,-0.88,-1.125,
3297,-0.665,-0.89,
3298,-0.39,-0.665,
3299,-0.105,-0.465,
3300,0.165,-0.33,
3301,0.435,-0.225,
3302,0.66,-0.19,
3303,0.855,-0.16,
3304,1.035,-0.15,
3305,1.165,-0.16,
3306,1.25,-0.2,
3307,1.26,-0.29,R
3308,1.21,-0.385,
3309,1.115,-0.48,
3310,0.955,-0.535,
3311,0.75,-0.585,
3312,0.51,-0.595,
3313,0.26,-0.58,
3314,0.015,-0.55,
3315,-0.22,-0.51,
3316,-0.44,-0.495,
3317,-0.66,-0.515,
3318,-0.85,-0.54,
3319,-1.005,-0.6,
3320,-1.125,-0.64,
3321,-1.205,-0.645,
3322,-1.245,-0.65,
3323,-1.25,-0.61,
3324,-1.255,-0.6,
3325,-1.25,-0.565,
3326,-1.225,-0.53,
3327,-1.205,-0.515,
3328,-1.185,-0.495,
3329,-1.165,-0.47,
3330,-1.145,-0.445,
3331,-1.125,-0.435,
3332,-1.11,-0.415,
3333,-1.1,-0.415,
3334,-1.105,-0.42,
3335,-1.115,-0.42,
3336,-1.13,-0.425,
3337,-1.15,-0.425,
3338,-1.15,-0.425,
3339,-1.155,-0.43,
3340,-1.145,-0.41,
3341,-1.14,-0.405,
3342,-1.135,-0.405,
3343,-1.14,-0.4,
3344,-1.13,-0.38,
3345,-1.12,-0.395,
3346,-1.115,-0.39,
3347,-1.125,-0.395,
3348,-1.14,-0.405,
3349,-1.135,-0.405,
3350,-1.16,-0.405,
3351,-1.165,-0.41,
3352,-1.17,-0.4,
3353,-1.15,-0.4,
3354,-1.15,-0.375,
3355,-1.14,-0.375,
3356,-1.13,-0.365,
3357,-1.135,-0.37,
3358,-1.14,-0.375,
3359,-1.14,-0.39,
3360,-1.155,-0.405,
3361,-1.165,-0.415,
3362,-1.17,-0.42,
3363,-1.175,-0.41,
3364,-1.175,-0.405,
3365,-1.175,-0.39,
3366,-1.17,-0.395,
3367,-1.15,-0.39,
3368,-1.145,-0.375,
3369,-1.15,-0.39,
3370,-1.16,-0.395,
3371,-1.165,-0.415,
3372,-1.18,-0.425,
3373,-1.18,-0.435,
3374,-1.185,-0.445,
3375,-1.2,-0.44,
3376,-1.205,-0.44,
3377,-1.205,-0.43,
3378,-1.195,-0.43,
3379,-1.205,-0.415,
3380,-1.19,-0.415,
3381,-1.19,-0.43,
3382,-1.2,-0.445,
3383,-1.205,-0.46,
3384,-1.215,-0.465,
3385,-1.235,-0.47,
3386,-1.25,-0.485,
3387,-1.245,-0.495,
3388,-1.265,-0.48,
3389,-1.245,-0.48,
3390,-1.255,-0.485,
3391,-1.255,-0.485,
3392,-1.25,-0.475,
3393,-1.25,-0.49,
3394,-1.245,-0.5,
3395,-1.265,-0.525,
3396,-1.275,-0.53,
3397,-1.275,-0.535,
3398,-1.3,-0.555,
3399,-1.3,-0.565,
3400,-1.3,-0.565,
3401,-1.305,-0.56,
3402,-1.305,-0.555,
3403,-1.295,-0.56,
3404,-1.295,-0.575,
3405,-1.305,-0.585,
3406,-1.295,-0.59,
3407,-1.3,-0.61,
3408,-1.31,-0.625,
3409,-1.31,-0.635,
3410,-1.315,-0.64,
3411,-1.315,-0.645,
3412,-1.31,-0.635,
3413,-1.3,-0.64,
3414,-1.295,-0.64,
3415,-1.28,-0.625,
3416,-1.27,-0.625,
3417,-1.25,-0.64,
3418,-1.225,-0.655,
3419,-1.23,-0.655,
3420,-1.205,-0.665,
3421,-1.21,-0.665,
3422,-1.19,-0.665,
3423,-1.17,-0.66,
3424,-1.17,-0.66,
3425,-1.15,-0.645,
3426,-1.12,-0.63,
3427,-1.115,-0.615,
3428,-1.08,-0.605,
3429,-1.07,-0.605,
3430,-1.055,-0.61,
3431,-1.05,-0.615,
3432,-1.035,-0.62,
3433,-1.02,-0.625,
3434,-1.015,-0.62,
3435,-1.005,-0.63,
3436,-1.01,-0.62,
3437,-0.985,-0.615,
3438,-0.975,-0.59,
3439,-0.96,-0.59,
3440,-0.935,-0.59,
3441,-0.93,-0.585,
3442,-0.94,-0.6,
3443,-0.935,-0.605,
3444,-0.935,-0.61,
3445,-0.94,-0.615,
3446,-0.95,-0.625,
3447,-0.95,-0.62,
3448,-0.965,-0.61,
3449,-0.96,-0.605,
3450,-0.97,-0.605,
3451,-0.97,-0.61,
3452,-0.965,-0.61,
3453,-0.975,-0.625,
3454,-0.99,-0.63,
3455,-0.99,-0.645,
3456,-1.015,-0.64,
3457,-1.025,-0.655,
3458,-1.045,-0.65,
3459,-1.06,-0.645,
3460,-1.06,-0.635,
3461,-1.065,-0.625,
3462,-1.075,-0.62,
3463,-1.07,-0.625,
3464,-1.075,-0.63,
3465,-1.075,-0.63,
3466,-1.095,-0.63,
3467,-1.09,-0.645,
3468,-1.095,-0.66,
3469,-1.12,-0.655,
3470,-1.125,-0.655,
3471,-1.125,-0.66,
3472,-1.125,-0.65,
3473,-1.13,-0.64,
3474,-1.125,-0.63,
3475,-1.13,-0.63,
3476,-1.12,-0.62,
3477,-1.115,-0.62,
3478,-1.12,-0.615,
3479,-1.115,-0.615,
3480,-1.125,-0.635,
3481,-1.125,-0.635,
3482,-1.135,-0.645,
3483,-1.14,-0.645,
3484,-1.135,-0.645,
3485,-1.13,-0.615,
3486,-1.12,-0.62,
3487,-1.115,-0.605,
3488,-1.105,-0.605,
3489,-1.105,-0.605,
3490,-1.11,-0.605,
3491,-1.1,-0.61,
3492,-1.1,-0.61,
3493,-1.095,-0.625,
3494,-1.095,-0.63,
3495,-1.09,-0.61,
3496,-1.085,-0.59,
3497,-1.075,-0.58,
3498,-1.065,-0.565,
3499,-1.055,-0.57,
3500,-1.055,-0.57,
3501,-1.06,-0.565,
3502,-1.07,-0.58,
3503,-1.045,-0.585,
3504,-1.06,-0.585,
3505,-1.065,-0.595,
3506,-1.06,-0.59,
3507,-1.06,-0.575,
3508,-1.065,-0.565,
3509,-1.05,-0.54,
3510,-1.04,-0.545,
3511,-1.035,-0.535,
3512,-1.03,-0.53,
3513,-1.025,-0.545,
3514,-1.025,-0.555,
3515,-1.025,-0.57,
3516,-1.03,-0.565,
3517,-1.03,-0.57,
3518,-1.05,-0.565,
3519,-1.05,-0.55,
3520,-1.05,-0.56,
3521,-1.045,-0.545,
3522,-1.03,-0.535,
3523,-1.03,-0.54,
3524,-1.02,-0.525,
3525,-1.02,-0.525,
3526,-1.02,-0.545,
3527,-1.03,-0.545,
3528,-1.04,-0.545,
3529,-1.03,-0.56,
3530,-1.04,-0.55,
3531,-1.045,-0.555,
3532,-1.04,-0.555,
3533,-1.04,-0.545,
3534,-1.03,-0.52,
3535,-1.025,-0.51,
3536,-1.01,-0.5,
3537,-1.0,-0.515,
3538,-1.0,-0.51,
3539,-1.005,-0.515,
3540,-1.015,-0.53,
3541,-1.025,-0.54,
3542,-1.03,-0.545,
3543,-1.035,-0.54,
3544,-1.03,-0.53,
3545,-1.025,-0.52,
3546,-1.015,-0.51,
3547,-1.01,-0.5,
3548,-1.0,-0.49,
3549,-0.99,-0.5,
3550,-0.995,-0.505,
3551,-0.995,-0.5,
3552,-1.005,-0.515,
3553,-1.01,-0.53,
3554,-1.01,-0.525,
3555,-1.015,-0.535,
3556,-1.025,-0.54,
3557,-1.015,-0.53,
3558,-1.005,-0.52,
3559,-1.01,-0.505,
3560,-1.0,-0.5,
3561,-1.005,-0.49,
3562,-1.0,-0.495,
3563,-1.015,-0.51,
3564,-1.035,-0.51,
3565,-1.025,-0.525,
3566,-1.035,-0.545,
3567,-1.03,-0.55,
3568,-1.01,-0.53,
3569,-1.01,-0.53,
3570,-1.02,-0.505,
3571,-1.015,-0.51,
3572,-0.995,-0.505,
3573,-0.98,-0.51,
3574,-0.98,-0.51,
3575,-0.98,-0.53,
3576,-0.995,-0.54,
3577,-1.0,-0.535,
3578,-1.0,-0.545,
3579,-1.005,-0.54,
3580,-1.005,-0.525,
3581,-1.0,-0.52,
3582,-0.985,-0.52,
3583,-0.98,-0.525,
3584,-0.975,-0.505,
3585,-0.975,-0.53,
3586,-0.97,-0.515,
3587,-0.98,-0.53,
3588,-0.99,-0.545,
3589,-1.0,-0.54,
3590,-0.995,-0.545,
3591,-1.0,-0.545,
3592,-1.0,-0.535,
3593,-0.99,-0.525,
3594,-0.985,-0.52,
3595,-0.97,-0.52,
3596,-0.955,-0.51,
3597,-0.97,-0.52,
3598,-0.97,-0.515,
3599,-0.97,-0.525,
3600,-0.985,-0.525,
3601,-0.985,-0.55,
3602,-0.98,-0.535,
3603,-0.99,-0.525,
3604,-0.985,-0.52,
3605,-0.985,-0.515,
3606,-0.975,-0.51,
3607,-0.965,-0.49,
3608,-0.965,-0.495,
3609,-0.955,-0.495,
3610,-0.965,-0.515,
3611,-0.965,-0.52,
3612,-0.97,-0.535,
3613,-0.98,-0.55,
3614,-0.975,-0.535,
3615,-0.985,-0.545,
3616,-0.985,-0.535,
3617,-0.975,-0.52,
3618,-0.97,-0.52,
3619,-0.965,-0.505,
3620,-0.95,-0.495,
3621,-0.95,-0.505,
3622,-0.95,-0.51,
3623,-0.96,-0.525,
3624,-0.97,-0.54,
3625,-0.97,-0.54,
3626,-0.98,-0.54,
3627,-0.965,-0.53,
3628,-0.975,-0.53,
3629,-0.965,-0.515,
3630,-0.96,-0.495,
3631,-0.95,-0.485,
3632,-0.95,-0.485,
3633,-0.95,-0.5,
3634,-0.955,-0.495,
3635,-0.95,-0.51,
3636,-0.96,-0.52,
3637,-0.97,-0.525,
3638,-0.965,-0.52,
3639,-0.96,-0.53,
3640,-0.96,-0.515,
3641,-0.955,-0.51,
3642,-0.955,-0.5,
3643,-0.955,-0.515,
3644,-0.95,-0.5,
3645,-0.94,-0.51,
3646,-0.935,-0.5,
3647,-0.945,-0.51,
3648,-0.945,-0.505,
3649,-0.95,-0.51,
3650,-0.96,-0.505,
3651,-0.95,-0.515,
3652,-0.96,-0.52,
3653,-0.955,-0.51,
3654,-0.96,-0.515,
3655,-0.945,-0.505,
3656,-0.93,-0.5,
3657,-0.935,-0.515,
3658,-0.925,-0.52,
3659,-0.93,-0.525,
3660,-0.93,-0.51,
3661,-0.925,-0.53,
3662,-0.93,-0.53,
3663,-0.93,-0.525,
3664,-0.925,-0.52,
3665,-0.925,-0.53,
3666,-0.92,-0.52,
3667,-0.925,-0.505,
3668,-0.915,-0.505,
3669,-0.92,-0.51,
3670,-0.915,-0.5,
3671,-0.89,-0.505,
3672,-0.9,-0.505,
3673,-0.885,-0.52,
3674,-0.895,-0.52,
3675,-0.885,-0.515,
3676,-0.875,-0.51,
3677,-0.875,-0.515,
3678,-0.86,-0.505,
3679,-0.855,-0.5,
3680,-0.865,-0.48,
3681,-0.86,-0.49,
3682,-0.885,-0.5,
3683,-0.885,-0.495,
3684,-0.89,-0.495,
3685,-0.895,-0.49,
3686,-0.9,-0.49,
3687,-0.905,-0.485,
3688,-0.9,-0.475,
3689,-0.895,-0.475,
3690,-0.885,-0.465,
3691,-0.86,-0.45,
3692,-0.85,-0.445,
3693,-0.835,-0.44,
3694,-0.83,-0.445,
3695,-0.835,-0.45,
3696,-0.865,-0.465,
3697,-0.87,-0.47,
3698,-0.885,-0.49,
3699,-0.9,-0.49,
3700,-0.91,-0.49,
3701,-0.93,-0.495,
3702,-0.94,-0.51,
3703,-0.94,-0.505,
3704,-0.935,-0.485,
3705,-0.93,-0.475,
3706,-0.96,-0.49,
3707,-0.96,-0.515,
3708,-0.965,-0.515,
3709,-0.96,-0.525,
3710,-0.97,-0.53,
3711,-0.955,-0.535,
3712,-0.965,-0.525,
3713,-0.95,-0.53,
3714,-0.935,-0.53,
3715,-0.935,-0.535,
3716,-0.945,-0.55,
3717,-0.945,-0.575,
3718,-0.96,-0.565,
3719,-0.95,-0.53,
3720,-0.92,-0.445,
3721,-0.86,-0.335,
3722,-0.78,-0.215,
3723,-0.685,-0.13,
3724,-0.6,-0.095,
3725,-0.535,-0.105,
3726,-0.5,-0.215,
3727,-0.535,-0.435,
3728,-0.64,-0.715,
3729,-0.81,-1.04,
3730,-0.97,-1.285,
3731,-1.07,-1.39,
3732,-1.035,-1.34,
3733,-0.915,-1.17,
3734,-0.705,-0.98,
3735,-0.43,-0.785,
3736,-0.155,-0.615,
3737,0.09,-0.5,
3738,0.33,-0.43,
3739,0.53,-0.415,
3740,0.71,-0.41,
3741,0.85,-0.405,
3742,0.935,-0.425,
3743,0.985,-0.46,
3744,0.98,-0.505,R
3745,0.945,-0.535,
3746,0.86,-0.525,
3747,0.75,-0.51,
3748,0.605,-0.485,
3749,0.405,-0.465,
3750,0.205,-0.43,
3751,0.015,-0.425,
3752,-0.19,-0.42,
3753,-0.4,-0.435,
3754,-0.65,-0.485,
3755,-0.825,-0.525,
3756,-0.985,-0.565,
3757,-1.1,-0.595,
3758,-1.165,-0.595,
3759,-1.19,-0.575,
3760,-1.175,-0.525,
3761,-1.135,-0.48,
3762,-1.095,-0.445,
3763,-1.065,-0.425,
3764,-1.04,-0.4,
3765,-1.02,-0.4,
3766,-1.02,-0.39,
3767,-1.015,-0.38,
3768,-1.015,-0.38,
3769,-1.04,-0.375,
3770,-1.04,-0.38,
3771,-1.05,-0.375,
3772,-1.06,-0.375,
3773,-1.05,-0.355,
3774,-1.025,-0.34,
3775,-1.02,-0.355,
3776,-1.01,-0.35,
3777,-1.005,-0.34,
3778,-1.01,-0.34,
3779,-1.015,-0.345,
3780,-1.03,-0.345,
3781,-1.04,-0.355,
3782,-1.035,-0.335,
3783,-1.04,-0.35,
3784,-1.035,-0.35,
3785,-1.03,-0.35,
3786,-1.03,-0.34,
3787,-1.03,-0.325,
3788,-1.02,-0.32,
3789,-1.005,-0.32,
3790,-1.025,-0.32,
3791,-1.02,-0.33,
3792,-1.03,-0.345,
3793,-1.04,-0.355,
3794,-1.05,-0.35,
3795,-1.055,-0.365,
3796,-1.055,-0.35,
3797,-1.055,-0.335,
3798,-1.045,-0.34,
3799,-1.055,-0.325,
3800,-1.05,-0.325,
3801,-1.045,-0.33,
3802,-1.045,-0.335,
3803,-1.055,-0.345,
3804,-1.06,-0.35,
3805,-1.07,-0.36,
3806,-1.08,-0.36,
3807,-1.075,-0.375,
3808,-1.085,-0.375,
3809,-1.085,-0.375,
3810,-1.08,-0.375,
3811,-1.075,-0.365,
3812,-1.075,-0.375,
3813,-1.07,-0.375,
3814,-1.085,-0.39,
3815,-1.095,-0.405,
3816,-1.125,-0.42,
3817,-1.145,-0.41,
3818,-1.135,-0.435,
3819,-1.135,-0.425,
3820,-1.135,-0.425,
3821,-1.145,-0.43,
3822,-1.145,-0.43,
3823,-1.14,-0.43,
3824,-1.15,-0.435,
3825,-1.14,-0.455,
3826,-1.16,-0.46,
3827,-1.155,-0.47,
3828,-1.165,-0.5,
3829,-1.17,-0.51,
3830,-1.19,-0.515,
3831,-1.195,-0.52,
3832,-1.195,-0.525,
3833,-1.195,-0.525,
3834,-1.2,-0.53,
3835,-1.19,-0.54,
3836,-1.19,-0.535,
3837,-1.2,-0.56,
3838,-1.21,-0.575,
3839,-1.225,-0.59,
3840,-1.215,-0.6,
3841,-1.22,-0.61,
3842,-1.24,-0.625,
3843,-1.235,-0.625,
3844,-1.23,-0.62,
3845,-1.225,-0.62,
3846,-1.22,-0.625,
3847,-1.205,-0.635,
3848,-1.2,-0.645,
3849,-1.185,-0.655,
3850,-1.18,-0.665,
3851,-1.185,-0.675,
3852,-1.18,-0.685,
3853,-1.175,-0.685,
3854,-1.18,-0.705,
3855,-1.175,-0.7,
3856,-1.165,-0.705,
3857,-1.135,-0.715,
3858,-1.13,-0.7,
3859,-1.1,-0.7,
3860,-1.08,-0.705,
3861,-1.05,-0.7,
3862,-1.035,-0.695,
3863,-1.035,-0.705,
3864,-1.02,-0.705,
3865,-1.015,-0.715,
3866,-1.005,-0.7,
3867,-0.98,-0.71,
3868,-0.96,-0.705,
3869,-0.945,-0.675,
3870,-0.935,-0.67,
3871,-0.915,-0.65,
3872,-0.885,-0.65,
3873,-0.875,-0.64,
3874,-0.88,-0.65,
3875,-0.86,-0.645,
3876,-0.865,-0.64,
3877,-0.86,-0.65,
3878,-0.87,-0.645,
3879,-0.875,-0.65,
3880,-0.87,-0.645,
3881,-0.86,-0.635,
3882,-0.86,-0.62,
3883,-0.855,-0.615,
3884,-0.85,-0.605,
3885,-0.845,-0.595,
3886,-0.86,-0.605,
3887,-0.875,-0.62,
3888,-0.885,-0.62,
3889,-0.895,-0.63,
3890,-0.905,-0.625,
3891,-0.92,-0.62,
3892,-0.935,-0.6,
3893,-0.945,-0.61,
3894,-0.945,-0.6,
3895,-0.95,-0.6,
3896,-0.945,-0.575,
3897,-0.945,-0.585,
3898,-0.965,-0.6,
3899,-0.985,-0.605,
3900,-0.995,-0.62,
3901,-0.995,-0.625,
3902,-1.01,-0.625,
3903,-1.02,-0.61,
3904,-1.03,-0.61,
3905,-1.02,-0.61,
3906,-1.01,-0.595,
3907,-1.01,-0.6,
3908,-1.01,-0.59,
3909,-1.005,-0.595,
3910,-0.995,-0.605,
3911,-1.01,-0.615,
3912,-1.015,-0.625,
3913,-1.015,-0.62,
3914,-1.035,-0.62,
3915,-1.025,-0.625,
3916,-1.03,-0.605,
3917,-1.035,-0.595,
3918,-1.03,-0.59,
3919,-1.015,-0.59,
3920,-1.0,-0.575,
3921,-0.995,-0.585,
3922,-1.0,-0.585,
3923,-0.99,-0.6,
3924,-1.005,-0.6,
3925,-1.0,-0.605,
3926,-0.995,-0.61,
3927,-0.995,-0.605,
3928,-1.01,-0.6,
3929,-1.0,-0.585,
3930,-0.975,-0.57,
3931,-0.975,-0.56,
3932,-0.965,-0.56,
3933,-0.96,-0.565,
3934,-0.96,-0.57,
3935,-0.96,-0.575,
3936,-0.97,-0.58,
3937,-0.975,-0.57,
3938,-0.995,-0.575,
3939,-0.975,-0.575,
3940,-0.98,-0.58,
3941,-0.97,-0.55,
3942,-0.965,-0.55,
3943,-0.96,-0.545,
3944,-0.945,-0.535,
3945,-0.945,-0.545,
3946,-0.945,-0.555,
3947,-0.94,-0.55,
3948,-0.955,-0.56,
3949,-0.945,-0.56,
3950,-0.955,-0.57,
3951,-0.965,-0.565,
3952,-0.95,-0.56,
3953,-0.95,-0.555,
3954,-0.94,-0.555,
3955,-0.935,-0.535,
3956,-0.92,-0.535,
3957,-0.915,-0.53,
3958,-0.915,-0.535,
3959,-0.925,-0.535,
3960,-0.93,-0.545,
3961,-0.925,-0.55,
3962,-0.93,-0.575,
3963,-0.935,-0.56,
3964,-0.94,-0.555,
3965,-0.94,-0.55,
3966,-0.935,-0.54,
3967,-0.925,-0.545,
3968,-0.925,-0.54,
3969,-0.92,-0.535,
3970,-0.92,-0.545,
3971,-0.92,-0.545,
3972,-0.925,-0.555,
3973,-0.93,-0.55,
3974,-0.925,-0.555,
3975,-0.935,-0.56,
3976,-0.93,-0.555,
3977,-0.945,-0.545,
3978,-0.94,-0.545,
3979,-0.92,-0.54,
3980,-0.915,-0.525,
3981,-0.925,-0.525,
3982,-0.93,-0.535,
3983,-0.92,-0.545,
3984,-0.93,-0.555,
3985,-0.94,-0.56,
3986,-0.95,-0.57,
3987,-0.94,-0.565,
3988,-0.945,-0.55,
3989,-0.945,-0.545,
3990,-0.93,-0.53,
3991,-0.925,-0.535,
3992,-0.93,-0.525,
3993,-0.9,-0.54,
3994,-0.91,-0.535,
3995,-0.91,-0.545,
3996,-0.915,-0.55,
3997,-0.92,-0.56,
3998,-0.93,-0.55,
3999,-0.925,-0.56,
4000,-0.925,-0.57,
4001,-0.925,-0.545,
4002,-0.925,-0.535,
4003,-0.915,-0.535,
4004,-0.905,-0.53,
4005,-0.895,-0.54,
4006,-0.91,-0.545,
4007,-0.915,-0.555,
4008,-0.915,-0.555,
4009,-0.91,-0.56,
4010,-0.93,-0.555,
4011,-0.935,-0.56,
4012,-0.93,-0.565,
4013,-0.925,-0.555,
4014,-0.93,-0.555,
4015,-0.92,-0.525,
4016,-0.915,-0.53,
4017,-0.905,-0.53,
4018,-0.905,-0.545,
4019,-0.895,-0.56,
4020,-0.9,-0.55,
4021,-0.91,-0.56,
4022,-0.91,-0.555,
4023,-0.91,-0.555,
4024,-0.925,-0.55,
4025,-0.915,-0.54,
4026,-0.905,-0.535,
4027,-0.89,-0.52,
4028,-0.89,-0.525,
4029,-0.88,-0.515,
4030,-0.89,-0.535,
4031,-0.89,-0.535,
4032,-0.9,-0.525,
4033,-0.905,-0.54,
4034,-0.915,-0.545,
4035,-0.91,-0.545,
4036,-0.92,-0.545,
4037,-0.89,-0.525,
4038,-0.895,-0.525,
4039,-0.9,-0.52,
4040,-0.895,-0.515,
4041,-0.88,-0.515,
4042,-0.88,-0.51,
4043,-0.89,-0.535,
4044,-0.9,-0.525,
4045,-0.915,-0.54,
4046,-0.91,-0.54,
4047,-0.91,-0.54,
4048,-0.91,-0.535,
4049,-0.91,-0.53,
4050,-0.9,-0.52,
4051,-0.895,-0.51,
4052,-0.895,-0.505,
4053,-0.895,-0.51,
4054,-0.88,-0.51,
4055,-0.885,-0.515,
4056,-0.885,-0.535,
4057,-0.89,-0.535,
4058,-0.895,-0.545,
4059,-0.895,-0.54,
4060,-0.9,-0.535,
4061,-0.905,-0.52,
4062,-0.895,-0.52,
4063,-0.885,-0.51,
4064,-0.88,-0.505,
4065,-0.87,-0.505,
4066,-0.875,-0.52,
4067,-0.88,-0.525,
4068,-0.875,-0.53,
4069,-0.89,-0.54,
4070,-0.885,-0.54,
4071,-0.89,-0.535,
4072,-0.905,-0.53,
4073,-0.9,-0.535,
4074,-0.89,-0.52,
4075,-0.89,-0.51,
4076,-0.88,-0.51,
4077,-0.865,-0.515,
4078,-0.865,-0.525,
4079,-0.86,-0.53,
4080,-0.855,-0.535,
4081,-0.86,-0.54,
4082,-0.875,-0.545,
4083,-0.885,-0.54,
4084,-0.88,-0.545,
4085,-0.87,-0.525,
4086,-0.86,-0.5,
4087,-0.855,-0.49,
4088,-0.84,-0.485,
4089,-0.83,-0.505,
4090,-0.815,-0.505,
4091,-0.805,-0.505,
4092,-0.81,-0.51,
4093,-0.815,-0.505,
4094,-0.83,-0.525,
4095,-0.835,-0.53,
4096,-0.84,-0.515,
4097,-0.85,-0.5,
4098,-0.85,-0.505,
4099,-0.855,-0.485,
4100,-0.85,-0.485,
4101,-0.845,-0.48,
4102,-0.83,-0.48,
4103,-0.84,-0.485,
4104,-0.84,-0.475,
4105,-0.825,-0.47,
4106,-0.825,-0.455,
4107,-0.805,-0.45,
4108,-0.805,-0.46,
4109,-0.8,-0.455,
4110,-0.8,-0.455,
4111,-0.81,-0.465,
4112,-0.805,-0.46,
4113,-0.81,-0.475,
4114,-0.83,-0.49,
4115,-0.85,-0.51,
4116,-0.87,-0.51,
4117,-0.9,-0.52,
4118,-0.89,-0.52,
4119,-0.915,-0.52,
4120,-0.92,-0.51,
4121,-0.91,-0.525,
4122,-0.895,-0.51,
4123,-0.89,-0.5,
4124,-0.89,-0.495,
4125,-0.885,-0.505,
4126,-0.88,-0.515,
4127,-0.88,-0.53,
4128,-0.9,-0.56,
4129,-0.91,-0.58,
4130,-0.93,-0.6,
4131,-0.925,-0.59,
4132,-0.91,-0.535,
4133,-0.865,-0.445,
4134,-0.79,-0.325,
4135,-0.705,-0.2,
4136,-0.61,-0.12,
4137,-0.53,-0.12,
4138,-0.475,-0.165,
4139,-0.475,-0.295,
4140,-0.53,-0.545,
4141,-0.63,-0.82,
4142,-0.765,-1.1,
4143,-0.885,-1.255,
4144,-0.925,-1.27,
4145,-0.835,-1.12,
4146,-0.64,-0.88,
4147,-0.355,-0.62,
4148,-0.04,-0.375,
4149,0.27,-0.215,
4150,0.58,-0.105,
4151,0.855,-0.065,
4152,1.1,-0.05,
4153,1.27,-0.075,
4154,1.38,-0.13,
4155,1.395,-0.235,
4156,1.355,-0.33,R
4157,1.26,-0.395,
4158,1.115,-0.45,
4159,0.925,-0.48,
4160,0.7,-0.495,
4161,0.46,-0.475,
4162,0.21,-0.46,
4163,-0.03,-0.435,
4164,-0.25,-0.435,
4165,-0.495,-0.46,
4166,-0.715,-0.505,
4167,-0.895,-0.55,
4168,-1.04,-0.59,
4169,-1.13,-0.585,
4170,-1.165,-0.58,
4171,-1.145,-0.545,
4172,-1.135,-0.505,
4173,-1.115,-0.48,
4174,-1.08,-0.455,
4175,-1.075,-0.43,
4176,-1.04,-0.42,
4177,-1.04,-0.405,
4178,-1.02,-0.385,
4179,-1.035,-0.365,
4180,-1.025,-0.365,
4181,-1.015,-0.35,
4182,-1.01,-0.355,
4183,-1.015,-0.34,
4184,-1.005,-0.325,
4185,-1.01,-0.33,
4186,-1.0,-0.335,
4187,-1.0,-0.345,
4188,-1.02,-0.33,
4189,-1.015,-0.33,
4190,-1.025,-0.345,
4191,-1.03,-0.345,
4192,-1.03,-0.335,
4193,-1.035,-0.32,
4194,-1.03,-0.325,
4195,-1.01,-0.31,
4196,-1.005,-0.32,
4197,-1.0,-0.305,
4198,-1.005,-0.315,
4199,-1.015,-0.3,
4200,-1.015,-0.32,
4201,-1.02,-0.315,
4202,-1.03,-0.32,
4203,-1.04,-0.315,
4204,-1.03,-0.31,
4205,-1.03,-0.315,
4206,-1.02,-0.305,
4207,-1.02,-0.305,
4208,-1.02,-0.295,
4209,-1.015,-0.295,
4210,-1.015,-0.295,
4211,-1.03,-0.305,
4212,-1.03,-0.315,
4213,-1.04,-0.32,
4214,-1.045,-0.33,
4215,-1.045,-0.33,
4216,-1.045,-0.32,
4217,-1.055,-0.32,
4218,-1.05,-0.31,
4219,-1.05,-0.31,
4220,-1.05,-0.32,
4221,-1.03,-0.31,
4222,-1.05,-0.31,
4223,-1.045,-0.32,
4224,-1.06,-0.32,
4225,-1.07,-0.335,
4226,-1.07,-0.345,
4227,-1.085,-0.35,
4228,-1.09,-0.355,
4229,-1.095,-0.345,
4230,-1.095,-0.34,
4231,-1.095,-0.345,
4232,-1.09,-0.34,
4233,-1.09,-0.345,
4234,-1.1,-0.355,
4235,-1.105,-0.36,
4236,-1.125,-0.385,
4237,-1.13,-0.395,
4238,-1.145,-0.4,
4239,-1.145,-0.415,
4240,-1.14,-0.4,
4241,-1.14,-0.415,
4242,-1.135,-0.41,
4243,-1.13,-0.41,
4244,-1.12,-0.405,
4245,-1.13,-0.43,
4246,-1.125,-0.44,
4247,-1.135,-0.455,
4248,-1.16,-0.485,
4249,-1.165,-0.495,
4250,-1.17,-0.505,
4251,-1.18,-0.5,
4252,-1.175,-0.5,
4253,-1.17,-0.495,
4254,-1.155,-0.495,
4255,-1.16,-0.485,
4256,-1.145,-0.49,
4257,-1.16,-0.485,
4258,-1.15,-0.5,
4259,-1.155,-0.515,
4260,-1.17,-0.525,
4261,-1.175,-0.54,
4262,-1.175,-0.545,
4263,-1.185,-0.555,
4264,-1.175,-0.545,
4265,-1.155,-0.535,
4266,-1.15,-0.525,
4267,-1.13,-0.535,
4268,-1.115,-0.53,
4269,-1.095,-0.535,
4270,-1.1,-0.535,
4271,-1.09,-0.535,
4272,-1.08,-0.55,
4273,-1.07,-0.57,
4274,-1.065,-0.56,
4275,-1.055,-0.555,
4276,-1.04,-0.545,
4277,-1.03,-0.55,
4278,-1.01,-0.52,
4279,-0.985,-0.515,
4280,-0.955,-0.51,
4281,-0.94,-0.515,
4282,-0.94,-0.515,
4283,-0.915,-0.52,
4284,-0.905,-0.525,
4285,-0.905,-0.54,
4286,-0.895,-0.55,
4287,-0.885,-0.525,
4288,-0.885,-0.525,
4289,-0.86,-0.5,
4290,-0.85,-0.505,
4291,-0.835,-0.485,
4292,-0.82,-0.485,
4293,-0.8,-0.485,
4294,-0.785,-0.485,
4295,-0.785,-0.505,
4296,-0.795,-0.52,
4297,-0.795,-0.515,
4298,-0.8,-0.525,
4299,-0.815,-0.53,
4300,-0.805,-0.52,
4301,-0.815,-0.51,
4302,-0.815,-0.505,
4303,-0.815,-0.51,
4304,-0.82,-0.495,
4305,-0.815,-0.505,
4306,-0.835,-0.515,
4307,-0.845,-0.52,
4308,-0.86,-0.535,
4309,-0.865,-0.54,
4310,-0.91,-0.56,
4311,-0.93,-0.56,
4312,-0.935,-0.555,
4313,-0.935,-0.565,
4314,-0.93,-0.54,
4315,-0.94,-0.55,
4316,-0.93,-0.555,
4317,-0.94,-0.56,
4318,-0.945,-0.565,
4319,-0.955,-0.57,
4320,-0.965,-0.57,
4321,-0.98,-0.575,
4322,-0.995,-0.58,
4323,-1.01,-0.585,
4324,-1.01,-0.575,
4325,-1.005,-0.57,
4326,-1.005,-0.57,
4327,-1.0,-0.555,
4328,-0.995,-0.54,
4329,-0.99,-0.53,
4330,-0.99,-0.545,
4331,-0.995,-0.545,
4332,-1.005,-0.55,
4333,-1.01,-0.565,
4334,-1.01,-0.56,
4335,-1.015,-0.56,
4336,-1.015,-0.555,
4337,-1.02,-0.545,
4338,-1.01,-0.54,
4339,-1.005,-0.53,
4340,-1.005,-0.53,
4341,-0.98,-0.505,
4342,-0.97,-0.51,
4343,-0.97,-0.52,
4344,-0.975,-0.51,
4345,-0.975,-0.51,
4346,-0.98,-0.515,
4347,-0.975,-0.515,
4348,-0.975,-0.515,
4349,-0.98,-0.51,
4350,-0.96,-0.515,
4351,-0.95,-0.5,
4352,-0.94,-0.51,
4353,-0.935,-0.5,
4354,-0.935,-0.495,
4355,-0.925,-0.49,
4356,-0.93,-0.515,
4357,-0.925,-0.5,
4358,-0.925,-0.5,
4359,-0.935,-0.5,
4360,-0.93,-0.49,
4361,-0.94,-0.49,
4362,-0.915,-0.485,
4363,-0.925,-0.48,
4364,-0.93,-0.475,
4365,-0.91,-0.465,
4366,-0.91,-0.47,
4367,-0.9,-0.475,
4368,-0.895,-0.48,
4369,-0.905,-0.48,
4370,-0.915,-0.505,
4371,-0.92,-0.49,
4372,-0.925,-0.485,
4373,-0.9,-0.47,
4374,-0.895,-0.465,
4375,-0.89,-0.455,
4376,-0.89,-0.45,
4377,-0.88,-0.45,
4378,-0.9,-0.445,
4379,-0.89,-0.47,
4380,-0.9,-0.475,
4381,-0.905,-0.485,
4382,-0.885,-0.475,
4383,-0.895,-0.47,
4384,-0.895,-0.475,
4385,-0.89,-0.47,
4386,-0.885,-0.455,
4387,-0.885,-0.45,
4388,-0.88,-0.43,
4389,-0.88,-0.43,
4390,-0.86,-0.455,
4391,-0.865,-0.455,
4392,-0.875,-0.46,
4393,-0.88,-0.475,
4394,-0.89,-0.48,
4395,-0.885,-0.465,
4396,-0.885,-0.455,
4397,-0.87,-0.445,
4398,-0.87,-0.435,
4399,-0.865,-0.435,
4400,-0.86,-0.42,
4401,-0.86,-0.425,
4402,-0.855,-0.435,
4403,-0.87,-0.45,
4404,-0.88,-0.45,
4405,-0.88,-0.455,
4406,-0.88,-0.45,
4407,-0.885,-0.455,
4408,-0.895,-0.455,
4409,-0.88,-0.45,
4410,-0.88,-0.44,
4411,-0.86,-0.435,
4412,-0.855,-0.425,
4413,-0.85,-0.44,
4414,-0.86,-0.435,
4415,-0.85,-0.455,
4416,-0.86,-0.46,
4417,-0.87,-0.455,
4418,-0.865,-0.46,
4419,-0.87,-0.465,
4420,-0.87,-0.46,
4421,-0.87,-0.455,
4422,-0.855,-0.455,
4423,-0.855,-0.44,
4424,-0.85,-0.43,
4425,-0.84,-0.44,
4426,-0.85,-0.455,
4427,-0.855,-0.46,
4428,-0.855,-0.47,
4429,-0.855,-0.47,
4430,-0.875,-0.47,
4431,-0.86,-0.465,
4432,-0.865,-0.46,
4433,-0.85,-0.445,
4434,-0.845,-0.445,
4435,-0.845,-0.435,
4436,-0.845,-0.45,
4437,-0.825,-0.455,
4438,-0.84,-0.445,
4439,-0.835,-0.45,
4440,-0.84,-0.45,
4441,-0.835,-0.445,
4442,-0.84,-0.46,
4443,-0.845,-0.45,
4444,-0.85,-0.445,
4445,-0.85,-0.435,
4446,-0.84,-0.425,
4447,-0.835,-0.415,
4448,-0.83,-0.415,
4449,-0.825,-0.425,
4450,-0.83,-0.425,
4451,-0.835,-0.44,
4452,-0.835,-0.445,
4453,-0.865,-0.45,
4454,-0.85,-0.455,
4455,-0.855,-0.445,
4456,-0.855,-0.44,
4457,-0.855,-0.445,
4458,-0.84,-0.425,
4459,-0.835,-0.435,
4460,-0.83,-0.41,
4461,-0.815,-0.42,
4462,-0.825,-0.43,
4463,-0.825,-0.43,
4464,-0.825,-0.445,
4465,-0.82,-0.455,
4466,-0.835,-0.455,
4467,-0.84,-0.46,
4468,-0.83,-0.455,
4469,-0.835,-0.44,
4470,-0.82,-0.425,
4471,-0.82,-0.41,
4472,-0.81,-0.4,
4473,-0.8,-0.4,
4474,-0.8,-0.41,
4475,-0.805,-0.425,
4476,-0.81,-0.44,
4477,-0.82,-0.44,
4478,-0.825,-0.445,
4479,-0.83,-0.44,
4480,-0.825,-0.44,
4481,-0.825,-0.425,
4482,-0.825,-0.42,
4483,-0.825,-0.405,
4484,-0.81,-0.41,
4485,-0.805,-0.42,
4486,-0.805,-0.42,
4487,-0.805,-0.43,
4488,-0.82,-0.425,
4489,-0.82,-0.425,
4490,-0.82,-0.43,
4491,-0.81,-0.435,
4492,-0.815,-0.43,
4493,-0.81,-0.415,
4494,-0.82,-0.405,
4495,-0.805,-0.415,
4496,-0.8,-0.41,
4497,-0.8,-0.41,
4498,-0.8,-0.42,
4499,-0.795,-0.435,
4500,-0.805,-0.435,
4501,-0.805,-0.435,
4502,-0.81,-0.435,
4503,-0.815,-0.435,
4504,-0.805,-0.425,
4505,-0.81,-0.41,
4506,-0.81,-0.41,
4507,-0.795,-0.4,
4508,-0.785,-0.395,
4509,-0.785,-0.4,
4510,-0.78,-0.41,
4511,-0.78,-0.42,
4512,-0.785,-0.43,
4513,-0.785,-0.435,
4514,-0.79,-0.45,
4515,-0.78,-0.43,
4516,-0.795,-0.445,
4517,-0.79,-0.43,
4518,-0.785,-0.44,
4519,-0.78,-0.43,
4520,-0.77,-0.42,
4521,-0.745,-0.41,
4522,-0.74,-0.41,
4523,-0.74,-0.43,
4524,-0.745,-0.425,
4525,-0.745,-0.445,
4526,-0.735,-0.435,
4527,-0.74,-0.44,
4528,-0.735,-0.44,
4529,-0.745,-0.425,
4530,-0.745,-0.425,
4531,-0.745,-0.42,
4532,-0.735,-0.41,
4533,-0.735,-0.405,
4534,-0.745,-0.405,
4535,-0.745,-0.395,
4536,-0.75,-0.405,
4537,-0.745,-0.405,
4538,-0.755,-0.41,
4539,-0.765,-0.405,
4540,-0.73,-0.405,
4541,-0.72,-0.38,
4542,-0.71,-0.37,
4543,-0.705,-0.38,
4544,-0.715,-0.375,
4545,-0.715,-0.36,
4546,-0.725,-0.375,
4547,-0.74,-0.38,
4548,-0.755,-0.41,
4549,-0.775,-0.425,
4550,-0.785,-0.455,
4551,-0.8,-0.455,
4552,-0.81,-0.455,
4553,-0.815,-0.445,
4554,-0.815,-0.435,
4555,-0.815,-0.43,
4556,-0.805,-0.42,
4557,-0.795,-0.425,
4558,-0.795,-0.42,
4559,-0.795,-0.435,
4560,-0.8,-0.445,
4561,-0.81,-0.455,
4562,-0.82,-0.445,
4563,-0.83,-0.455,
4564,-0.815,-0.45,
4565,-0.82,-0.465,
4566,-0.82,-0.47,
4567,-0.835,-0.475,
4568,-0.815,-0.44,
4569,-0.785,-0.365,
4570,-0.72,-0.275,
4571,-0.65,-0.17,
4572,-0.56,-0.07,
4573,-0.485,-0.04,
4574,-0.43,-0.055,
4575,-0.4,-0.115,
4576,-0.41,-0.245,
4577,-0.47,-0.47,
4578,-0.585,-0.765,
4579,-0.73,-1.03,
4580,-0.87,-1.225,
4581,-0.94,-1.29,
4582,-0.88,-1.23,
4583,-0.74,-1.075,
4584,-0.535,-0.885,
4585,-0.295,-0.71,
4586,-0.04,-0.555,
4587,0.2,-0.44,
4588,0.43,-0.37,
4589,0.645,-0.345,
4590,0.835,-0.315,
4591,0.99,-0.305,
4592,1.1,-0.32,
4593,1.15,-0.37,
4594,1.14,-0.395,R
4595,1.085,-0.43,
4596,0.985,-0.42,
4597,0.845,-0.405,
4598,0.655,-0.39,
4599,0.46,-0.37,
4600,0.26,-0.35,
4601,0.065,-0.345,
4602,-0.14,-0.345,
4603,-0.365,-0.37,
4604,-0.565,-0.405,
4605,-0.735,-0.46,
4606,-0.89,-0.49,
4607,-0.975,-0.5,
4608,-1.02,-0.505,
4609,-1.035,-0.48,
4610,-1.025,-0.445,
4611,-0.985,-0.4,
4612,-0.96,-0.385,
4613,-0.93,-0.355,
4614,-0.905,-0.32,
4615,-0.9,-0.305,
4616,-0.875,-0.285,
4617,-0.855,-0.28,
4618,-0.87,-0.275,
4619,-0.865,-0.28,
4620,-0.875,-0.285,
4621,-0.875,-0.29,
4622,-0.89,-0.3,
4623,-0.89,-0.295,
4624,-0.89,-0.285,
4625,-0.895,-0.29,
4626,-0.895,-0.265,
4627,-0.88,-0.265,
4628,-0.875,-0.26,
4629,-0.86,-0.265,
4630,-0.865,-0.26,
4631,-0.885,-0.27,
4632,-0.875,-0.265,
4633,-0.895,-0.26,
4634,-0.905,-0.265,
4635,-0.91,-0.275,
4636,-0.915,-0.26,
4637,-0.915,-0.26,
4638,-0.895,-0.25,
4639,-0.89,-0.245,
4640,-0.88,-0.245,
4641,-0.875,-0.24,
4642,-0.87,-0.25,
4643,-0.87,-0.24,
4644,-0.875,-0.26,
4645,-0.895,-0.27,
4646,-0.895,-0.265,
4647,-0.905,-0.27,
4648,-0.91,-0.275,
4649,-0.91,-0.28,
4650,-0.9,-0.245,
4651,-0.915,-0.245,
4652,-0.905,-0.245,
4653,-0.9,-0.245,
4654,-0.915,-0.26,
4655,-0.91,-0.26,
4656,-0.915,-0.265,
4657,-0.925,-0.27,
4658,-0.94,-0.29,
4659,-0.96,-0.285,
4660,-0.955,-0.295,
4661,-0.945,-0.295,
4662,-0.94,-0.28,
4663,-0.94,-0.29,
4664,-0.93,-0.275,
4665,-0.935,-0.275,
4666,-0.945,-0.29,
4667,-0.95,-0.295,
4668,-0.965,-0.295,
4669,-0.97,-0.32,
4670,-0.98,-0.32,
4671,-0.99,-0.325,
4672,-0.985,-0.33,
4673,-0.99,-0.315,
4674,-0.995,-0.325,
4675,-0.995,-0.33,
4676,-0.99,-0.335,
4677,-0.99,-0.34,
4678,-0.995,-0.34,
4679,-1.005,-0.36,
4680,-1.01,-0.39,
4681,-1.02,-0.395,
4682,-1.035,-0.425,
4683,-1.055,-0.425,
4684,-1.05,-0.43,
4685,-1.065,-0.425,
4686,-1.06,-0.435,
4687,-1.045,-0.43,
4688,-1.055,-0.44,
4689,-1.05,-0.455,
4690,-1.065,-0.475,
4691,-1.065,-0.48,
4692,-1.075,-0.5,
4693,-1.09,-0.515,
4694,-1.075,-0.535,
4695,-1.085,-0.54,
4696,-1.08,-0.545,
4697,-1.085,-0.535,
4698,-1.075,-0.54,
4699,-1.08,-0.545,
4700,-1.065,-0.55,
4701,-1.045,-0.56,
4702,-1.04,-0.58,
4703,-1.045,-0.575,
4704,-1.04,-0.595,
4705,-1.035,-0.61,
4706,-1.04,-0.615,
4707,-1.035,-0.62,
4708,-1.025,-0.62,
4709,-1.0,-0.61,
4710,-1.005,-0.62,
4711,-0.975,-0.61,
4712,-0.95,-0.605,
4713,-0.935,-0.605,
4714,-0.915,-0.605,
4715,-0.92,-0.615,
4716,-0.885,-0.615,
4717,-0.875,-0.615,
4718,-0.88,-0.61,
4719,-0.865,-0.61,
4720,-0.84,-0.605,
4721,-0.83,-0.595,
4722,-0.8,-0.59,
4723,-0.78,-0.595,
4724,-0.755,-0.57,
4725,-0.74,-0.57,
4726,-0.72,-0.585,
4727,-0.71,-0.57,
4728,-0.71,-0.58,
4729,-0.71,-0.565,
4730,-0.715,-0.575,
4731,-0.71,-0.575,
4732,-0.705,-0.565,
4733,-0.695,-0.55,
4734,-0.7,-0.535,
4735,-0.705,-0.545,
4736,-0.695,-0.535,
4737,-0.69,-0.52,
4738,-0.705,-0.52,
4739,-0.71,-0.52,
4740,-0.73,-0.535,
4741,-0.75,-0.535,
4742,-0.765,-0.545,
4743,-0.785,-0.54,
4744,-0.79,-0.535,
4745,-0.795,-0.535,
4746,-0.815,-0.525,
4747,-0.81,-0.52,
4748,-0.82,-0.51,
4749,-0.81,-0.505,
4750,-0.835,-0.51,
4751,-0.84,-0.53,
4752,-0.86,-0.525,
4753,-0.865,-0.56,
4754,-0.88,-0.56,
4755,-0.89,-0.555,
4756,-0.9,-0.55,
4757,-0.9,-0.535,
4758,-0.895,-0.515,
4759,-0.885,-0.515,
4760,-0.88,-0.5,
4761,-0.88,-0.51,
4762,-0.885,-0.52,
4763,-0.875,-0.53,
4764,-0.885,-0.535,
4765,-0.89,-0.53,
4766,-0.895,-0.54,
4767,-0.89,-0.535,
4768,-0.895,-0.525,
4769,-0.9,-0.515,
4770,-0.89,-0.52,
4771,-0.86,-0.51,
4772,-0.85,-0.505,
4773,-0.835,-0.515,
4774,-0.84,-0.495,
4775,-0.845,-0.51,
4776,-0.855,-0.515,
4777,-0.86,-0.525,
4778,-0.875,-0.525,
4779,-0.865,-0.52,
4780,-0.86,-0.51,
4781,-0.855,-0.505,
4782,-0.845,-0.51,
4783,-0.835,-0.48,
4784,-0.83,-0.485,
4785,-0.81,-0.485,
4786,-0.81,-0.485,
4787,-0.815,-0.5,
4788,-0.815,-0.495,
4789,-0.82,-0.5,
4790,-0.83,-0.505,
4791,-0.835,-0.51,
4792,-0.835,-0.5,
4793,-0.83,-0.495,
4794,-0.835,-0.49,
4795,-0.82,-0.475,
4796,-0.815,-0.465,
4797,-0.795,-0.455,
4798,-0.795,-0.465,
4799,-0.8,-0.465,
4800,-0.8,-0.475,
4801,-0.805,-0.485,
4802,-0.82,-0.5,
4803,-0.82,-0.5,
4804,-0.82,-0.485,
4805,-0.82,-0.495,
4806,-0.83,-0.48,
4807,-0.815,-0.475,
4808,-0.81,-0.465,
4809,-0.8,-0.46,
4810,-0.79,-0.455,
4811,-0.8,-0.47,
4812,-0.8,-0.465,
4813,-0.81,-0.47,
4814,-0.81,-0.48,
4815,-0.82,-0.49,
4816,-0.815,-0.475,
4817,-0.82,-0.475,
4818,-0.805,-0.47,
4819,-0.8,-0.475,
4820,-0.795,-0.455,
4821,-0.8,-0.46,
4822,-0.785,-0.465,
4823,-0.795,-0.47,
4824,-0.795,-0.485,
4825,-0.795,-0.485,
4826,-0.805,-0.495,
4827,-0.805,-0.48,
4828,-0.815,-0.475,
4829,-0.81,-0.475,
4830,-0.805,-0.47,
4831,-0.8,-0.47,
4832,-0.79,-0.455,
4833,-0.79,-0.465,
4834,-0.795,-0.45,
4835,-0.795,-0.46,
4836,-0.8,-0.46,
4837,-0.8,-0.47,
4838,-0.805,-0.48,
4839,-0.81,-0.48,
4840,-0.815,-0.475,
4841,-0.81,-0.475,
4842,-0.795,-0.455,
4843,-0.79,-0.45,
4844,-0.78,-0.435,
4845,-0.77,-0.435,
4846,-0.775,-0.455,
4847,-0.79,-0.465,
4848,-0.795,-0.46,
4849,-0.805,-0.485,
4850,-0.805,-0.49,
4851,-0.8,-0.48,
4852,-0.805,-0.465,
4853,-0.81,-0.465,
4854,-0.8,-0.455,
4855,-0.795,-0.45,
4856,-0.78,-0.435,
4857,-0.78,-0.445,
4858,-0.775,-0.45,
4859,-0.775,-0.455,
4860,-0.795,-0.47,
4861,-0.805,-0.47,
4862,-0.81,-0.48,
4863,-0.8,-0.48,
4864,-0.81,-0.475,
4865,-0.8,-0.465,
4866,-0.79,-0.455,
4867,-0.785,-0.445,
4868,-0.785,-0.435,
4869,-0.79,-0.435,
4870,-0.775,-0.445,
4871,-0.78,-0.445,
4872,-0.78,-0.46,
4873,-0.8,-0.48,
4874,-0.8,-0.495,
4875,-0.8,-0.485,
4876,-0.815,-0.48,
4877,-0.81,-0.465,
4878,-0.805,-0.465,
4879,-0.8,-0.46,
4880,-0.795,-0.455,
4881,-0.775,-0.445,
4882,-0.775,-0.46,
4883,-0.785,-0.455,
4884,-0.79,-0.47,
4885,-0.795,-0.475,
4886,-0.81,-0.48,
4887,-0.81,-0.485,
4888,-0.805,-0.48,
4889,-0.795,-0.455,
4890,-0.805,-0.455,
4891,-0.79,-0.465,
4892,-0.785,-0.47,
4893,-0.78,-0.46,
4894,-0.78,-0.465,
4895,-0.78,-0.465,
4896,-0.8,-0.475,
4897,-0.8,-0.485,
4898,-0.805,-0.49,
4899,-0.79,-0.485,
4900,-0.805,-0.48,
4901,-0.795,-0.465,
4902,-0.795,-0.465,
4903,-0.79,-0.47,
4904,-0.785,-0.46,
4905,-0.765,-0.475,
4906,-0.775,-0.465,
4907,-0.775,-0.475,
4908,-0.785,-0.48,
4909,-0.785,-0.49,
4910,-0.795,-0.495,
4911,-0.79,-0.485,
4912,-0.805,-0.475,
4913,-0.8,-0.48,
4914,-0.79,-0.47,
4915,-0.79,-0.46,
4916,-0.78,-0.45,
4917,-0.775,-0.455,
4918,-0.78,-0.465,
4919,-0.77,-0.465,
4920,-0.77,-0.46,
4921,-0.785,-0.47,
4922,-0.79,-0.475,
4923,-0.795,-0.47,
4924,-0.8,-0.48,
4925,-0.8,-0.465,
4926,-0.785,-0.455,
4927,-0.785,-0.455,
4928,-0.77,-0.46,
4929,-0.755,-0.45,
4930,-0.76,-0.445,
4931,-0.76,-0.455,
4932,-0.755,-0.46,
4933,-0.785,-0.465,
4934,-0.79,-0.465,
4935,-0.78,-0.475,
4936,-0.775,-0.47,
4937,-0.775,-0.465,
4938,-0.77,-0.45,
4939,-0.78,-0.455,
4940,-0.76,-0.46,
4941,-0.745,-0.46,
4942,-0.74,-0.46,
4943,-0.75,-0.46,
4944,-0.75,-0.475,
4945,-0.75,-0.475,
4946,-0.74,-0.465,
4947,-0.73,-0.47,
4948,-0.745,-0.46,
4949,-0.735,-0.46,
4950,-0.71,-0.45,
4951,-0.705,-0.445,
4952,-0.7,-0.435,
4953,-0.7,-0.435,
4954,-0.7,-0.445,
4955,-0.71,-0.46,
4956,-0.73,-0.455,
4957,-0.745,-0.46,
4958,-0.755,-0.485,
4959,-0.75,-0.47,
4960,-0.75,-0.465,
4961,-0.76,-0.46,
4962,-0.755,-0.44,
4963,-0.73,-0.415,
4964,-0.705,-0.405,
4965,-0.685,-0.395,
4966,-0.685,-0.405,
4967,-0.675,-0.41,
4968,-0.695,-0.43,
4969,-0.71,-0.445,
4970,-0.735,-0.465,
4971,-0.74,-0.455,
4972,-0.76,-0.47,
4973,-0.76,-0.455,
4974,-0.78,-0.465,
4975,-0.785,-0.465,
4976,-0.78,-0.45,
4977,-0.785,-0.465,
4978,-0.78,-0.46,
4979,-0.785,-0.465,
4980,-0.79,-0.49,
4981,-0.79,-0.505,
4982,-0.805,-0.5,
4983,-0.795,-0.49,
4984,-0.8,-0.495,
4985,-0.795,-0.495,
4986,-0.795,-0.48,
4987,-0.79,-0.495,
4988,-0.785,-0.52,
4989,-0.79,-0.53,
4990,-0.79,-0.54,
4991,-0.79,-0.53,
4992,-0.76,-0.455,
4993,-0.71,-0.36,
4994,-0.65,-0.255,
4995,-0.575,-0.17,
4996,-0.49,-0.12,
4997,-0.44,-0.14,
4998,-0.4,-0.205,
4999,-0.42,-0.395,
5000,-0.49,-0.645,
5001,-0.6,-0.925,
5002,-0.72,-1.145,
5003,-0.785,-1.235,
5004,-0.775,-1.185,
5005,-0.635,-1.02,
5006,-0.43,-0.81,
5007,-0.185,-0.58,
5008,0.085,-0.38,
5009,0.355,-0.22,
5010,0.6,-0.125,
5011,0.835,-0.07,
5012,1.04,-0.045,
5013,1.215,-0.045,
5014,1.34,-0.055,
5015,1.405,-0.125,
5016,1.42,-0.2,R
5017,1.37,-0.305,
5018,1.285,-0.39,
5019,1.165,-0.435,
5020,1.005,-0.47,
5021,0.815,-0.48,
5022,0.61,-0.475,
5023,0.395,-0.45,
5024,0.18,-0.405,
5025,-0.02,-0.39,
5026,-0.25,-0.405,
5027,-0.48,-0.445,
5028,-0.7,-0.49,
5029,-0.885,-0.555,
5030,-1.015,-0.585,
5031,-1.075,-0.58,
5032,-1.095,-0.55,
5033,-1.07,-0.52,
5034,-1.04,-0.47,
5035,-1.005,-0.42,
5036,-0.985,-0.39,
5037,-0.94,-0.37,
5038,-0.925,-0.355,
5039,-0.92,-0.355,
5040,-0.915,-0.36,
5041,-0.93,-0.35,
5042,-0.95,-0.36,
5043,-0.945,-0.345,
5044,-0.955,-0.355,
5045,-0.945,-0.34,
5046,-0.95,-0.34,
5047,-0.935,-0.325,
5048,-0.94,-0.315,
5049,-0.935,-0.31,
5050,-0.935,-0.305,
5051,-0.935,-0.305,
5052,-0.935,-0.325,
5053,-0.945,-0.325,
5054,-0.955,-0.335,
5055,-0.96,-0.34,
5056,-0.955,-0.32,
5057,-0.97,-0.33,
5058,-0.97,-0.31,
5059,-0.965,-0.31,
5060,-0.96,-0.31,
5061,-0.955,-0.32,
5062,-0.945,-0.32,
5063,-0.965,-0.325,
5064,-0.97,-0.34,
5065,-0.98,-0.345,
5066,-0.985,-0.35,
5067,-0.985,-0.35,
5068,-0.99,-0.35,
5069,-0.995,-0.34,
5070,-0.985,-0.335,
5071,-0.99,-0.32,
5072,-0.98,-0.325,
5073,-0.98,-0.325,
5074,-0.985,-0.33,
5075,-0.985,-0.335,
5076,-0.98,-0.365,
5077,-1.0,-0.365,
5078,-1.01,-0.375,
5079,-1.02,-0.385,
5080,-1.02,-0.365,
5081,-1.025,-0.36,
5082,-1.025,-0.36,
5083,-1.005,-0.35,
5084,-1.02,-0.35,
5085,-1.015,-0.355,
5086,-1.01,-0.375,
5087,-1.015,-0.375,
5088,-1.025,-0.4,
5089,-1.03,-0.41,
5090,-1.045,-0.41,
5091,-1.055,-0.41,
5092,-1.055,-0.415,
5093,-1.06,-0.42,
5094,-1.065,-0.4,
5095,-1.065,-0.415,
5096,-1.075,-0.41,
5097,-1.07,-0.41,
5098,-1.07,-0.425,
5099,-1.075,-0.455,
5100,-1.085,-0.465,
5101,-1.095,-0.48,
5102,-1.115,-0.495,
5103,-1.115,-0.5,
5104,-1.125,-0.5,
5105,-1.125,-0.505,
5106,-1.125,-0.505,
5107,-1.125,-0.5,
5108,-1.125,-0.505,
5109,-1.125,-0.51,
5110,-1.105,-0.52,
5111,-1.105,-0.53,
5112,-1.115,-0.545,
5113,-1.12,-0.565,
5114,-1.12,-0.575,
5115,-1.13,-0.58,
5116,-1.13,-0.575,
5117,-1.11,-0.565,
5118,-1.105,-0.565,
5119,-1.095,-0.56,
5120,-1.08,-0.56,
5121,-1.055,-0.56,
5122,-1.05,-0.55,
5123,-1.055,-0.555,
5124,-1.035,-0.565,
5125,-1.035,-0.57,
5126,-1.02,-0.575,
5127,-1.005,-0.575,
5128,-1.0,-0.565,
5129,-0.98,-0.56,
5130,-0.955,-0.545,
5131,-0.94,-0.535,
5132,-0.91,-0.535,
5133,-0.89,-0.53,
5134,-0.885,-0.525,
5135,-0.87,-0.525,
5136,-0.875,-0.54,
5137,-0.86,-0.545,
5138,-0.84,-0.545,
5139,-0.835,-0.535,
5140,-0.815,-0.535,
5141,-0.805,-0.52,
5142,-0.8,-0.515,
5143,-0.77,-0.5,
5144,-0.765,-0.5,
5145,-0.745,-0.495,
5146,-0.74,-0.5,
5147,-0.735,-0.51,
5148,-0.735,-0.515,
5149,-0.75,-0.535,
5150,-0.755,-0.53,
5151,-0.77,-0.545,
5152,-0.765,-0.52,
5153,-0.775,-0.525,
5154,-0.77,-0.505,
5155,-0.765,-0.505,
5156,-0.77,-0.525,
5157,-0.765,-0.515,
5158,-0.79,-0.525,
5159,-0.79,-0.54,
5160,-0.805,-0.55,
5161,-0.82,-0.555,
5162,-0.835,-0.575,
5163,-0.855,-0.56,
5164,-0.865,-0.565,
5165,-0.875,-0.55,
5166,-0.88,-0.545,
5167,-0.89,-0.55,
5168,-0.89,-0.535,
5169,-0.905,-0.55,
5170,-0.9,-0.56,
5171,-0.925,-0.555,
5172,-0.925,-0.57,
5173,-0.925,-0.575,
5174,-0.945,-0.595,
5175,-0.935,-0.585,
5176,-0.95,-0.58,
5177,-0.96,-0.59,
5178,-0.965,-0.555,
5179,-0.95,-0.56,
5180,-0.95,-0.555,
5181,-0.945,-0.545,
5182,-0.94,-0.56,
5183,-0.945,-0.56,
5184,-0.94,-0.57,
5185,-0.95,-0.57,
5186,-0.945,-0.565,
5187,-0.935,-0.56,
5188,-0.935,-0.555,
5189,-0.94,-0.555,
5190,-0.93,-0.54,
5191,-0.935,-0.545,
5192,-0.94,-0.53,
5193,-0.92,-0.53,
5194,-0.9,-0.54,
5195,-0.9,-0.53,
5196,-0.9,-0.525,
5197,-0.9,-0.52,
5198,-0.905,-0.52,
5199,-0.905,-0.53,
5200,-0.9,-0.52,
5201,-0.895,-0.51,
5202,-0.89,-0.505,
5203,-0.885,-0.51,
5204,-0.885,-0.495,
5205,-0.87,-0.49,
5206,-0.865,-0.5,
5207,-0.885,-0.495,
5208,-0.865,-0.495,
5209,-0.88,-0.505,
5210,-0.885,-0.51,
5211,-0.865,-0.515,
5212,-0.87,-0.52,
5213,-0.875,-0.505,
5214,-0.88,-0.51,
5215,-0.87,-0.5,
5216,-0.865,-0.48,
5217,-0.85,-0.475,
5218,-0.855,-0.475,
5219,-0.845,-0.47,
5220,-0.86,-0.485,
5221,-0.85,-0.5,
5222,-0.855,-0.51,
5223,-0.85,-0.5,
5224,-0.86,-0.5,
5225,-0.855,-0.49,
5226,-0.85,-0.485,
5227,-0.845,-0.475,
5228,-0.84,-0.48,
5229,-0.835,-0.465,
5230,-0.83,-0.48,
5231,-0.83,-0.495,
5232,-0.84,-0.505,
5233,-0.84,-0.5,
5234,-0.845,-0.505,
5235,-0.85,-0.505,
5236,-0.85,-0.51,
5237,-0.84,-0.495,
5238,-0.845,-0.47,
5239,-0.83,-0.465,
5240,-0.82,-0.46,
5241,-0.825,-0.455,
5242,-0.815,-0.46,
5243,-0.825,-0.47,
5244,-0.83,-0.48,
5245,-0.835,-0.5,
5246,-0.84,-0.5,
5247,-0.84,-0.495,
5248,-0.84,-0.5,
5249,-0.835,-0.48,
5250,-0.835,-0.465,
5251,-0.825,-0.475,
5252,-0.825,-0.46,
5253,-0.825,-0.46,
5254,-0.825,-0.465,
5255,-0.82,-0.48,
5256,-0.81,-0.48,
5257,-0.83,-0.48,
5258,-0.825,-0.505,
5259,-0.83,-0.495,
5260,-0.825,-0.495,
5261,-0.82,-0.49,
5262,-0.82,-0.47,
5263,-0.82,-0.47,
5264,-0.81,-0.46,
5265,-0.795,-0.47,
5266,-0.81,-0.46,
5267,-0.815,-0.47,
5268,-0.815,-0.485,
5269,-0.825,-0.5,
5270,-0.8,-0.505,
5271,-0.815,-0.5,
5272,-0.83,-0.505,
5273,-0.825,-0.495,
5274,-0.82,-0.475,
5275,-0.815,-0.475,
5276,-0.815,-0.47,
5277,-0.79,-0.445,
5278,-0.8,-0.46,
5279,-0.8,-0.475,
5280,-0.805,-0.49,
5281,-0.81,-0.495,
5282,-0.81,-0.505,
5283,-0.825,-0.495,
5284,-0.825,-0.49,
5285,-0.825,-0.475,
5286,-0.82,-0.47,
5287,-0.82,-0.475,
5288,-0.81,-0.485,
5289,-0.795,-0.485,
5290,-0.805,-0.475,
5291,-0.81,-0.49,
5292,-0.81,-0.485,
5293,-0.815,-0.495,
5294,-0.81,-0.49,
5295,-0.815,-0.5,
5296,-0.825,-0.485,
5297,-0.81,-0.49,
5298,-0.8,-0.47,
5299,-0.8,-0.455,
5300,-0.79,-0.465,
5301,-0.805,-0.465,
5302,-0.8,-0.475,
5303,-0.8,-0.48,
5304,-0.79,-0.495,
5305,-0.8,-0.495,
5306,-0.805,-0.515,
5307,-0.81,-0.515,
5308,-0.81,-0.5,
5309,-0.805,-0.485,
5310,-0.805,-0.475,
5311,-0.795,-0.47,
5312,-0.8,-0.465,
5313,-0.78,-0.465,
5314,-0.79,-0.47,
5315,-0.795,-0.49,
5316,-0.8,-0.505,
5317,-0.8,-0.51,
5318,-0.81,-0.505,
5319,-0.8,-0.495,
5320,-0.81,-0.48,
5321,-0.805,-0.475,
5322,-0.8,-0.47,
5323,-0.805,-0.48,
5324,-0.78,-0.47,
5325,-0.785,-0.475,
5326,-0.79,-0.465,
5327,-0.79,-0.46,
5328,-0.785,-0.485,
5329,-0.8,-0.485,
5330,-0.79,-0.5,
5331,-0.8,-0.49,
5332,-0.805,-0.49,
5333,-0.81,-0.485,
5334,-0.81,-0.48,
5335,-0.8,-0.48,
5336,-0.79,-0.465,
5337,-0.785,-0.46,
5338,-0.78,-0.47,
5339,-0.79,-0.47,
5340,-0.795,-0.485,
5341,-0.8,-0.5,
5342,-0.795,-0.505,
5343,-0.8,-0.51,
5344,-0.81,-0.505,
5345,-0.8,-0.505,
5346,-0.8,-0.485,
5347,-0.8,-0.485,
5348,-0.795,-0.47,
5349,-0.775,-0.47,
5350,-0.785,-0.47,
5351,-0.805,-0.47,
5352,-0.785,-0.485,
5353,-0.79,-0.5,
5354,-0.79,-0.5,
5355,-0.8,-0.49,
5356,-0.81,-0.5,
5357,-0.805,-0.5,
5358,-0.8,-0.48,
5359,-0.79,-0.49,
5360,-0.79,-0.49,
5361,-0.77,-0.49,
5362,-0.77,-0.47,
5363,-0.79,-0.485,
5364,-0.785,-0.495,
5365,-0.795,-0.49,
5366,-0.795,-0.505,
5367,-0.795,-0.51,
5368,-0.79,-0.5,
5369,-0.8,-0.495,
5370,-0.785,-0.49,
5371,-0.775,-0.485,
5372,-0.76,-0.47,
5373,-0.76,-0.47,
5374,-0.765,-0.475,
5375,-0.765,-0.49,
5376,-0.76,-0.49,
5377,-0.765,-0.505,
5378,-0.765,-0.515,
5379,-0.765,-0.5,
5380,-0.76,-0.515,
5381,-0.77,-0.51,
5382,-0.765,-0.505,
5383,-0.76,-0.5,
5384,-0.755,-0.485,
5385,-0.74,-0.48,
5386,-0.735,-0.485,
5387,-0.73,-0.485,
5388,-0.715,-0.5,
5389,-0.715,-0.52,
5390,-0.72,-0.52,
5391,-0.715,-0.52,
5392,-0.72,-0.515,
5393,-0.725,-0.505,
5394,-0.74,-0.495,
5395,-0.73,-0.48,
5396,-0.74,-0.48,
5397,-0.73,-0.47,
5398,-0.73,-0.48,
5399,-0.74,-0.48,
5400,-0.73,-0.495,
5401,-0.74,-0.485,
5402,-0.745,-0.505,
5403,-0.73,-0.49,
5404,-0.715,-0.46,
5405,-0.705,-0.46,
5406,-0.685,-0.435,
5407,-0.685,-0.435,
5408,-0.695,-0.435,
5409,-0.7,-0.445,
5410,-0.705,-0.46,
5411,-0.72,-0.47,
5412,-0.74,-0.505,
5413,-0.76,-0.51,
5414,-0.78,-0.535,
5415,-0.78,-0.53,
5416,-0.805,-0.525,
5417,-0.805,-0.525,
5418,-0.79,-0.515,
5419,-0.79,-0.495,
5420,-0.785,-0.495,
5421,-0.78,-0.495,
5422,-0.78,-0.505,
5423,-0.78,-0.515,
5424,-0.785,-0.53,
5425,-0.785,-0.53,
5426,-0.805,-0.55,
5427,-0.81,-0.575,
5428,-0.805,-0.58,
5429,-0.82,-0.585,
5430,-0.825,-0.585,
5431,-0.805,-0.53,
5432,-0.775,-0.455,
5433,-0.705,-0.335,
5434,-0.615,-0.225,
5435,-0.52,-0.145,
5436,-0.455,-0.105,
5437,-0.405,-0.12,
5438,-0.375,-0.19,
5439,-0.385,-0.35,
5440,-0.46,-0.575,
5441,-0.585,-0.865,
5442,-0.73,-1.135,
5443,-0.865,-1.335,
5444,-0.915,-1.39,
5445,-0.855,-1.31,
5446,-0.71,-1.145,
5447,-0.49,-0.94,
5448,-0.235,-0.735,
5449,0.0,-0.585,
5450,0.22,-0.465,
5451,0.42,-0.415,
5452,0.61,-0.395,
5453,0.795,-0.385,
5454,0.955,-0.38,
5455,1.075,-0.385,
5456,1.155,-0.41,
5457,1.185,-0.46,R
5458,1.17,-0.49,
5459,1.12,-0.48,
5460,1.01,-0.465,
5461,0.85,-0.47,
5462,0.65,-0.455,
5463,0.435,-0.44,
5464,0.195,-0.445,
5465,-0.065,-0.445,
5466,-0.315,-0.485,
5467,-0.585,-0.52,
5468,-0.785,-0.555,
5469,-0.925,-0.595,
5470,-1.015,-0.595,
5471,-1.04,-0.58,
5472,-1.035,-0.55,
5473,-1.01,-0.52,
5474,-0.99,-0.5,
5475,-0.96,-0.475,
5476,-0.935,-0.455,
5477,-0.92,-0.44,
5478,-0.91,-0.425,
5479,-0.9,-0.405,
5480,-0.9,-0.405,
5481,-0.885,-0.4,
5482,-0.895,-0.405,
5483,-0.9,-0.415,
5484,-0.91,-0.42,
5485,-0.925,-0.425,
5486,-0.935,-0.425,
5487,-0.935,-0.425,
5488,-0.935,-0.425,
5489,-0.93,-0.42,
5490,-0.915,-0.405,
5491,-0.915,-0.4,
5492,-0.915,-0.39,
5493,-0.9,-0.39,
5494,-0.92,-0.405,
5495,-0.91,-0.395,
5496,-0.915,-0.405,
5497,-0.92,-0.415,
5498,-0.935,-0.42,
5499,-0.925,-0.42,
5500,-0.925,-0.41,
5501,-0.935,-0.405,
5502,-0.945,-0.385,
5503,-0.93,-0.38,
5504,-0.93,-0.39,
5505,-0.91,-0.365,
5506,-0.915,-0.405,
5507,-0.915,-0.395,
5508,-0.925,-0.405,
5509,-0.93,-0.42,
5510,-0.95,-0.415,
5511,-0.96,-0.425,
5512,-0.95,-0.41,
5513,-0.95,-0.415,
5514,-0.94,-0.395,
5515,-0.945,-0.39,
5516,-0.935,-0.395,
5517,-0.93,-0.39,
5518,-0.935,-0.405,
5519,-0.94,-0.405,
5520,-0.95,-0.415,
5521,-0.97,-0.42,
5522,-0.975,-0.425,
5523,-0.97,-0.43,
5524,-0.97,-0.42,
5525,-0.975,-0.415,
5526,-0.965,-0.41,
5527,-0.975,-0.41,
5528,-0.96,-0.415,
5529,-0.96,-0.41,
5530,-0.96,-0.415,
5531,-0.985,-0.43,
5532,-0.985,-0.445,
5533,-0.985,-0.45,
5534,-0.985,-0.465,
5535,-0.995,-0.475,
5536,-1.02,-0.47,
5537,-1.005,-0.47,
5538,-1.025,-0.47,
5539,-1.02,-0.475,
5540,-1.025,-0.47,
5541,-1.015,-0.475,
5542,-1.005,-0.5,
5543,-1.03,-0.5,
5544,-1.035,-0.525,
5545,-1.045,-0.525,
5546,-1.04,-0.545,
5547,-1.055,-0.555,
5548,-1.07,-0.56,
5549,-1.065,-0.56,
5550,-1.06,-0.56,
5551,-1.055,-0.57,
5552,-1.06,-0.57,
5553,-1.065,-0.57,
5554,-1.04,-0.585,
5555,-1.05,-0.595,
5556,-1.055,-0.625,
5557,-1.075,-0.64,
5558,-1.08,-0.655,
5559,-1.08,-0.66,
5560,-1.09,-0.67,
5561,-1.08,-0.665,
5562,-1.06,-0.655,
5563,-1.05,-0.655,
5564,-1.035,-0.65,
5565,-1.025,-0.645,
5566,-1.02,-0.66,
5567,-1.015,-0.665,
5568,-1.025,-0.675,
5569,-1.015,-0.68,
5570,-1.025,-0.7,
5571,-1.015,-0.715,
5572,-0.995,-0.705,
5573,-0.985,-0.7,
5574,-0.965,-0.685,
5575,-0.945,-0.68,
5576,-0.925,-0.665,
5577,-0.91,-0.665,
5578,-0.895,-0.67,
5579,-0.87,-0.665,
5580,-0.875,-0.68,
5581,-0.875,-0.68,
5582,-0.865,-0.7,
5583,-0.845,-0.695,
5584,-0.84,-0.69,
5585,-0.82,-0.675,
5586,-0.8,-0.65,
5587,-0.785,-0.64,
5588,-0.765,-0.63,
5589,-0.76,-0.615,
5590,-0.76,-0.625,
5591,-0.75,-0.625,
5592,-0.74,-0.635,
5593,-0.725,-0.63,
5594,-0.725,-0.645,
5595,-0.735,-0.645,
5596,-0.73,-0.635,
5597,-0.72,-0.63,
5598,-0.72,-0.615,
5599,-0.71,-0.61,
5600,-0.705,-0.595,
5601,-0.69,-0.6,
5602,-0.7,-0.595,
5603,-0.71,-0.605,
5604,-0.71,-0.625,
5605,-0.715,-0.64,
5606,-0.725,-0.65,
5607,-0.76,-0.645,
5608,-0.77,-0.645,
5609,-0.785,-0.635,
5610,-0.785,-0.635,
5611,-0.795,-0.615,
5612,-0.8,-0.61,
5613,-0.805,-0.615,
5614,-0.815,-0.625,
5615,-0.825,-0.635,
5616,-0.85,-0.645,
5617,-0.875,-0.66,
5618,-0.895,-0.665,
5619,-0.905,-0.66,
5620,-0.9,-0.65,
5621,-0.91,-0.645,
5622,-0.91,-0.635,
5623,-0.9,-0.63,
5624,-0.9,-0.615,
5625,-0.895,-0.62,
5626,-0.91,-0.625,
5627,-0.915,-0.64,
5628,-0.91,-0.65,
5629,-0.92,-0.65,
5630,-0.92,-0.65,
5631,-0.925,-0.66,
5632,-0.935,-0.65,
5633,-0.935,-0.64,
5634,-0.93,-0.625,
5635,-0.925,-0.61,
5636,-0.92,-0.62,
5637,-0.915,-0.625,
5638,-0.905,-0.63,
5639,-0.905,-0.63,
5640,-0.92,-0.645,
5641,-0.91,-0.64,
5642,-0.91,-0.64,
5643,-0.91,-0.625,
5644,-0.905,-0.615,
5645,-0.905,-0.6,
5646,-0.9,-0.605,
5647,-0.895,-0.59,
5648,-0.89,-0.58,
5649,-0.875,-0.6,
5650,-0.875,-0.61,
5651,-0.875,-0.6,
5652,-0.875,-0.605,
5653,-0.875,-0.625,
5654,-0.885,-0.605,
5655,-0.88,-0.605,
5656,-0.89,-0.61,
5657,-0.88,-0.59,
5658,-0.87,-0.59,
5659,-0.87,-0.585,
5660,-0.865,-0.585,
5661,-0.855,-0.585,
5662,-0.85,-0.585,
5663,-0.86,-0.59,
5664,-0.85,-0.59,
5665,-0.86,-0.6,
5666,-0.865,-0.59,
5667,-0.87,-0.595,
5668,-0.86,-0.59,
5669,-0.87,-0.59,
5670,-0.86,-0.585,
5671,-0.84,-0.585,
5672,-0.855,-0.57,
5673,-0.845,-0.57,
5674,-0.84,-0.555,
5675,-0.845,-0.58,
5676,-0.855,-0.575,
5677,-0.865,-0.585,
5678,-0.86,-0.595,
5679,-0.855,-0.585,
5680,-0.855,-0.6,
5681,-0.85,-0.595,
5682,-0.845,-0.59,
5683,-0.84,-0.585,
5684,-0.835,-0.575,
5685,-0.825,-0.575,
5686,-0.825,-0.575,
5687,-0.83,-0.58,
5688,-0.835,-0.58,
5689,-0.845,-0.58,
5690,-0.845,-0.605,
5691,-0.85,-0.6,
5692,-0.855,-0.6,
5693,-0.85,-0.59,
5694,-0.84,-0.585,
5695,-0.83,-0.58,
5696,-0.83,-0.575,
5697,-0.825,-0.58,
5698,-0.82,-0.57,
5699,-0.82,-0.585,
5700,-0.82,-0.585,
5701,-0.835,-0.6,
5702,-0.83,-0.605,
5703,-0.83,-0.6,
5704,-0.835,-0.6,
5705,-0.83,-0.59,
5706,-0.83,-0.585,
5707,-0.83,-0.575,
5708,-0.82,-0.575,
5709,-0.8,-0.575,
5710,-0.81,-0.57,
5711,-0.81,-0.58,
5712,-0.81,-0.59,
5713,-0.83,-0.595,
5714,-0.825,-0.605,
5715,-0.84,-0.605,
5716,-0.83,-0.615,
5717,-0.835,-0.6,
5718,-0.835,-0.58,
5719,-0.815,-0.57,
5720,-0.83,-0.56,
5721,-0.81,-0.56,
5722,-0.815,-0.575,
5723,-0.82,-0.58,
5724,-0.82,-0.6,
5725,-0.825,-0.6,
5726,-0.835,-0.61,
5727,-0.83,-0.61,
5728,-0.83,-0.59,
5729,-0.835,-0.585,
5730,-0.83,-0.585,
5731,-0.825,-0.585,
5732,-0.81,-0.575,
5733,-0.805,-0.575,
5734,-0.805,-0.585,
5735,-0.81,-0.58,
5736,-0.805,-0.59,
5737,-0.815,-0.6,
5738,-0.82,-0.59,
5739,-0.835,-0.6,
5740,-0.815,-0.59,
5741,-0.82,-0.6,
5742,-0.81,-0.59,
5743,-0.805,-0.585,
5744,-0.805,-0.57,
5745,-0.795,-0.575,
5746,-0.785,-0.56,
5747,-0.795,-0.58,
5748,-0.8,-0.58,
5749,-0.81,-0.595,
5750,-0.81,-0.595,
5751,-0.82,-0.595,
5752,-0.815,-0.595,
5753,-0.81,-0.595,
5754,-0.815,-0.585,
5755,-0.81,-0.59,
5756,-0.815,-0.58,
5757,-0.805,-0.57,
5758,-0.8,-0.58,
5759,-0.79,-0.575,
5760,-0.79,-0.585,
5761,-0.805,-0.605,
5762,-0.815,-0.6,
5763,-0.81,-0.595,
5764,-0.815,-0.6,
5765,-0.815,-0.61,
5766,-0.815,-0.595,
5767,-0.82,-0.59,
5768,-0.81,-0.585,
5769,-0.795,-0.58,
5770,-0.795,-0.575,
5771,-0.795,-0.575,
5772,-0.805,-0.585,
5773,-0.805,-0.585,
5774,-0.805,-0.605,
5775,-0.82,-0.61,
5776,-0.82,-0.615,
5777,-0.835,-0.615,
5778,-0.825,-0.595,
5779,-0.81,-0.57,
5780,-0.815,-0.575,
5781,-0.805,-0.585,
5782,-0.805,-0.58,
5783,-0.805,-0.585,
5784,-0.805,-0.61,
5785,-0.815,-0.605,
5786,-0.815,-0.615,
5787,-0.82,-0.615,
5788,-0.835,-0.61,
5789,-0.83,-0.59,
5790,-0.83,-0.58,
5791,-0.81,-0.58,
5792,-0.8,-0.575,
5793,-0.8,-0.575,
5794,-0.805,-0.58,
5795,-0.805,-0.58,
5796,-0.815,-0.59,
5797,-0.815,-0.595,
5798,-0.82,-0.605,
5799,-0.815,-0.615,
5800,-0.82,-0.615,
5801,-0.82,-0.605,
5802,-0.815,-0.595,
5803,-0.8,-0.6,
5804,-0.805,-0.575,
5805,-0.805,-0.585,
5806,-0.805,-0.58,
5807,-0.795,-0.59,
5808,-0.79,-0.565,
5809,-0.78,-0.565,
5810,-0.785,-0.57,
5811,-0.77,-0.585,
5812,-0.765,-0.58,
5813,-0.765,-0.575,
5814,-0.755,-0.57,
5815,-0.745,-0.565,
5816,-0.735,-0.55,
5817,-0.735,-0.545,
5818,-0.75,-0.55,
5819,-0.76,-0.545,
5820,-0.77,-0.57,
5821,-0.78,-0.575,
5822,-0.795,-0.575,
5823,-0.795,-0.575,
5824,-0.795,-0.58,
5825,-0.79,-0.57,
5826,-0.795,-0.545,
5827,-0.785,-0.53,
5828,-0.775,-0.525,
5829,-0.745,-0.51,
5830,-0.735,-0.51,
5831,-0.72,-0.5,
5832,-0.715,-0.515,
5833,-0.735,-0.54,
5834,-0.75,-0.545,
5835,-0.775,-0.57,
5836,-0.795,-0.58,
5837,-0.825,-0.585,
5838,-0.83,-0.57,
5839,-0.83,-0.575,
5840,-0.84,-0.565,
5841,-0.84,-0.565,
5842,-0.83,-0.575,
5843,-0.825,-0.57,
5844,-0.84,-0.585,
5845,-0.84,-0.595,
5846,-0.84,-0.605,
5847,-0.84,-0.605,
5848,-0.855,-0.62,
5849,-0.855,-0.62,
5850,-0.845,-0.63,
5851,-0.865,-0.64,
5852,-0.85,-0.62,
5853,-0.83,-0.565,
5854,-0.785,-0.49,
5855,-0.725,-0.385,
5856,-0.65,-0.29,
5857,-0.57,-0.215,
5858,-0.495,-0.21,
5859,-0.45,-0.26,
5860,-0.445,-0.385,
5861,-0.49,-0.605,
5862,-0.59,-0.875,
5863,-0.72,-1.115,
5864,-0.825,-1.275,
5865,-0.85,-1.31,
5866,-0.785,-1.21,
5867,-0.635,-1.02,
5868,-0.405,-0.81,
5869,-0.15,-0.6,
5870,0.1,-0.45,
5871,0.355,-0.345,
5872,0.585,-0.255,
5873,0.8,-0.225,
5874,1.0,-0.2,
5875,1.165,-0.175,
5876,1.295,-0.17,
5877,1.375,-0.205,
5878,1.395,-0.275,R
5879,1.355,-0.38,
5880,1.26,-0.47,
5881,1.125,-0.545,
5882,0.94,-0.605,
5883,0.71,-0.63,
5884,0.475,-0.6,
5885,0.25,-0.57,
5886,0.035,-0.52,
5887,-0.175,-0.505,
5888,-0.375,-0.495,
5889,-0.57,-0.54,
5890,-0.745,-0.59,
5891,-0.89,-0.645,
5892,-1.005,-0.675,
5893,-1.065,-0.675,
5894,-1.1,-0.665,
5895,-1.115,-0.625,
5896,-1.1,-0.59,
5897,-1.08,-0.56,
5898,-1.055,-0.525,
5899,-1.03,-0.51,
5900,-1.01,-0.49,
5901,-0.995,-0.465,
5902,-0.995,-0.46,
5903,-0.97,-0.46,
5904,-0.975,-0.465,
5905,-0.985,-0.45,
5906,-0.99,-0.465,
5907,-1.0,-0.465,
5908,-1.005,-0.46,
5909,-1.005,-0.455,
5910,-1.005,-0.46,
5911,-1.015,-0.45,
5912,-1.0,-0.445,
5913,-0.995,-0.435,
5914,-0.985,-0.435,
5915,-0.995,-0.425,
5916,-1.005,-0.435,
5917,-1.01,-0.445,
5918,-1.02,-0.44,
5919,-1.025,-0.46,
5920,-1.035,-0.455,
5921,-1.025,-0.45,
5922,-1.01,-0.44,
5923,-1.015,-0.425,
5924,-1.02,-0.42,
5925,-1.0,-0.41,
5926,-1.01,-0.425,
5927,-1.01,-0.435,
5928,-1.015,-0.445,
5929,-1.015,-0.455,
5930,-1.03,-0.465,
5931,-1.035,-0.46,
5932,-1.03,-0.465,
5933,-1.04,-0.45,
5934,-1.035,-0.45,
5935,-1.03,-0.44,
5936,-1.04,-0.44,
5937,-1.035,-0.435,
5938,-1.03,-0.43,
5939,-1.04,-0.445,
5940,-1.04,-0.46,
5941,-1.05,-0.455,
5942,-1.055,-0.47,
5943,-1.07,-0.485,
5944,-1.07,-0.47,
5945,-1.075,-0.475,
5946,-1.07,-0.47,
5947,-1.07,-0.47,
5948,-1.07,-0.465,
5949,-1.07,-0.455,
5950,-1.08,-0.465,
5951,-1.085,-0.48,
5952,-1.08,-0.5,
5953,-1.095,-0.51,
5954,-1.105,-0.52,
5955,-1.11,-0.525,
5956,-1.11,-0.505,
5957,-1.105,-0.515,
5958,-1.115,-0.515,
5959,-1.115,-0.52,
5960,-1.115,-0.525,
5961,-1.125,-0.53,
5962,-1.135,-0.525,
5963,-1.125,-0.54,
5964,-1.135,-0.56,
5965,-1.15,-0.57,
5966,-1.16,-0.58,
5967,-1.165,-0.585,
5968,-1.16,-0.595,
5969,-1.165,-0.59,
5970,-1.175,-0.585,
5971,-1.16,-0.61,
5972,-1.165,-0.61,
5973,-1.175,-0.615,
5974,-1.17,-0.63,
5975,-1.17,-0.635,
5976,-1.175,-0.665,
5977,-1.185,-0.67,
5978,-1.195,-0.67,
5979,-1.19,-0.68,
5980,-1.185,-0.695,
5981,-1.185,-0.69,
5982,-1.175,-0.685,
5983,-1.155,-0.665,
5984,-1.15,-0.67,
5985,-1.135,-0.655,
5986,-1.12,-0.675,
5987,-1.11,-0.685,
5988,-1.09,-0.68,
5989,-1.085,-0.695,
5990,-1.09,-0.695,
5991,-1.08,-0.7,
5992,-1.05,-0.7,
5993,-1.04,-0.69,
5994,-1.04,-0.67,
5995,-1.01,-0.665,
5996,-0.975,-0.665,
5997,-0.95,-0.66,
5998,-0.935,-0.66,
5999,-0.93,-0.655,
6000,-0.9,-0.66,
6001,-0.905,-0.67,
6002,-0.89,-0.665,
6003,-0.875,-0.665,
6004,-0.855,-0.65,
6005,-0.845,-0.64,
6006,-0.84,-0.635,
6007,-0.83,-0.625,
6008,-0.81,-0.62,
6009,-0.795,-0.61,
6010,-0.8,-0.615,
6011,-0.78,-0.615,
6012,-0.785,-0.635,
6013,-0.775,-0.615,
6014,-0.775,-0.64,
6015,-0.795,-0.635,
6016,-0.795,-0.64,
6017,-0.795,-0.635,
6018,-0.805,-0.625,
6019,-0.805,-0.615,
6020,-0.805,-0.605,
6021,-0.81,-0.6,
6022,-0.82,-0.615,
6023,-0.825,-0.62,
6024,-0.845,-0.625,
6025,-0.85,-0.645,
6026,-0.87,-0.65,
6027,-0.875,-0.655,
6028,-0.89,-0.675,
6029,-0.89,-0.68,
6030,-0.9,-0.66,
6031,-0.905,-0.645,
6032,-0.915,-0.635,
6033,-0.92,-0.635,
6034,-0.935,-0.64,
6035,-0.93,-0.635,
6036,-0.94,-0.66,
6037,-0.955,-0.67,
6038,-0.955,-0.68,
6039,-0.975,-0.69,
6040,-0.975,-0.68,
6041,-0.97,-0.675,
6042,-0.975,-0.665,
6043,-0.97,-0.635,
6044,-0.975,-0.625,
6045,-0.97,-0.64,
6046,-0.955,-0.64,
6047,-0.955,-0.645,
6048,-0.955,-0.64,
6049,-0.96,-0.655,
6050,-0.96,-0.66,
6051,-0.955,-0.655,
6052,-0.965,-0.66,
6053,-0.95,-0.635,
6054,-0.95,-0.63,
6055,-0.935,-0.625,
6056,-0.925,-0.6,
6057,-0.93,-0.61,
6058,-0.91,-0.6,
6059,-0.915,-0.615,
6060,-0.905,-0.62,
6061,-0.915,-0.62,
6062,-0.915,-0.625,
6063,-0.92,-0.615,
6064,-0.925,-0.62,
6065,-0.915,-0.615,
6066,-0.915,-0.61,
6067,-0.91,-0.6,
6068,-0.905,-0.585,
6069,-0.89,-0.57,
6070,-0.885,-0.575,
6071,-0.89,-0.585,
6072,-0.895,-0.6,
6073,-0.905,-0.605,
6074,-0.915,-0.595,
6075,-0.905,-0.605,
6076,-0.91,-0.605,
6077,-0.905,-0.585,
6078,-0.905,-0.58,
6079,-0.9,-0.575,
6080,-0.88,-0.57,
6081,-0.875,-0.55,
6082,-0.875,-0.56,
6083,-0.865,-0.555,
6084,-0.875,-0.555,
6085,-0.895,-0.575,
6086,-0.905,-0.58,
6087,-0.89,-0.585,
6088,-0.89,-0.58,
6089,-0.885,-0.565,
6090,-0.89,-0.55,
6091,-0.885,-0.55,
6092,-0.89,-0.54,
6093,-0.865,-0.53,
6094,-0.875,-0.55,
6095,-0.87,-0.555,
6096,-0.875,-0.56,
6097,-0.885,-0.565,
6098,-0.875,-0.565,
6099,-0.885,-0.57,
6100,-0.875,-0.565,
6101,-0.885,-0.56,
6102,-0.87,-0.545,
6103,-0.88,-0.545,
6104,-0.875,-0.535,
6105,-0.875,-0.525,
6106,-0.855,-0.54,
6107,-0.875,-0.54,
6108,-0.875,-0.545,
6109,-0.88,-0.56,
6110,-0.88,-0.57,
6111,-0.88,-0.57,
6112,-0.875,-0.555,
6113,-0.875,-0.565,
6114,-0.865,-0.55,
6115,-0.85,-0.55,
6116,-0.855,-0.535,
6117,-0.845,-0.535,
6118,-0.85,-0.545,
6119,-0.855,-0.55,
6120,-0.855,-0.565,
6121,-0.87,-0.555,
6122,-0.865,-0.56,
6123,-0.865,-0.56,
6124,-0.87,-0.565,
6125,-0.875,-0.545,
6126,-0.86,-0.545,
6127,-0.85,-0.53,
6128,-0.85,-0.545,
6129,-0.84,-0.535,
6130,-0.835,-0.54,
6131,-0.84,-0.555,
6132,-0.855,-0.545,
6133,-0.855,-0.565,
6134,-0.86,-0.565,
6135,-0.86,-0.55,
6136,-0.87,-0.545,
6137,-0.865,-0.55,
6138,-0.87,-0.535,
6139,-0.855,-0.53,
6140,-0.865,-0.53,
6141,-0.865,-0.52,
6142,-0.855,-0.52,
6143,-0.845,-0.52,
6144,-0.85,-0.525,
6145,-0.865,-0.545,
6146,-0.865,-0.555,
6147,-0.855,-0.555,
6148,-0.86,-0.56,
6149,-0.855,-0.55,
6150,-0.85,-0.54,
6151,-0.845,-0.535,
6152,-0.845,-0.54,
6153,-0.855,-0.52,
6154,-0.85,-0.52,
6155,-0.84,-0.52,
6156,-0.855,-0.54,
6157,-0.845,-0.535,
6158,-0.86,-0.545,
6159,-0.86,-0.55,
6160,-0.86,-0.56,
6161,-0.855,-0.545,
6162,-0.85,-0.55,
6163,-0.855,-0.52,
6164,-0.84,-0.525,
6165,-0.835,-0.515,
6166,-0.84,-0.515,
6167,-0.84,-0.525,
6168,-0.84,-0.54,
6169,-0.845,-0.545,
6170,-0.85,-0.54,
6171,-0.85,-0.54,
6172,-0.845,-0.535,
6173,-0.86,-0.535,
6174,-0.855,-0.53,
6175,-0.85,-0.525,
6176,-0.84,-0.52,
6177,-0.825,-0.495,
6178,-0.805,-0.5,
6179,-0.815,-0.505,
6180,-0.825,-0.515,
6181,-0.835,-0.525,
6182,-0.84,-0.55,
6183,-0.85,-0.545,
6184,-0.85,-0.54,
6185,-0.845,-0.535,
6186,-0.845,-0.51,
6187,-0.84,-0.51,
6188,-0.83,-0.505,
6189,-0.82,-0.5,
6190,-0.815,-0.505,
6191,-0.825,-0.52,
6192,-0.835,-0.515,
6193,-0.83,-0.53,
6194,-0.84,-0.545,
6195,-0.845,-0.56,
6196,-0.85,-0.54,
6197,-0.85,-0.54,
6198,-0.845,-0.535,
6199,-0.835,-0.52,
6200,-0.825,-0.505,
6201,-0.815,-0.5,
6202,-0.82,-0.505,
6203,-0.815,-0.505,
6204,-0.82,-0.51,
6205,-0.835,-0.525,
6206,-0.84,-0.535,
6207,-0.84,-0.54,
6208,-0.84,-0.53,
6209,-0.845,-0.52,
6210,-0.84,-0.5,
6211,-0.83,-0.495,
6212,-0.83,-0.495,
6213,-0.815,-0.49,
6214,-0.805,-0.51,
6215,-0.815,-0.505,
6216,-0.83,-0.525,
6217,-0.835,-0.52,
6218,-0.835,-0.515,
6219,-0.845,-0.52,
6220,-0.84,-0.51,
6221,-0.85,-0.505,
6222,-0.84,-0.505,
6223,-0.835,-0.5,
6224,-0.835,-0.5,
6225,-0.825,-0.495,
6226,-0.81,-0.5,
6227,-0.82,-0.505,
6228,-0.83,-0.505,
6229,-0.82,-0.515,
6230,-0.835,-0.52,
6231,-0.84,-0.515,
6232,-0.84,-0.51,
6233,-0.845,-0.51,
6234,-0.845,-0.51,
6235,-0.835,-0.495,
6236,-0.835,-0.5,
6237,-0.82,-0.495,
6238,-0.815,-0.505,
6239,-0.815,-0.51,
6240,-0.815,-0.515,
6241,-0.81,-0.52,
6242,-0.8,-0.535,
6243,-0.815,-0.535,
6244,-0.81,-0.53,
6245,-0.815,-0.525,
6246,-0.82,-0.52,
6247,-0.81,-0.505,
6248,-0.805,-0.5,
6249,-0.795,-0.495,
6250,-0.79,-0.5,
6251,-0.795,-0.505,
6252,-0.79,-0.51,
6253,-0.775,-0.52,
6254,-0.765,-0.535,
6255,-0.765,-0.525,
6256,-0.76,-0.51,
6257,-0.76,-0.51,
6258,-0.745,-0.505,
6259,-0.755,-0.495,
6260,-0.745,-0.49,
6261,-0.75,-0.485,
6262,-0.765,-0.495,
6263,-0.77,-0.5,
6264,-0.78,-0.5,
6265,-0.785,-0.5,
6266,-0.785,-0.515,
6267,-0.79,-0.51,
6268,-0.805,-0.515,
6269,-0.785,-0.505,
6270,-0.8,-0.48,
6271,-0.785,-0.465,
6272,-0.76,-0.455,
6273,-0.745,-0.44,
6274,-0.725,-0.445,
6275,-0.725,-0.465,
6276,-0.73,-0.47,
6277,-0.745,-0.495,
6278,-0.77,-0.51,
6279,-0.79,-0.525,
6280,-0.81,-0.525,
6281,-0.83,-0.535,
6282,-0.84,-0.54,
6283,-0.845,-0.545,
6284,-0.84,-0.53,
6285,-0.845,-0.535,
6286,-0.845,-0.52,
6287,-0.835,-0.525,
6288,-0.835,-0.535,
6289,-0.845,-0.545,
6290,-0.855,-0.555,
6291,-0.865,-0.55,
6292,-0.87,-0.555,
6293,-0.855,-0.55,
6294,-0.86,-0.56,
6295,-0.865,-0.58,
6296,-0.86,-0.585,
6297,-0.865,-0.6,
6298,-0.865,-0.59,
6299,-0.85,-0.52,
6300,-0.815,-0.445,
6301,-0.74,-0.34,
6302,-0.66,-0.24,
6303,-0.585,-0.18,
6304,-0.525,-0.15,
6305,-0.48,-0.17,
6306,-0.455,-0.21,
6307,-0.445,-0.32,
6308,-0.475,-0.5,
6309,-0.57,-0.75,
6310,-0.695,-1.035,
6311,-0.84,-1.285,
6312,-0.945,-1.415,
6313,-0.975,-1.405,
6314,-0.89,-1.265,
6315,-0.715,-1.075,
6316,-0.49,-0.875,
6317,-0.235,-0.68,
6318,0.01,-0.52,
6319,0.26,-0.395,
6320,0.485,-0.31,
6321,0.705,-0.255,
6322,0.915,-0.26,
6323,1.075,-0.25,
6324,1.195,-0.295,
6325,1.265,-0.37,
6326,1.285,-0.435,
6327,1.255,-0.495,R
6328,1.19,-0.525,
6329,1.1,-0.525,
6330,0.96,-0.505,
6331,0.79,-0.485,
6332,0.605,-0.465,
6333,0.42,-0.44,
6334,0.23,-0.44,
6335,0.015,-0.44,
6336,-0.205,-0.47,
6337,-0.445,-0.515,
6338,-0.67,-0.56,
6339,-0.865,-0.61,
6340,-0.985,-0.645,
6341,-1.06,-0.65,
6342,-1.105,-0.63,
6343,-1.1,-0.59,
6344,-1.075,-0.55,
6345,-1.05,-0.51,
6346,-1.03,-0.485,
6347,-1.015,-0.47,
6348,-1.005,-0.46,
6349,-0.995,-0.455,
6350,-0.98,-0.45,
6351,-0.985,-0.445,
6352,-0.98,-0.45,
6353,-0.98,-0.45,
6354,-0.97,-0.42,
6355,-0.965,-0.415,
6356,-0.97,-0.4,
6357,-0.97,-0.405,
6358,-0.965,-0.41,
6359,-0.97,-0.42,
6360,-0.975,-0.42,
6361,-0.98,-0.43,
6362,-0.985,-0.425,
6363,-0.99,-0.435,
6364,-0.995,-0.425,
6365,-0.995,-0.415,
6366,-0.985,-0.39,
6367,-0.98,-0.39,
6368,-0.965,-0.39,
6369,-0.975,-0.375,
6370,-0.975,-0.385,
6371,-0.97,-0.385,
6372,-0.975,-0.395,
6373,-0.98,-0.4,
6374,-0.985,-0.4,
6375,-0.995,-0.4,
6376,-1.0,-0.41,
6377,-1.0,-0.41,
6378,-1.0,-0.38,
6379,-0.99,-0.38,
6380,-0.985,-0.36,
6381,-0.995,-0.37,
6382,-1.0,-0.37,
6383,-0.98,-0.385,
6384,-0.99,-0.39,
6385,-1.005,-0.405,
6386,-1.015,-0.395,
6387,-1.025,-0.405,
6388,-1.01,-0.385,
6389,-1.015,-0.375,
6390,-1.015,-0.375,
6391,-1.01,-0.37,
6392,-1.005,-0.365,
6393,-0.995,-0.37,
6394,-0.98,-0.385,
6395,-0.995,-0.395,
6396,-1.0,-0.39,
6397,-1.02,-0.405,
6398,-1.04,-0.42,
6399,-1.04,-0.41,
6400,-1.045,-0.41,
6401,-1.055,-0.41,
6402,-1.06,-0.415,
6403,-1.05,-0.405,
6404,-1.045,-0.425,
6405,-1.035,-0.415,
6406,-1.04,-0.415,
6407,-1.04,-0.43,
6408,-1.055,-0.445,
6409,-1.075,-0.455,
6410,-1.07,-0.475,
6411,-1.09,-0.485,
6412,-1.095,-0.495,
6413,-1.105,-0.485,
6414,-1.1,-0.49,
6415,-1.09,-0.485,
6416,-1.105,-0.49,
6417,-1.1,-0.48,
6418,-1.105,-0.51,
6419,-1.12,-0.51,
6420,-1.11,-0.53,
