,MLII,V1,symbol
0,-0.105,0.19,
1,-0.105,0.19,
2,-0.105,0.19,
3,-0.105,0.19,
4,-0.105,0.19,
5,-0.105,0.19,
6,-0.105,0.19,
7,-0.105,0.19,
8,-0.125,0.19,
9,-0.145,0.22,+
10,-0.15,0.225,
11,-0.175,0.25,
12,-0.195,0.225,
13,-0.205,0.21,
14,-0.2,0.21,
15,-0.2,0.22,
16,-0.195,0.23,
17,-0.2,0.23,
18,-0.2,0.215,
19,-0.21,0.21,
20,-0.21,0.215,
21,-0.19,0.225,
22,-0.19,0.23,
23,-0.2,0.24,
24,-0.215,0.23,
25,-0.225,0.22,
26,-0.225,0.225,
27,-0.21,0.23,
28,-0.21,0.255,
29,-0.23,0.27,
30,-0.245,0.27,
31,-0.26,0.265,
32,-0.255,0.26,
33,-0.245,0.285,
34,-0.23,0.295,
35,-0.245,0.295,
36,-0.28,0.295,
37,-0.255,0.28,
38,-0.165,0.275,
39,-0.015,0.225,
40,0.16,0.11,
41,0.375,-0.04,
42,0.645,-0.175,
43,0.985,-0.27,
44,1.37,-0.35,
45,1.725,-0.395,
46,1.935,-0.395,F
47,1.895,-0.33,
48,1.625,-0.225,
49,1.28,-0.12,
50,0.915,-0.015,
51,0.55,0.09,
52,0.26,0.12,
53,0.045,0.11,
54,-0.11,0.105,
55,-0.21,0.115,
56,-0.255,0.14,
57,-0.26,0.19,
58,-0.235,0.22,
59,-0.235,0.225,
60,-0.27,0.205,
61,-0.29,0.205,
62,-0.305,0.23,
63,-0.295,0.24,
64,-0.295,0.265,
65,-0.3,0.255,
66,-0.33,0.24,
67,-0.335,0.225,
68,-0.325,0.24,
69,-0.325,0.25,
70,-0.315,0.26,
71,-0.32,0.26,
72,-0.33,0.26,
73,-0.33,0.24,
74,-0.325,0.24,
75,-0.315,0.265,
76,-0.32,0.26,
77,-0.325,0.26,
78,-0.325,0.245,
79,-0.34,0.245,
80,-0.325,0.24,
81,-0.3,0.255,
82,-0.3,0.265,
83,-0.315,0.26,
84,-0.32,0.235,
85,-0.335,0.235,
86,-0.33,0.24,
87,-0.305,0.26,
88,-0.3,0.26,
89,-0.31,0.27,
90,-0.325,0.25,
91,-0.335,0.235,
92,-0.315,0.24,
93,-0.295,0.24,
94,-0.31,0.255,
95,-0.31,0.25,
96,-0.325,0.215,
97,-0.315,0.2,
98,-0.3,0.215,
99,-0.29,0.225,
100,-0.275,0.23,
101,-0.275,0.215,
102,-0.285,0.195,
103,-0.29,0.185,
104,-0.275,0.185,
105,-0.26,0.19,
106,-0.245,0.2,
107,-0.255,0.185,
108,-0.255,0.165,
109,-0.255,0.15,
110,-0.23,0.14,
111,-0.21,0.145,
112,-0.18,0.15,
113,-0.17,0.14,
114,-0.17,0.11,
115,-0.17,0.09,
116,-0.165,0.095,
117,-0.13,0.09,
118,-0.11,0.085,
119,-0.11,0.075,
120,-0.11,0.065,
121,-0.105,0.035,
122,-0.095,0.04,
123,-0.08,0.06,
124,-0.05,0.05,
125,-0.05,0.055,
126,-0.05,0.04,
127,-0.05,0.03,
128,-0.04,0.025,
129,-0.02,0.045,
130,-0.015,0.07,
131,-0.02,0.08,
132,-0.045,0.07,
133,-0.05,0.085,
134,-0.05,0.095,
135,-0.035,0.12,
136,-0.045,0.15,
137,-0.065,0.165,
138,-0.105,0.18,
139,-0.115,0.16,
140,-0.12,0.185,
141,-0.11,0.215,
142,-0.115,0.245,
143,-0.15,0.23,
144,-0.18,0.24,
145,-0.195,0.235,
146,-0.195,0.245,
147,-0.195,0.26,
148,-0.195,0.275,
149,-0.215,0.28,
150,-0.245,0.275,
151,-0.25,0.255,
152,-0.245,0.265,
153,-0.235,0.28,
154,-0.235,0.295,
155,-0.235,0.29,
156,-0.26,0.27,
157,-0.27,0.26,
158,-0.255,0.27,
159,-0.24,0.29,
160,-0.245,0.295,
161,-0.26,0.285,
162,-0.285,0.27,
163,-0.29,0.265,
164,-0.265,0.275,
165,-0.25,0.295,
166,-0.255,0.3,
167,-0.255,0.3,
168,-0.27,0.28,
169,-0.28,0.27,
170,-0.26,0.28,
171,-0.245,0.305,
172,-0.245,0.3,
173,-0.245,0.29,
174,-0.27,0.275,
175,-0.26,0.265,
176,-0.24,0.265,
177,-0.235,0.28,
178,-0.24,0.305,
179,-0.25,0.305,
180,-0.255,0.285,
181,-0.25,0.26,
182,-0.225,0.28,
183,-0.19,0.28,
184,-0.19,0.27,
185,-0.195,0.25,
186,-0.195,0.225,
187,-0.165,0.195,
188,-0.13,0.18,
189,-0.065,0.165,
190,-0.02,0.115,
191,-0.005,0.08,
192,0.04,0.015,
193,0.115,-0.04,
194,0.225,-0.1,
195,0.33,-0.16,
196,0.415,-0.245,
197,0.47,-0.32,
198,0.53,-0.41,
199,0.625,-0.465,
200,0.77,-0.55,
201,0.89,-0.6,
202,1.0,-0.66,
203,1.07,-0.725,
204,1.155,-0.785,
205,1.265,-0.825,
206,1.4,-0.855,
207,1.535,-0.87,
208,1.66,-0.875,
209,1.705,-0.885,V
210,1.675,-0.86,
211,1.6,-0.8,
212,1.525,-0.725,
213,1.47,-0.625,
214,1.405,-0.535,
215,1.31,-0.45,
216,1.225,-0.345,
217,1.195,-0.25,
218,1.15,-0.165,
219,1.085,-0.1,
220,1.01,-0.065,
221,0.935,-0.055,
222,0.875,-0.045,
223,0.885,-0.055,
224,0.9,-0.04,
225,0.875,-0.045,
226,0.76,-0.065,
227,0.605,-0.06,
228,0.455,-0.045,
229,0.28,-0.005,
230,0.125,0.07,
231,-0.07,0.165,
232,-0.245,0.255,
233,-0.4,0.335,
234,-0.49,0.365,
235,-0.51,0.41,
236,-0.545,0.42,
237,-0.595,0.46,
238,-0.635,0.465,
239,-0.655,0.48,
240,-0.675,0.485,
241,-0.685,0.495,
242,-0.705,0.505,
243,-0.72,0.525,
244,-0.72,0.525,
245,-0.735,0.535,
246,-0.75,0.535,
247,-0.765,0.55,
248,-0.75,0.545,
249,-0.77,0.57,
250,-0.795,0.595,
251,-0.795,0.6,
252,-0.82,0.6,
253,-0.82,0.6,
254,-0.825,0.615,
255,-0.855,0.63,
256,-0.86,0.65,
257,-0.88,0.665,
258,-0.885,0.66,
259,-0.905,0.665,
260,-0.905,0.68,
261,-0.905,0.695,
262,-0.925,0.725,
263,-0.94,0.735,
264,-0.975,0.735,
265,-0.98,0.75,
266,-0.98,0.755,
267,-0.965,0.785,
268,-0.965,0.8,
269,-0.995,0.795,
270,-1.015,0.79,
271,-1.02,0.79,
272,-1.025,0.815,
273,-1.03,0.825,
274,-1.035,0.825,
275,-1.035,0.825,
276,-1.04,0.81,
277,-1.035,0.79,
278,-1.04,0.79,
279,-0.995,0.78,
280,-0.99,0.775,
281,-1.0,0.77,
282,-1.01,0.72,
283,-0.995,0.7,
284,-0.965,0.675,
285,-0.91,0.67,
286,-0.905,0.64,
287,-0.905,0.62,
288,-0.885,0.585,
289,-0.85,0.535,
290,-0.79,0.515,
291,-0.745,0.515,
292,-0.72,0.49,
293,-0.715,0.475,
294,-0.695,0.425,
295,-0.665,0.405,
296,-0.605,0.4,
297,-0.565,0.385,
298,-0.54,0.395,
299,-0.53,0.365,
300,-0.515,0.33,
301,-0.475,0.32,
302,-0.445,0.32,
303,-0.415,0.33,
304,-0.41,0.315,
305,-0.41,0.31,
306,-0.41,0.29,
307,-0.395,0.275,
308,-0.38,0.295,
309,-0.355,0.29,
310,-0.355,0.295,
311,-0.385,0.295,
312,-0.39,0.285,
313,-0.39,0.275,
314,-0.36,0.28,
315,-0.34,0.295,
316,-0.35,0.31,
317,-0.365,0.295,
318,-0.385,0.285,
319,-0.385,0.28,
320,-0.36,0.295,
321,-0.345,0.295,
322,-0.365,0.29,
323,-0.36,0.29,
324,-0.37,0.295,
325,-0.36,0.275,
326,-0.345,0.29,
327,-0.34,0.29,
328,-0.36,0.29,
329,-0.37,0.29,
330,-0.37,0.265,
331,-0.355,0.275,
332,-0.335,0.28,
333,-0.33,0.27,
334,-0.345,0.28,
335,-0.35,0.275,
336,-0.355,0.27,
337,-0.335,0.255,
338,-0.33,0.255,
339,-0.32,0.265,
340,-0.32,0.275,
341,-0.325,0.275,
342,-0.34,0.255,
343,-0.32,0.245,
344,-0.305,0.245,
345,-0.305,0.255,
346,-0.295,0.265,
347,-0.29,0.265,
348,-0.3,0.255,
349,-0.3,0.255,
350,-0.295,0.255,
351,-0.29,0.26,
352,-0.28,0.26,
353,-0.295,0.265,
354,-0.305,0.26,
355,-0.3,0.245,
356,-0.29,0.25,
357,-0.28,0.245,
358,-0.285,0.255,
359,-0.28,0.26,
360,-0.315,0.23,
361,-0.285,0.23,
362,-0.275,0.23,
363,-0.265,0.255,
364,-0.26,0.255,
365,-0.275,0.265,
366,-0.29,0.245,
367,-0.28,0.225,
368,-0.275,0.235,
369,-0.265,0.245,
370,-0.26,0.26,
371,-0.27,0.245,
372,-0.285,0.235,
373,-0.28,0.23,
374,-0.265,0.23,
375,-0.255,0.23,
376,-0.26,0.245,
377,-0.27,0.245,
378,-0.28,0.23,
379,-0.28,0.215,
380,-0.27,0.215,
381,-0.26,0.245,
382,-0.26,0.245,
383,-0.255,0.235,
384,-0.275,0.21,
385,-0.29,0.205,
386,-0.275,0.22,
387,-0.25,0.24,
388,-0.255,0.25,
389,-0.26,0.24,
390,-0.285,0.22,
391,-0.29,0.22,
392,-0.28,0.225,
393,-0.26,0.235,
394,-0.25,0.25,
395,-0.285,0.24,
396,-0.28,0.215,
397,-0.28,0.205,
398,-0.265,0.22,
399,-0.245,0.23,
400,-0.235,0.245,
401,-0.265,0.235,
402,-0.28,0.215,
403,-0.28,0.215,
404,-0.255,0.215,
405,-0.235,0.23,
406,-0.23,0.24,
407,-0.25,0.22,
408,-0.26,0.22,
409,-0.26,0.205,
410,-0.235,0.21,
411,-0.235,0.225,
412,-0.23,0.22,
413,-0.25,0.22,
414,-0.255,0.2,
415,-0.255,0.2,
416,-0.235,0.22,
417,-0.22,0.22,
418,-0.235,0.225,
419,-0.245,0.215,
420,-0.26,0.21,
421,-0.255,0.2,
422,-0.23,0.215,
423,-0.21,0.225,
424,-0.21,0.23,
425,-0.23,0.23,
426,-0.23,0.225,
427,-0.21,0.22,
428,-0.18,0.24,
429,-0.15,0.255,
430,-0.16,0.255,
431,-0.17,0.255,
432,-0.175,0.25,
433,-0.135,0.24,
434,-0.09,0.245,
435,-0.065,0.255,
436,-0.065,0.24,
437,-0.095,0.23,
438,-0.105,0.195,
439,-0.095,0.175,
440,-0.09,0.185,
441,-0.07,0.19,
442,-0.085,0.18,
443,-0.125,0.17,
444,-0.145,0.17,
445,-0.15,0.165,
446,-0.145,0.17,
447,-0.165,0.18,
448,-0.205,0.185,
449,-0.245,0.19,
450,-0.25,0.195,
451,-0.235,0.19,
452,-0.21,0.19,
453,-0.22,0.21,
454,-0.24,0.215,
455,-0.255,0.205,
456,-0.265,0.195,
457,-0.255,0.2,
458,-0.235,0.19,
459,-0.25,0.2,
460,-0.27,0.215,
461,-0.29,0.2,
462,-0.28,0.195,
463,-0.245,0.2,
464,-0.22,0.2,
465,-0.235,0.21,
466,-0.245,0.21,
467,-0.26,0.205,
468,-0.26,0.19,
469,-0.25,0.185,
470,-0.225,0.19,
471,-0.225,0.19,
472,-0.25,0.17,
473,-0.27,0.18,
474,-0.26,0.17,
475,-0.2,0.165,
476,-0.085,0.13,
477,0.06,0.085,
478,0.215,0.02,
479,0.42,-0.04,
480,0.68,-0.045,
481,0.98,-0.035,
482,1.265,-0.045,
483,1.465,-0.04,N
484,1.485,0.01,
485,1.26,0.085,
486,0.935,0.13,
487,0.59,0.135,
488,0.24,0.15,
489,-0.03,0.13,
490,-0.18,0.105,
491,-0.255,0.09,
492,-0.255,0.095,
493,-0.27,0.11,
494,-0.27,0.155,
495,-0.275,0.18,
496,-0.265,0.21,
497,-0.27,0.215,
498,-0.275,0.21,
499,-0.285,0.21,
500,-0.295,0.215,
501,-0.305,0.235,
502,-0.31,0.23,
503,-0.31,0.23,
504,-0.31,0.225,
505,-0.315,0.22,
506,-0.315,0.215,
507,-0.32,0.22,
508,-0.305,0.23,
509,-0.295,0.23,
510,-0.29,0.225,
511,-0.3,0.215,
512,-0.32,0.22,
513,-0.295,0.225,
514,-0.295,0.225,
515,-0.295,0.24,
516,-0.295,0.22,
517,-0.295,0.21,
518,-0.285,0.22,
519,-0.28,0.23,
520,-0.28,0.245,
521,-0.26,0.24,
522,-0.29,0.225,
523,-0.27,0.205,
524,-0.265,0.2,
525,-0.25,0.21,
526,-0.245,0.215,
527,-0.245,0.215,
528,-0.27,0.195,
529,-0.255,0.18,
530,-0.245,0.165,
531,-0.225,0.185,
532,-0.215,0.195,
533,-0.215,0.18,
534,-0.23,0.16,
535,-0.225,0.155,
536,-0.195,0.16,
537,-0.195,0.16,
538,-0.185,0.175,
539,-0.195,0.15,
540,-0.185,0.135,
541,-0.17,0.12,
542,-0.15,0.12,
543,-0.13,0.13,
544,-0.12,0.12,
545,-0.125,0.115,
546,-0.12,0.085,
547,-0.11,0.065,
548,-0.08,0.055,
549,-0.06,0.055,
550,-0.035,0.05,
551,-0.03,0.04,
552,-0.03,0.005,
553,-0.015,-0.01,
554,0.005,-0.015,
555,0.04,-0.015,
556,0.06,-0.015,
557,0.07,-0.02,
558,0.06,-0.055,
559,0.065,-0.075,
560,0.09,-0.065,
561,0.125,-0.075,
562,0.15,-0.06,
563,0.12,-0.06,
564,0.125,-0.085,
565,0.12,-0.09,
566,0.14,-0.09,
567,0.17,-0.06,
568,0.175,-0.045,
569,0.16,-0.05,
570,0.145,-0.055,
571,0.125,-0.05,
572,0.14,-0.02,
573,0.145,0.0,
574,0.14,0.03,
575,0.11,0.045,
576,0.07,0.045,
577,0.04,0.055,
578,0.03,0.085,
579,0.04,0.125,
580,0.02,0.15,
581,-0.02,0.155,
582,-0.06,0.155,
583,-0.07,0.17,
584,-0.08,0.195,
585,-0.075,0.215,
586,-0.085,0.245,
587,-0.115,0.24,
588,-0.16,0.24,
589,-0.18,0.24,
590,-0.165,0.26,
591,-0.165,0.27,
592,-0.165,0.29,
593,-0.205,0.28,
594,-0.235,0.27,
595,-0.23,0.26,
596,-0.22,0.28,
597,-0.2,0.29,
598,-0.21,0.305,
599,-0.225,0.305,
600,-0.255,0.29,
601,-0.25,0.28,
602,-0.225,0.295,
603,-0.22,0.3,
604,-0.21,0.315,
605,-0.235,0.305,
606,-0.25,0.285,
607,-0.255,0.28,
608,-0.23,0.285,
609,-0.225,0.305,
610,-0.225,0.315,
611,-0.225,0.305,
612,-0.255,0.29,
613,-0.245,0.275,
614,-0.23,0.285,
615,-0.21,0.285,
616,-0.2,0.29,
617,-0.215,0.28,
618,-0.235,0.275,
619,-0.23,0.26,
620,-0.22,0.255,
621,-0.205,0.275,
622,-0.2,0.285,
623,-0.23,0.27,
624,-0.245,0.25,
625,-0.235,0.24,
626,-0.215,0.245,
627,-0.2,0.275,
628,-0.195,0.27,
629,-0.22,0.265,
630,-0.25,0.245,
631,-0.26,0.25,
632,-0.23,0.26,
633,-0.22,0.275,
634,-0.21,0.275,
635,-0.225,0.265,
636,-0.245,0.26,
637,-0.22,0.265,
638,-0.2,0.275,
639,-0.175,0.3,
640,-0.16,0.305,
641,-0.18,0.3,
642,-0.18,0.285,
643,-0.155,0.275,
644,-0.115,0.27,
645,-0.08,0.29,
646,-0.06,0.295,
647,-0.07,0.27,
648,-0.08,0.235,
649,-0.085,0.225,
650,-0.065,0.22,
651,-0.055,0.21,
652,-0.06,0.215,
653,-0.085,0.225,
654,-0.115,0.195,
655,-0.125,0.19,
656,-0.135,0.21,
657,-0.13,0.215,
658,-0.14,0.225,
659,-0.18,0.225,
660,-0.22,0.21,
661,-0.24,0.22,
662,-0.245,0.245,
663,-0.24,0.28,
664,-0.235,0.305,
665,-0.255,0.285,
666,-0.26,0.275,
667,-0.235,0.26,
668,-0.195,0.23,
669,-0.15,0.215,
670,-0.1,0.17,
671,-0.06,0.125,
672,-0.035,0.06,
673,0.035,0.0,
674,0.115,-0.06,
675,0.2,-0.12,
676,0.29,-0.22,
677,0.35,-0.335,
678,0.415,-0.445,
679,0.49,-0.54,
680,0.57,-0.6,
681,0.63,-0.65,
682,0.67,-0.705,
683,0.69,-0.79,
684,0.745,-0.87,
685,0.83,-0.94,
686,0.94,-0.98,
687,1.025,-0.995,
688,1.06,-1.01,
689,1.085,-1.045,
690,1.19,-1.1,
691,1.37,-1.13,
692,1.51,-1.155,
693,1.605,-1.165,
694,1.66,-1.18,
695,1.69,-1.16,
696,1.765,-1.115,
697,1.855,-1.05,F
698,1.935,-0.925,
699,1.945,-0.765,
700,1.735,-0.585,
701,1.335,-0.36,
702,0.93,-0.18,
703,0.61,-0.035,
704,0.33,0.085,
705,0.1,0.17,
706,-0.1,0.21,
707,-0.265,0.255,
708,-0.375,0.29,
709,-0.41,0.31,
710,-0.405,0.345,
711,-0.415,0.385,
712,-0.46,0.405,
713,-0.495,0.405,
714,-0.545,0.415,
715,-0.545,0.42,
716,-0.545,0.435,
717,-0.545,0.465,
718,-0.56,0.465,
719,-0.59,0.465,
720,-0.615,0.465,
721,-0.61,0.46,
722,-0.61,0.475,
723,-0.605,0.49,
724,-0.6,0.505,
725,-0.63,0.495,
726,-0.645,0.495,
727,-0.63,0.49,
728,-0.615,0.515,
729,-0.615,0.525,
730,-0.615,0.545,
731,-0.66,0.54,
732,-0.685,0.54,
733,-0.675,0.535,
734,-0.66,0.565,
735,-0.65,0.59,
736,-0.655,0.6,
737,-0.69,0.62,
738,-0.72,0.605,
739,-0.725,0.615,
740,-0.7,0.64,
741,-0.7,0.665,
742,-0.715,0.685,
743,-0.745,0.685,
744,-0.76,0.685,
745,-0.765,0.695,
746,-0.755,0.715,
747,-0.755,0.745,
748,-0.755,0.76,
749,-0.79,0.76,
750,-0.805,0.76,
751,-0.795,0.755,
752,-0.785,0.775,
753,-0.77,0.8,
754,-0.78,0.815,
755,-0.8,0.815,
756,-0.825,0.815,
757,-0.83,0.805,
758,-0.82,0.83,
759,-0.8,0.845,
760,-0.79,0.855,
761,-0.805,0.84,
762,-0.84,0.82,
763,-0.83,0.815,
764,-0.805,0.805,
765,-0.785,0.81,
766,-0.765,0.805,
767,-0.765,0.78,
768,-0.78,0.745,
769,-0.76,0.735,
770,-0.715,0.72,
771,-0.67,0.71,
772,-0.67,0.69,
773,-0.675,0.66,
774,-0.675,0.61,
775,-0.635,0.575,
776,-0.59,0.56,
777,-0.555,0.555,
778,-0.535,0.545,
779,-0.545,0.495,
780,-0.52,0.47,
781,-0.495,0.44,
782,-0.445,0.41,
783,-0.415,0.41,
784,-0.395,0.4,
785,-0.415,0.375,
786,-0.42,0.36,
787,-0.38,0.34,
788,-0.36,0.33,
789,-0.35,0.35,
790,-0.34,0.325,
791,-0.35,0.315,
792,-0.365,0.305,
793,-0.37,0.29,
794,-0.34,0.3,
795,-0.31,0.315,
796,-0.325,0.315,
797,-0.355,0.305,
798,-0.37,0.285,
799,-0.355,0.285,
800,-0.34,0.295,
801,-0.33,0.305,
802,-0.33,0.3,
803,-0.37,0.3,
804,-0.385,0.285,
805,-0.36,0.28,
806,-0.35,0.285,
807,-0.34,0.305,
808,-0.325,0.3,
809,-0.355,0.285,
810,-0.375,0.265,
811,-0.35,0.255,
812,-0.345,0.285,
813,-0.33,0.29,
814,-0.325,0.295,
815,-0.36,0.295,
816,-0.365,0.28,
817,-0.35,0.275,
818,-0.34,0.285,
819,-0.32,0.3,
820,-0.33,0.29,
821,-0.35,0.285,
822,-0.355,0.265,
823,-0.355,0.275,
824,-0.335,0.275,
825,-0.325,0.3,
826,-0.33,0.3,
827,-0.345,0.31,
828,-0.355,0.295,
829,-0.355,0.285,
830,-0.325,0.29,
831,-0.305,0.315,
832,-0.285,0.295,
833,-0.295,0.265,
834,-0.275,0.245,
835,-0.245,0.225,
836,-0.19,0.21,
837,-0.15,0.185,
838,-0.135,0.155,
839,-0.11,0.09,
840,-0.055,0.025,
841,0.045,-0.055,
842,0.17,-0.145,
843,0.27,-0.245,
844,0.39,-0.335,
845,0.49,-0.425,
846,0.595,-0.535,
847,0.71,-0.635,
848,0.805,-0.74,
849,0.91,-0.8,
850,0.975,-0.84,
851,1.035,-0.865,
852,1.105,-0.885,
853,1.185,-0.9,V
854,1.23,-0.875,
855,1.23,-0.82,
856,1.175,-0.75,
857,1.1,-0.69,
858,1.025,-0.625,
859,0.995,-0.525,
860,0.98,-0.405,
861,0.97,-0.27,
862,0.93,-0.195,
863,0.885,-0.145,
864,0.855,-0.115,
865,0.865,-0.085,
866,0.88,-0.025,
867,0.88,0.005,
868,0.895,0.025,
869,0.88,0.025,
870,0.885,0.02,
871,0.845,-0.005,
872,0.785,0.0,
873,0.655,0.025,
874,0.52,0.07,
875,0.3,0.12,
876,0.095,0.19,
877,-0.075,0.24,
878,-0.205,0.3,
879,-0.305,0.33,
880,-0.375,0.365,
881,-0.43,0.38,
882,-0.475,0.385,
883,-0.49,0.4,
884,-0.53,0.415,
885,-0.575,0.425,
886,-0.62,0.445,
887,-0.665,0.45,
888,-0.69,0.475,
889,-0.71,0.495,
890,-0.715,0.48,
891,-0.725,0.505,
892,-0.765,0.52,
893,-0.805,0.52,
894,-0.82,0.51,
895,-0.81,0.525,
896,-0.8,0.535,
897,-0.81,0.545,
898,-0.83,0.55,
899,-0.845,0.55,
900,-0.865,0.545,
901,-0.88,0.555,
902,-0.87,0.56,
903,-0.88,0.58,
904,-0.895,0.595,
905,-0.92,0.61,
906,-0.94,0.605,
907,-0.945,0.6,
908,-0.96,0.61,
909,-0.97,0.635,
910,-0.97,0.635,
911,-1.01,0.665,
912,-1.015,0.64,
913,-1.015,0.65,
914,-1.015,0.665,
915,-1.02,0.68,
916,-1.06,0.695,
917,-1.08,0.7,
918,-1.105,0.685,
919,-1.095,0.69,
920,-1.09,0.695,
921,-1.11,0.695,
922,-1.12,0.695,
923,-1.14,0.695,
924,-1.14,0.67,
925,-1.14,0.65,
926,-1.14,0.64,
927,-1.125,0.64,
928,-1.11,0.625,
929,-1.11,0.62,
930,-1.105,0.6,
931,-1.1,0.59,
932,-1.08,0.57,
933,-1.05,0.565,
934,-1.01,0.555,
935,-0.985,0.525,
936,-0.97,0.49,
937,-0.96,0.485,
938,-0.905,0.465,
939,-0.865,0.46,
940,-0.83,0.43,
941,-0.81,0.41,
942,-0.775,0.385,
943,-0.735,0.36,
944,-0.69,0.36,
945,-0.655,0.36,
946,-0.615,0.35,
947,-0.6,0.34,
948,-0.58,0.31,
949,-0.575,0.3,
950,-0.54,0.29,
951,-0.51,0.3,
952,-0.485,0.305,
953,-0.485,0.285,
954,-0.49,0.275,
955,-0.48,0.27,
956,-0.455,0.27,
957,-0.455,0.28,
958,-0.445,0.29,
959,-0.445,0.29,
960,-0.455,0.28,
961,-0.465,0.265,
962,-0.43,0.26,
963,-0.42,0.285,
964,-0.415,0.29,
965,-0.44,0.29,
966,-0.465,0.29,
967,-0.44,0.28,
968,-0.42,0.28,
969,-0.4,0.3,
970,-0.41,0.3,
971,-0.41,0.29,
972,-0.445,0.265,
973,-0.435,0.26,
974,-0.42,0.27,
975,-0.39,0.285,
976,-0.395,0.295,
977,-0.395,0.285,
978,-0.42,0.275,
979,-0.425,0.265,
980,-0.405,0.275,
981,-0.395,0.27,
982,-0.385,0.29,
983,-0.385,0.28,
984,-0.41,0.255,
985,-0.395,0.245,
986,-0.385,0.25,
987,-0.365,0.265,
988,-0.355,0.275,
989,-0.375,0.265,
990,-0.395,0.25,
991,-0.39,0.24,
992,-0.38,0.25,
993,-0.35,0.265,
994,-0.35,0.265,
995,-0.365,0.26,
996,-0.385,0.255,
997,-0.39,0.24,
998,-0.345,0.25,
999,-0.34,0.265,
1000,-0.36,0.25,
1001,-0.38,0.235,
1002,-0.375,0.23,
1003,-0.34,0.24,
1004,-0.325,0.245,
1005,-0.335,0.245,
1006,-0.35,0.235,
1007,-0.355,0.225,
1008,-0.34,0.21,
1009,-0.32,0.22,
1010,-0.315,0.245,
1011,-0.315,0.235,
1012,-0.335,0.235,
1013,-0.34,0.215,
1014,-0.335,0.22,
1015,-0.31,0.225,
1016,-0.305,0.235,
1017,-0.32,0.23,
1018,-0.365,0.225,
1019,-0.38,0.205,
1020,-0.345,0.205,
1021,-0.34,0.22,
1022,-0.32,0.215,
1023,-0.33,0.225,
1024,-0.33,0.225,
1025,-0.345,0.205,
1026,-0.335,0.195,
1027,-0.32,0.215,
1028,-0.305,0.21,
1029,-0.305,0.21,
1030,-0.325,0.21,
1031,-0.325,0.2,
1032,-0.33,0.185,
1033,-0.29,0.2,
1034,-0.29,0.22,
1035,-0.295,0.215,
1036,-0.32,0.205,
1037,-0.33,0.2,
1038,-0.33,0.19,
1039,-0.295,0.2,
1040,-0.285,0.215,
1041,-0.305,0.205,
1042,-0.34,0.2,
1043,-0.335,0.19,
1044,-0.325,0.19,
1045,-0.325,0.19,
1046,-0.305,0.205,
1047,-0.315,0.21,
1048,-0.325,0.21,
1049,-0.335,0.2,
1050,-0.325,0.19,
1051,-0.3,0.2,
1052,-0.295,0.2,
1053,-0.31,0.19,
1054,-0.32,0.19,
1055,-0.33,0.17,
1056,-0.32,0.165,
1057,-0.31,0.185,
1058,-0.28,0.2,
1059,-0.295,0.2,
1060,-0.32,0.185,
1061,-0.335,0.17,
1062,-0.33,0.175,
1063,-0.32,0.175,
1064,-0.295,0.18,
1065,-0.285,0.185,
1066,-0.32,0.195,
1067,-0.32,0.165,
1068,-0.31,0.175,
1069,-0.3,0.18,
1070,-0.27,0.195,
1071,-0.275,0.185,
1072,-0.3,0.175,
1073,-0.31,0.175,
1074,-0.305,0.155,
1075,-0.285,0.18,
1076,-0.275,0.195,
1077,-0.275,0.195,
1078,-0.3,0.185,
1079,-0.315,0.165,
1080,-0.32,0.165,
1081,-0.285,0.165,
1082,-0.26,0.185,
1083,-0.28,0.19,
1084,-0.295,0.175,
1085,-0.295,0.155,
1086,-0.285,0.165,
1087,-0.28,0.155,
1088,-0.275,0.175,
1089,-0.285,0.17,
1090,-0.29,0.165,
1091,-0.3,0.16,
1092,-0.305,0.16,
1093,-0.29,0.155,
1094,-0.265,0.18,
1095,-0.29,0.19,
1096,-0.285,0.165,
1097,-0.295,0.15,
1098,-0.295,0.145,
1099,-0.28,0.165,
1100,-0.26,0.17,
1101,-0.265,0.18,
1102,-0.29,0.175,
1103,-0.315,0.16,
1104,-0.305,0.155,
1105,-0.285,0.165,
1106,-0.26,0.165,
1107,-0.285,0.175,
1108,-0.28,0.17,
1109,-0.3,0.15,
1110,-0.295,0.145,
1111,-0.27,0.16,
1112,-0.26,0.17,
1113,-0.26,0.17,
1114,-0.28,0.17,
1115,-0.29,0.155,
1116,-0.29,0.14,
1117,-0.285,0.16,
1118,-0.255,0.185,
1119,-0.25,0.18,
1120,-0.255,0.17,
1121,-0.265,0.16,
1122,-0.245,0.165,
1123,-0.225,0.17,
1124,-0.2,0.195,
1125,-0.185,0.2,
1126,-0.19,0.195,
1127,-0.19,0.175,
1128,-0.185,0.17,
1129,-0.155,0.17,
1130,-0.11,0.155,
1131,-0.1,0.155,
1132,-0.095,0.125,
1133,-0.105,0.1,
1134,-0.1,0.09,
1135,-0.095,0.095,
1136,-0.085,0.105,
1137,-0.08,0.12,
1138,-0.12,0.105,
1139,-0.15,0.105,
1140,-0.17,0.085,
1141,-0.145,0.08,
1142,-0.15,0.1,
1143,-0.155,0.095,
1144,-0.19,0.09,
1145,-0.2,0.065,
1146,-0.205,0.075,
1147,-0.235,0.09,
1148,-0.21,0.12,
1149,-0.21,0.135,
1150,-0.23,0.135,
1151,-0.245,0.105,
1152,-0.265,0.105,
1153,-0.245,0.1,
1154,-0.225,0.12,
1155,-0.225,0.125,
1156,-0.23,0.125,
1157,-0.26,0.105,
1158,-0.245,0.095,
1159,-0.23,0.105,
1160,-0.22,0.12,
1161,-0.225,0.11,
1162,-0.24,0.11,
1163,-0.245,0.105,
1164,-0.255,0.1,
1165,-0.235,0.105,
1166,-0.23,0.11,
1167,-0.22,0.12,
1168,-0.24,0.1,
1169,-0.25,0.07,
1170,-0.27,0.065,
1171,-0.275,0.065,
1172,-0.255,0.075,
1173,-0.205,0.085,
1174,-0.115,0.045,
1175,0.025,-0.03,
1176,0.21,-0.11,
1177,0.485,-0.145,
1178,0.795,-0.13,
1179,1.08,-0.12,
1180,1.33,-0.115,
1181,1.52,-0.13,N
1182,1.56,-0.095,
1183,1.355,-0.025,
1184,0.995,0.04,
1185,0.57,0.095,
1186,0.175,0.085,
1187,-0.095,0.04,
1188,-0.2,0.01,
1189,-0.22,-0.01,
1190,-0.225,0.0,
1191,-0.22,0.025,
1192,-0.25,0.06,
1193,-0.255,0.08,
1194,-0.25,0.085,
1195,-0.22,0.095,
1196,-0.225,0.11,
1197,-0.24,0.125,
1198,-0.25,0.11,
1199,-0.265,0.11,
1200,-0.275,0.11,
1201,-0.25,0.105,
1202,-0.26,0.12,
1203,-0.285,0.12,
1204,-0.3,0.125,
1205,-0.29,0.115,
1206,-0.29,0.11,
1207,-0.265,0.095,
1208,-0.26,0.11,
1209,-0.265,0.115,
1210,-0.275,0.11,
1211,-0.28,0.1,
1212,-0.285,0.075,
1213,-0.255,0.095,
1214,-0.235,0.115,
1215,-0.265,0.115,
1216,-0.27,0.105,
1217,-0.275,0.085,
1218,-0.27,0.08,
1219,-0.25,0.09,
1220,-0.225,0.095,
1221,-0.22,0.105,
1222,-0.235,0.105,
1223,-0.24,0.09,
1224,-0.24,0.065,
1225,-0.23,0.075,
1226,-0.21,0.085,
1227,-0.205,0.085,
1228,-0.22,0.07,
1229,-0.21,0.06,
1230,-0.195,0.045,
1231,-0.19,0.05,
1232,-0.175,0.06,
1233,-0.16,0.06,
1234,-0.16,0.045,
1235,-0.165,0.035,
1236,-0.155,0.01,
1237,-0.13,0.02,
1238,-0.135,0.035,
1239,-0.125,0.035,
1240,-0.115,0.015,
1241,-0.11,-0.005,
1242,-0.11,-0.015,
1243,-0.08,-0.025,
1244,-0.065,-0.03,
1245,-0.05,-0.02,
1246,-0.06,-0.04,
1247,-0.05,-0.065,
1248,-0.045,-0.075,
1249,-0.005,-0.085,
1250,0.015,-0.08,
1251,0.02,-0.09,
1252,0.025,-0.105,
1253,0.015,-0.135,
1254,0.035,-0.145,
1255,0.065,-0.145,
1256,0.105,-0.15,
1257,0.115,-0.155,
1258,0.105,-0.165,
1259,0.095,-0.19,
1260,0.125,-0.18,
1261,0.14,-0.2,
1262,0.17,-0.185,
1263,0.165,-0.18,
1264,0.155,-0.19,
1265,0.15,-0.205,
1266,0.155,-0.215,
1267,0.18,-0.21,
1268,0.195,-0.205,
1269,0.215,-0.18,
1270,0.2,-0.19,
1271,0.205,-0.185,
1272,0.205,-0.19,
1273,0.21,-0.175,
1274,0.215,-0.155,
1275,0.22,-0.135,
1276,0.185,-0.13,
1277,0.175,-0.125,
1278,0.17,-0.12,
1279,0.17,-0.09,
1280,0.18,-0.06,
1281,0.16,-0.04,
1282,0.13,-0.025,
1283,0.1,-0.025,
1284,0.07,-0.015,
1285,0.05,0.01,
1286,0.035,0.025,
1287,0.025,0.04,
1288,0.01,0.06,
1289,-0.015,0.05,
1290,-0.035,0.05,
1291,-0.045,0.085,
1292,-0.06,0.095,
1293,-0.065,0.1,
1294,-0.08,0.1,
1295,-0.09,0.1,
1296,-0.09,0.09,
1297,-0.095,0.1,
1298,-0.085,0.115,
1299,-0.09,0.12,
1300,-0.095,0.125,
1301,-0.11,0.115,
1302,-0.11,0.115,
1303,-0.105,0.12,
1304,-0.09,0.13,
1305,-0.095,0.13,
1306,-0.12,0.13,
1307,-0.12,0.125,
1308,-0.125,0.115,
1309,-0.105,0.115,
1310,-0.1,0.125,
1311,-0.105,0.125,
1312,-0.105,0.12,
1313,-0.1,0.11,
1314,-0.11,0.095,
1315,-0.1,0.095,
1316,-0.1,0.105,
1317,-0.11,0.115,
1318,-0.115,0.105,
1319,-0.12,0.08,
1320,-0.12,0.075,
1321,-0.11,0.085,
1322,-0.09,0.105,
1323,-0.1,0.1,
1324,-0.115,0.1,
1325,-0.115,0.085,
1326,-0.105,0.07,
1327,-0.095,0.075,
1328,-0.09,0.085,
1329,-0.09,0.095,
1330,-0.1,0.09,
1331,-0.105,0.09,
1332,-0.09,0.075,
1333,-0.1,0.08,
1334,-0.07,0.095,
1335,-0.075,0.095,
1336,-0.09,0.105,
1337,-0.09,0.09,
1338,-0.08,0.09,
1339,-0.045,0.105,
1340,-0.05,0.13,
1341,-0.035,0.12,
1342,-0.03,0.12,
1343,-0.03,0.105,
1344,-0.025,0.105,
1345,0.025,0.11,
1346,0.035,0.13,
1347,0.06,0.125,
1348,0.05,0.13,
1349,0.045,0.1,
1350,0.065,0.09,
1351,0.08,0.08,
1352,0.09,0.08,
1353,0.1,0.075,
1354,0.095,0.055,
1355,0.11,0.01,
1356,0.15,-0.02,
1357,0.195,-0.06,
1358,0.225,-0.09,
1359,0.275,-0.16,
1360,0.315,-0.24,
1361,0.36,-0.345,
1362,0.45,-0.45,
1363,0.555,-0.54,
1364,0.625,-0.6,
1365,0.675,-0.655,
1366,0.71,-0.715,
1367,0.78,-0.775,
1368,0.85,-0.835,
1369,0.935,-0.865,
1370,1.045,-0.89,
1371,1.13,-0.92,
1372,1.195,-0.955,
1373,1.245,-0.985,
1374,1.305,-1.035,
1375,1.415,-1.065,
1376,1.535,-1.055,
1377,1.635,-1.045,
1378,1.645,-1.005,V
1379,1.61,-0.97,
1380,1.56,-0.91,
1381,1.53,-0.83,
1382,1.5,-0.755,
1383,1.45,-0.665,
1384,1.37,-0.575,
1385,1.305,-0.51,
1386,1.255,-0.435,
1387,1.235,-0.355,
1388,1.185,-0.295,
1389,1.145,-0.27,
1390,1.085,-0.255,
1391,1.04,-0.26,
1392,1.01,-0.26,
1393,1.005,-0.25,
1394,0.995,-0.235,
1395,0.96,-0.23,
1396,0.89,-0.23,
1397,0.785,-0.24,
1398,0.68,-0.235,
1399,0.56,-0.19,
1400,0.395,-0.13,
1401,0.19,-0.05,
1402,-0.025,0.03,
1403,-0.185,0.095,
1404,-0.29,0.15,
1405,-0.36,0.2,
1406,-0.38,0.25,
1407,-0.43,0.27,
1408,-0.48,0.28,
1409,-0.5,0.275,
1410,-0.51,0.29,
1411,-0.515,0.3,
1412,-0.53,0.32,
1413,-0.55,0.335,
1414,-0.58,0.345,
1415,-0.59,0.345,
1416,-0.595,0.34,
1417,-0.585,0.365,
1418,-0.595,0.385,
1419,-0.605,0.395,
1420,-0.615,0.385,
1421,-0.63,0.39,
1422,-0.63,0.4,
1423,-0.63,0.405,
1424,-0.63,0.44,
1425,-0.645,0.455,
1426,-0.675,0.475,
1427,-0.695,0.48,
1428,-0.7,0.48,
1429,-0.695,0.515,
1430,-0.71,0.53,
1431,-0.735,0.56,
1432,-0.75,0.56,
1433,-0.76,0.555,
1434,-0.77,0.565,
1435,-0.76,0.605,
1436,-0.765,0.62,
1437,-0.77,0.655,
1438,-0.805,0.66,
1439,-0.825,0.65,
1440,-0.825,0.655,
1441,-0.815,0.675,
1442,-0.82,0.69,
1443,-0.83,0.715,
1444,-0.865,0.705,
1445,-0.87,0.71,
1446,-0.885,0.715,
1447,-0.88,0.715,
1448,-0.88,0.725,
1449,-0.875,0.735,
1450,-0.885,0.72,
1451,-0.9,0.7,
1452,-0.885,0.705,
1453,-0.89,0.695,
1454,-0.885,0.705,
1455,-0.895,0.7,
1456,-0.89,0.67,
1457,-0.89,0.65,
1458,-0.88,0.625,
1459,-0.85,0.63,
1460,-0.835,0.61,
1461,-0.815,0.61,
1462,-0.825,0.58,
1463,-0.81,0.545,
1464,-0.785,0.505,
1465,-0.745,0.495,
1466,-0.705,0.465,
1467,-0.69,0.44,
1468,-0.68,0.415,
1469,-0.67,0.375,
1470,-0.615,0.335,
1471,-0.57,0.325,
1472,-0.52,0.315,
1473,-0.49,0.285,
1474,-0.47,0.255,
1475,-0.45,0.24,
1476,-0.41,0.205,
1477,-0.38,0.2,
1478,-0.345,0.205,
1479,-0.32,0.195,
1480,-0.32,0.19,
1481,-0.305,0.145,
1482,-0.28,0.14,
1483,-0.24,0.135,
1484,-0.225,0.14,
1485,-0.215,0.14,
1486,-0.23,0.14,
1487,-0.225,0.11,
1488,-0.225,0.115,
1489,-0.22,0.11,
1490,-0.2,0.13,
1491,-0.19,0.115,
1492,-0.215,0.105,
1493,-0.225,0.1,
1494,-0.225,0.1,
1495,-0.2,0.11,
1496,-0.205,0.115,
1497,-0.2,0.13,
1498,-0.215,0.11,
1499,-0.235,0.11,
1500,-0.22,0.095,
1501,-0.2,0.105,
1502,-0.19,0.12,
1503,-0.195,0.125,
1504,-0.225,0.13,
1505,-0.22,0.105,
1506,-0.215,0.11,
1507,-0.21,0.11,
1508,-0.205,0.125,
1509,-0.205,0.125,
1510,-0.225,0.115,
1511,-0.24,0.12,
1512,-0.225,0.11,
1513,-0.215,0.12,
1514,-0.21,0.125,
1515,-0.215,0.135,
1516,-0.23,0.13,
1517,-0.25,0.115,
1518,-0.24,0.11,
1519,-0.205,0.125,
1520,-0.2,0.14,
1521,-0.2,0.14,
1522,-0.21,0.13,
1523,-0.22,0.12,
1524,-0.22,0.105,
1525,-0.2,0.125,
1526,-0.2,0.135,
1527,-0.195,0.13,
1528,-0.2,0.13,
1529,-0.215,0.12,
1530,-0.215,0.115,
1531,-0.185,0.115,
1532,-0.185,0.125,
1533,-0.18,0.125,
1534,-0.19,0.12,
1535,-0.2,0.105,
1536,-0.19,0.09,
1537,-0.17,0.1,
1538,-0.16,0.125,
1539,-0.17,0.12,
1540,-0.175,0.115,
1541,-0.185,0.1,
1542,-0.18,0.1,
1543,-0.16,0.105,
1544,-0.15,0.12,
1545,-0.145,0.125,
1546,-0.165,0.125,
1547,-0.17,0.11,
1548,-0.165,0.115,
1549,-0.15,0.13,
1550,-0.14,0.15,
1551,-0.14,0.14,
1552,-0.13,0.13,
1553,-0.125,0.12,
1554,-0.11,0.095,
1555,-0.075,0.09,
1556,-0.035,0.1,
1557,0.005,0.065,
1558,0.035,0.025,
1559,0.07,-0.015,
1560,0.135,-0.045,
1561,0.205,-0.07,
1562,0.265,-0.1,
1563,0.33,-0.14,
1564,0.39,-0.235,
1565,0.465,-0.355,
1566,0.545,-0.44,
1567,0.645,-0.52,
1568,0.755,-0.585,
1569,0.845,-0.65,
1570,0.905,-0.725,
1571,0.97,-0.795,
1572,1.05,-0.865,
1573,1.145,-0.935,
1574,1.26,-0.96,
1575,1.34,-0.99,
1576,1.4,-1.015,
1577,1.455,-1.055,
1578,1.535,-1.09,
1579,1.645,-1.085,V
1580,1.69,-1.07,
1581,1.645,-1.04,
1582,1.58,-1.0,
1583,1.49,-0.955,
1584,1.435,-0.885,
1585,1.395,-0.805,
1586,1.355,-0.72,
1587,1.32,-0.64,
1588,1.27,-0.535,
1589,1.225,-0.445,
1590,1.18,-0.39,
1591,1.175,-0.315,
1592,1.165,-0.285,
1593,1.145,-0.255,
1594,1.115,-0.235,
1595,1.08,-0.235,
1596,1.085,-0.215,
1597,1.105,-0.175,
1598,1.1,-0.155,
1599,1.045,-0.15,
1600,0.92,-0.15,
1601,0.79,-0.145,
1602,0.625,-0.12,
1603,0.43,-0.055,
1604,0.225,0.025,
1605,0.015,0.09,
1606,-0.135,0.16,
1607,-0.25,0.205,
1608,-0.34,0.225,
1609,-0.38,0.26,
1610,-0.405,0.295,
1611,-0.44,0.315,
1612,-0.48,0.325,
1613,-0.505,0.315,
1614,-0.52,0.33,
1615,-0.525,0.345,
1616,-0.53,0.37,
1617,-0.545,0.38,
1618,-0.575,0.365,
1619,-0.6,0.375,
1620,-0.615,0.375,
1621,-0.605,0.4,
1622,-0.6,0.42,
1623,-0.62,0.435,
1624,-0.65,0.435,
1625,-0.67,0.445,
1626,-0.67,0.44,
1627,-0.67,0.47,
1628,-0.675,0.485,
1629,-0.67,0.5,
1630,-0.705,0.51,
1631,-0.71,0.5,
1632,-0.73,0.505,
1633,-0.73,0.53,
1634,-0.725,0.555,
1635,-0.75,0.575,
1636,-0.775,0.585,
1637,-0.79,0.595,
1638,-0.805,0.585,
1639,-0.79,0.615,
1640,-0.8,0.64,
1641,-0.805,0.66,
1642,-0.825,0.655,
1643,-0.835,0.66,
1644,-0.845,0.66,
1645,-0.85,0.68,
1646,-0.845,0.705,
1647,-0.865,0.72,
1648,-0.88,0.715,
1649,-0.885,0.715,
1650,-0.89,0.72,
1651,-0.88,0.725,
1652,-0.895,0.725,
1653,-0.905,0.73,
1654,-0.92,0.735,
1655,-0.935,0.7,
1656,-0.92,0.69,
1657,-0.9,0.69,
1658,-0.9,0.705,
1659,-0.89,0.7,
1660,-0.905,0.68,
1661,-0.905,0.655,
1662,-0.9,0.64,
1663,-0.875,0.625,
1664,-0.85,0.6,
1665,-0.815,0.6,
1666,-0.81,0.565,
1667,-0.79,0.53,
1668,-0.76,0.49,
1669,-0.74,0.46,
1670,-0.685,0.435,
1671,-0.645,0.415,
1672,-0.63,0.38,
1673,-0.6,0.345,
1674,-0.56,0.32,
1675,-0.505,0.305,
1676,-0.465,0.29,
1677,-0.46,0.27,
1678,-0.42,0.245,
1679,-0.415,0.215,
1680,-0.365,0.195,
1681,-0.305,0.18,
1682,-0.285,0.185,
1683,-0.275,0.185,
1684,-0.27,0.16,
1685,-0.255,0.14,
1686,-0.24,0.125,
1687,-0.2,0.125,
1688,-0.185,0.13,
1689,-0.17,0.12,
1690,-0.18,0.125,
1691,-0.185,0.105,
1692,-0.175,0.095,
1693,-0.16,0.1,
1694,-0.155,0.115,
1695,-0.15,0.115,
1696,-0.18,0.105,
1697,-0.185,0.095,
1698,-0.175,0.09,
1699,-0.165,0.105,
1700,-0.16,0.105,
1701,-0.16,0.12,
1702,-0.18,0.105,
1703,-0.19,0.09,
1704,-0.185,0.09,
1705,-0.165,0.1,
1706,-0.155,0.11,
1707,-0.165,0.105,
1708,-0.2,0.115,
1709,-0.195,0.1,
1710,-0.19,0.1,
1711,-0.16,0.1,
1712,-0.145,0.125,
1713,-0.16,0.12,
1714,-0.175,0.125,
1715,-0.175,0.105,
1716,-0.18,0.1,
1717,-0.15,0.115,
1718,-0.155,0.125,
1719,-0.15,0.12,
1720,-0.16,0.12,
1721,-0.17,0.095,
1722,-0.165,0.105,
1723,-0.145,0.105,
1724,-0.135,0.12,
1725,-0.15,0.135,
1726,-0.16,0.12,
1727,-0.165,0.1,
1728,-0.145,0.1,
1729,-0.135,0.11,
1730,-0.12,0.12,
1731,-0.125,0.11,
1732,-0.13,0.1,
1733,-0.15,0.085,
1734,-0.135,0.09,
1735,-0.115,0.1,
1736,-0.11,0.115,
1737,-0.115,0.12,
1738,-0.14,0.09,
1739,-0.15,0.08,
1740,-0.13,0.075,
1741,-0.12,0.07,
1742,-0.12,0.095,
1743,-0.115,0.1,
1744,-0.14,0.1,
1745,-0.15,0.08,
1746,-0.135,0.075,
1747,-0.115,0.07,
1748,-0.105,0.09,
1749,-0.105,0.09,
1750,-0.135,0.075,
1751,-0.125,0.075,
1752,-0.13,0.065,
1753,-0.12,0.065,
1754,-0.095,0.085,
1755,-0.105,0.09,
1756,-0.12,0.075,
1757,-0.13,0.06,
1758,-0.12,0.05,
1759,-0.105,0.06,
1760,-0.09,0.075,
1761,-0.105,0.08,
1762,-0.115,0.07,
1763,-0.115,0.065,
1764,-0.11,0.04,
1765,-0.1,0.065,
1766,-0.09,0.075,
1767,-0.105,0.07,
1768,-0.11,0.06,
1769,-0.125,0.065,
1770,-0.115,0.055,
1771,-0.095,0.07,
1772,-0.085,0.07,
1773,-0.085,0.07,
1774,-0.095,0.07,
1775,-0.12,0.045,
1776,-0.11,0.045,
1777,-0.1,0.045,
1778,-0.085,0.06,
1779,-0.08,0.065,
1780,-0.105,0.065,
1781,-0.105,0.055,
1782,-0.115,0.055,
1783,-0.095,0.06,
1784,-0.085,0.065,
1785,-0.09,0.06,
1786,-0.11,0.07,
1787,-0.115,0.05,
1788,-0.105,0.05,
1789,-0.085,0.06,
1790,-0.085,0.06,
1791,-0.09,0.065,
1792,-0.115,0.06,
1793,-0.12,0.05,
1794,-0.105,0.04,
1795,-0.09,0.045,
1796,-0.075,0.065,
1797,-0.075,0.075,
1798,-0.075,0.07,
1799,-0.075,0.06,
1800,-0.065,0.07,
1801,-0.03,0.095,
1802,-0.03,0.105,
1803,-0.015,0.12,
1804,-0.02,0.11,
1805,-0.025,0.11,
1806,-0.005,0.095,
1807,0.03,0.1,
1808,0.065,0.095,
1809,0.08,0.095,
1810,0.065,0.065,
1811,0.055,0.035,
1812,0.065,0.01,
1813,0.08,0.0,
1814,0.08,0.015,
1815,0.055,0.025,
1816,0.025,0.015,
1817,0.0,0.0,
1818,0.0,-0.005,
1819,0.005,0.0,
1820,-0.005,0.015,
1821,-0.02,0.015,
1822,-0.055,-0.005,
1823,-0.07,-0.01,
1824,-0.075,-0.005,
1825,-0.07,0.015,
1826,-0.075,0.035,
1827,-0.09,0.035,
1828,-0.11,0.02,
1829,-0.12,0.015,
1830,-0.12,0.005,
1831,-0.12,0.025,
1832,-0.11,0.03,
1833,-0.12,0.035,
1834,-0.125,0.02,
1835,-0.12,0.015,
1836,-0.11,0.0,
1837,-0.11,0.01,
1838,-0.105,0.03,
1839,-0.115,0.025,
1840,-0.12,0.015,
1841,-0.115,0.015,
1842,-0.1,-0.005,
1843,-0.085,0.005,
1844,-0.085,0.02,
1845,-0.105,0.015,
1846,-0.105,0.015,
1847,-0.1,-0.005,
1848,-0.09,-0.03,
1849,-0.1,-0.03,
1850,-0.095,-0.015,
1851,-0.06,-0.01,
1852,-0.005,-0.01,
1853,0.11,-0.045,
1854,0.285,-0.115,
1855,0.49,-0.175,
1856,0.725,-0.2,
1857,0.97,-0.195,
1858,1.21,-0.205,
1859,1.43,-0.245,
1860,1.63,-0.27,N
1861,1.71,-0.235,
1862,1.57,-0.15,
1863,1.235,-0.09,
1864,0.84,-0.07,
1865,0.495,-0.075,
1866,0.23,-0.07,
1867,0.09,-0.08,
1868,0.015,-0.085,
1869,-0.055,-0.085,
1870,-0.12,-0.055,
1871,-0.16,-0.035,
1872,-0.14,-0.01,
1873,-0.1,0.0,
1874,-0.09,0.04,
1875,-0.11,0.04,
1876,-0.135,0.035,
1877,-0.15,0.03,
1878,-0.145,0.035,
1879,-0.14,0.035,
1880,-0.135,0.055,
1881,-0.155,0.05,
1882,-0.18,0.04,
1883,-0.165,0.05,
1884,-0.16,0.035,
1885,-0.155,0.055,
1886,-0.145,0.06,
1887,-0.155,0.07,
1888,-0.18,0.07,
1889,-0.175,0.05,
1890,-0.155,0.045,
1891,-0.15,0.035,
1892,-0.145,0.06,
1893,-0.145,0.06,
1894,-0.17,0.055,
1895,-0.155,0.055,
1896,-0.14,0.04,
1897,-0.135,0.05,
1898,-0.115,0.045,
1899,-0.125,0.055,
1900,-0.135,0.055,
1901,-0.13,0.035,
1902,-0.125,0.02,
1903,-0.105,0.025,
1904,-0.09,0.04,
1905,-0.09,0.03,
1906,-0.09,0.03,
1907,-0.095,0.01,
1908,-0.09,0.01,
1909,-0.07,0.005,
1910,-0.03,0.005,
1911,-0.05,0.01,
1912,-0.04,-0.005,
1913,-0.045,-0.015,
1914,-0.03,-0.025,
1915,0.0,-0.025,
1916,0.02,-0.025,
1917,0.02,-0.035,
1918,0.015,-0.055,
1919,0.01,-0.065,
1920,0.035,-0.085,
1921,0.08,-0.085,
1922,0.11,-0.09,
1923,0.115,-0.09,
1924,0.105,-0.12,
1925,0.09,-0.15,
1926,0.115,-0.165,
1927,0.165,-0.16,
1928,0.18,-0.16,
1929,0.2,-0.165,
1930,0.205,-0.19,
1931,0.195,-0.21,
1932,0.205,-0.23,
1933,0.245,-0.23,
1934,0.27,-0.22,
1935,0.285,-0.22,
1936,0.29,-0.25,
1937,0.29,-0.255,
1938,0.31,-0.255,
1939,0.325,-0.25,
1940,0.34,-0.245,
1941,0.335,-0.235,
1942,0.315,-0.23,
1943,0.33,-0.25,
1944,0.325,-0.25,
1945,0.345,-0.22,
1946,0.345,-0.19,
1947,0.32,-0.17,
1948,0.265,-0.155,
1949,0.25,-0.14,
1950,0.235,-0.125,
1951,0.235,-0.095,
1952,0.21,-0.065,
1953,0.18,-0.045,
1954,0.155,-0.04,
1955,0.12,-0.03,
1956,0.11,-0.005,
1957,0.105,0.01,
1958,0.08,0.035,
1959,0.04,0.05,
1960,0.005,0.055,
1961,-0.01,0.05,
1962,-0.015,0.06,
1963,-0.01,0.075,
1964,-0.02,0.09,
1965,-0.035,0.105,
1966,-0.06,0.085,
1967,-0.09,0.075,
1968,-0.075,0.08,
1969,-0.055,0.09,
1970,-0.045,0.11,
1971,-0.065,0.105,
1972,-0.085,0.095,
1973,-0.095,0.085,
1974,-0.08,0.085,
1975,-0.07,0.08,
1976,-0.07,0.1,
1977,-0.07,0.11,
1978,-0.09,0.1,
1979,-0.095,0.1,
1980,-0.095,0.1,
1981,-0.085,0.105,
1982,-0.075,0.12,
1983,-0.08,0.11,
1984,-0.09,0.11,
1985,-0.095,0.1,
1986,-0.09,0.09,
1987,-0.085,0.095,
1988,-0.07,0.1,
1989,-0.095,0.1,
1990,-0.095,0.09,
1991,-0.095,0.09,
1992,-0.075,0.075,
1993,-0.07,0.08,
1994,-0.055,0.08,
1995,-0.065,0.11,
1996,-0.075,0.085,
1997,-0.08,0.065,
1998,-0.065,0.065,
1999,-0.045,0.075,
2000,-0.05,0.085,
2001,-0.06,0.08,
2002,-0.07,0.075,
2003,-0.07,0.06,
2004,-0.075,0.07,
2005,-0.065,0.07,
2006,-0.055,0.09,
2007,-0.065,0.105,
2008,-0.075,0.085,
2009,-0.07,0.08,
2010,-0.065,0.07,
2011,-0.055,0.08,
2012,-0.09,0.095,
2013,-0.07,0.1,
2014,-0.06,0.105,
2015,-0.055,0.1,
2016,-0.03,0.1,
2017,-0.01,0.115,
2018,0.005,0.125,
2019,0.0,0.135,
2020,0.0,0.125,
2021,0.015,0.115,
2022,0.03,0.105,
2023,0.07,0.11,
2024,0.09,0.115,
2025,0.095,0.105,
2026,0.08,0.095,
2027,0.08,0.065,
2028,0.075,0.035,
2029,0.08,0.05,
2030,0.075,0.08,
2031,0.07,0.08,
2032,0.05,0.075,
2033,0.045,0.06,
2034,0.05,0.05,
2035,0.06,0.045,
2036,0.07,0.04,
2037,0.08,0.02,
2038,0.09,-0.025,
2039,0.105,-0.075,
2040,0.155,-0.1,
2041,0.205,-0.125,
2042,0.26,-0.15,
2043,0.31,-0.21,
2044,0.35,-0.295,
2045,0.41,-0.395,
2046,0.49,-0.51,
2047,0.58,-0.61,
2048,0.645,-0.69,
2049,0.71,-0.765,
2050,0.755,-0.825,
2051,0.815,-0.905,
2052,0.88,-0.98,
2053,0.965,-1.045,
2054,1.055,-1.1,
2055,1.125,-1.14,
2056,1.175,-1.165,
2057,1.24,-1.195,
2058,1.35,-1.255,V
2059,1.465,-1.275,
2060,1.545,-1.275,
2061,1.57,-1.255,
2062,1.53,-1.225,
2063,1.48,-1.175,
2064,1.43,-1.11,
2065,1.385,-1.025,
2066,1.35,-0.925,
2067,1.325,-0.815,
2068,1.315,-0.73,
2069,1.33,-0.665,
2070,1.34,-0.625,
2071,1.37,-0.585,
2072,1.37,-0.55,
2073,1.365,-0.51,
2074,1.37,-0.47,
2075,1.375,-0.415,
2076,1.385,-0.365,
2077,1.38,-0.31,
2078,1.315,-0.27,
2079,1.2,-0.235,
2080,1.02,-0.2,
2081,0.795,-0.14,
2082,0.56,-0.055,
2083,0.315,0.04,
2084,0.09,0.125,
2085,-0.09,0.17,
2086,-0.235,0.21,
2087,-0.335,0.23,
2088,-0.38,0.25,
2089,-0.4,0.27,
2090,-0.415,0.3,
2091,-0.455,0.315,
2092,-0.485,0.32,
2093,-0.51,0.33,
2094,-0.52,0.32,
2095,-0.52,0.335,
2096,-0.52,0.36,
2097,-0.535,0.37,
2098,-0.57,0.37,
2099,-0.585,0.355,
2100,-0.58,0.36,
2101,-0.57,0.395,
2102,-0.565,0.405,
2103,-0.595,0.415,
2104,-0.61,0.42,
2105,-0.625,0.435,
2106,-0.615,0.425,
2107,-0.62,0.46,
2108,-0.63,0.47,
2109,-0.65,0.48,
2110,-0.675,0.48,
2111,-0.685,0.485,
2112,-0.67,0.495,
2113,-0.665,0.515,
2114,-0.68,0.54,
2115,-0.72,0.555,
2116,-0.75,0.545,
2117,-0.75,0.555,
2118,-0.745,0.57,
2119,-0.735,0.585,
2120,-0.74,0.615,
2121,-0.765,0.63,
2122,-0.78,0.64,
2123,-0.795,0.63,
2124,-0.8,0.64,
2125,-0.785,0.665,
2126,-0.795,0.68,
2127,-0.805,0.685,
2128,-0.84,0.685,
2129,-0.865,0.685,
2130,-0.86,0.685,
2131,-0.84,0.695,
2132,-0.83,0.715,
2133,-0.845,0.72,
2134,-0.865,0.715,
2135,-0.88,0.685,
2136,-0.86,0.675,
2137,-0.85,0.68,
2138,-0.835,0.685,
2139,-0.84,0.67,
2140,-0.855,0.66,
2141,-0.855,0.625,
2142,-0.84,0.61,
2143,-0.825,0.595,
2144,-0.795,0.595,
2145,-0.8,0.575,
2146,-0.795,0.545,
2147,-0.78,0.505,
2148,-0.755,0.47,
2149,-0.725,0.46,
2150,-0.7,0.445,
2151,-0.675,0.415,
2152,-0.66,0.385,
2153,-0.64,0.335,
2154,-0.595,0.3,
2155,-0.535,0.29,
2156,-0.495,0.29,
2157,-0.485,0.26,
2158,-0.47,0.235,
2159,-0.465,0.205,
2160,-0.405,0.17,
2161,-0.36,0.17,
2162,-0.31,0.17,
2163,-0.3,0.155,
2164,-0.3,0.135,
2165,-0.275,0.125,
2166,-0.245,0.115,
2167,-0.205,0.115,
2168,-0.195,0.115,
2169,-0.205,0.12,
2170,-0.215,0.125,
2171,-0.22,0.1,
2172,-0.21,0.09,
2173,-0.185,0.095,
2174,-0.175,0.12,
2175,-0.185,0.115,
2176,-0.19,0.105,
2177,-0.21,0.1,
2178,-0.215,0.09,
2179,-0.185,0.09,
2180,-0.18,0.105,
2181,-0.175,0.115,
2182,-0.205,0.105,
2183,-0.2,0.08,
2184,-0.195,0.075,
2185,-0.175,0.085,
2186,-0.175,0.1,
2187,-0.175,0.11,
2188,-0.2,0.1,
2189,-0.205,0.085,
2190,-0.2,0.085,
2191,-0.19,0.095,
2192,-0.175,0.11,
2193,-0.195,0.12,
2194,-0.205,0.1,
2195,-0.205,0.105,
2196,-0.2,0.09,
2197,-0.18,0.105,
2198,-0.165,0.125,
2199,-0.165,0.115,
2200,-0.18,0.115,
2201,-0.195,0.105,
2202,-0.18,0.08,
2203,-0.17,0.095,
2204,-0.145,0.11,
2205,-0.165,0.105,
2206,-0.17,0.1,
2207,-0.195,0.09,
2208,-0.19,0.065,
2209,-0.16,0.1,
2210,-0.14,0.105,
2211,-0.145,0.095,
2212,-0.175,0.095,
2213,-0.17,0.09,
2214,-0.155,0.095,
2215,-0.14,0.11,
2216,-0.13,0.115,
2217,-0.13,0.115,
2218,-0.14,0.12,
2219,-0.125,0.08,
2220,-0.08,0.055,
2221,-0.06,0.06,
2222,-0.01,0.05,
2223,0.005,0.025,
2224,0.02,-0.01,
2225,0.05,-0.05,
2226,0.095,-0.105,
2227,0.16,-0.145,
2228,0.225,-0.2,
2229,0.295,-0.27,
2230,0.37,-0.375,
2231,0.445,-0.465,
2232,0.52,-0.565,
2233,0.62,-0.625,
2234,0.705,-0.685,
2235,0.77,-0.755,
2236,0.835,-0.835,
2237,0.93,-0.93,
2238,1.01,-0.99,
2239,1.095,-1.02,
2240,1.155,-1.035,
2241,1.205,-1.05,
2242,1.27,-1.065,V
2243,1.355,-1.095,
2244,1.445,-1.09,
2245,1.49,-1.045,
2246,1.49,-0.98,
2247,1.41,-0.915,
2248,1.35,-0.85,
2249,1.29,-0.8,
2250,1.26,-0.715,
2251,1.235,-0.61,
2252,1.195,-0.475,
2253,1.155,-0.385,
2254,1.115,-0.305,
2255,1.075,-0.255,
2256,1.06,-0.21,
2257,1.075,-0.19,
2258,1.085,-0.16,
2259,1.1,-0.14,
2260,1.115,-0.13,
2261,1.15,-0.14,
2262,1.17,-0.155,
2263,1.12,-0.185,
2264,1.04,-0.18,
2265,0.915,-0.16,
2266,0.745,-0.15,
2267,0.555,-0.115,
2268,0.355,-0.075,
2269,0.175,0.02,
2270,0.005,0.09,
2271,-0.105,0.13,
2272,-0.21,0.15,
2273,-0.265,0.165,
2274,-0.31,0.17,
2275,-0.335,0.2,
2276,-0.385,0.225,
2277,-0.43,0.245,
2278,-0.465,0.26,
2279,-0.49,0.265,
2280,-0.5,0.28,
2281,-0.505,0.285,
2282,-0.52,0.31,
2283,-0.545,0.315,
2284,-0.58,0.31,
2285,-0.585,0.31,
2286,-0.59,0.32,
2287,-0.595,0.33,
2288,-0.6,0.35,
2289,-0.62,0.365,
2290,-0.655,0.375,
2291,-0.645,0.355,
2292,-0.65,0.36,
2293,-0.64,0.375,
2294,-0.65,0.395,
2295,-0.675,0.4,
2296,-0.705,0.41,
2297,-0.73,0.41,
2298,-0.73,0.41,
2299,-0.72,0.43,
2300,-0.725,0.455,
2301,-0.755,0.46,
2302,-0.78,0.46,
2303,-0.8,0.465,
2304,-0.795,0.48,
2305,-0.785,0.49,
2306,-0.79,0.51,
2307,-0.82,0.52,
2308,-0.835,0.515,
2309,-0.855,0.505,
2310,-0.86,0.5,
2311,-0.855,0.515,
2312,-0.865,0.525,
2313,-0.89,0.53,
2314,-0.895,0.525,
2315,-0.9,0.515,
2316,-0.89,0.505,
2317,-0.87,0.505,
2318,-0.875,0.525,
2319,-0.88,0.51,
2320,-0.88,0.505,
2321,-0.885,0.49,
2322,-0.87,0.47,
2323,-0.84,0.465,
2324,-0.83,0.47,
2325,-0.825,0.45,
2326,-0.825,0.415,
2327,-0.8,0.4,
2328,-0.765,0.375,
2329,-0.745,0.355,
2330,-0.705,0.355,
2331,-0.695,0.33,
2332,-0.69,0.31,
2333,-0.645,0.28,
2334,-0.62,0.255,
2335,-0.58,0.24,
2336,-0.55,0.225,
2337,-0.535,0.215,
2338,-0.515,0.185,
2339,-0.475,0.17,
2340,-0.44,0.135,
2341,-0.4,0.135,
2342,-0.375,0.135,
2343,-0.355,0.13,
2344,-0.37,0.115,
2345,-0.345,0.08,
2346,-0.305,0.07,
2347,-0.275,0.08,
2348,-0.25,0.08,
2349,-0.255,0.075,
2350,-0.245,0.075,
2351,-0.25,0.05,
2352,-0.25,0.055,
2353,-0.225,0.06,
2354,-0.23,0.07,
2355,-0.245,0.06,
2356,-0.24,0.06,
2357,-0.245,0.045,
2358,-0.225,0.05,
2359,-0.205,0.05,
2360,-0.22,0.07,
2361,-0.225,0.065,
2362,-0.225,0.055,
2363,-0.235,0.05,
2364,-0.235,0.045,
2365,-0.21,0.06,
2366,-0.21,0.075,
2367,-0.23,0.08,
2368,-0.23,0.06,
2369,-0.24,0.06,
2370,-0.22,0.045,
2371,-0.21,0.055,
2372,-0.22,0.07,
2373,-0.215,0.08,
2374,-0.23,0.065,
2375,-0.22,0.055,
2376,-0.21,0.045,
2377,-0.185,0.06,
2378,-0.19,0.07,
2379,-0.21,0.065,
2380,-0.21,0.045,
2381,-0.215,0.035,
2382,-0.19,0.03,
2383,-0.17,0.03,
2384,-0.16,0.055,
2385,-0.175,0.055,
2386,-0.185,0.04,
2387,-0.21,0.025,
2388,-0.18,0.02,
2389,-0.16,0.035,
2390,-0.16,0.045,
2391,-0.17,0.045,
2392,-0.18,0.04,
2393,-0.185,0.015,
2394,-0.16,0.02,
2395,-0.145,0.025,
2396,-0.145,0.045,
2397,-0.15,0.03,
2398,-0.17,0.035,
2399,-0.165,0.025,
2400,-0.145,0.02,
2401,-0.125,0.01,
2402,-0.13,0.03,
2403,-0.13,0.025,
2404,-0.16,0.015,
2405,-0.145,0.005,
2406,-0.14,0.01,
2407,-0.125,0.005,
2408,-0.13,0.02,
2409,-0.14,0.025,
2410,-0.155,0.02,
2411,-0.155,0.0,
2412,-0.155,-0.01,
2413,-0.13,-0.005,
2414,-0.13,0.01,
2415,-0.135,0.025,
2416,-0.145,0.005,
2417,-0.15,-0.005,
2418,-0.125,-0.005,
2419,-0.11,0.0,
2420,-0.125,0.005,
2421,-0.15,0.005,
2422,-0.14,0.0,
2423,-0.145,-0.01,
2424,-0.13,-0.015,
2425,-0.125,-0.005,
2426,-0.115,0.01,
2427,-0.12,0.01,
2428,-0.135,0.01,
2429,-0.155,-0.005,
2430,-0.15,-0.015,
2431,-0.13,-0.015,
2432,-0.13,0.0,
2433,-0.14,0.01,
2434,-0.155,0.0,
2435,-0.145,-0.01,
2436,-0.135,-0.005,
2437,-0.125,-0.01,
2438,-0.115,0.0,
2439,-0.135,0.005,
2440,-0.145,0.0,
2441,-0.155,-0.02,
2442,-0.13,-0.01,
2443,-0.11,-0.005,
2444,-0.12,0.015,
2445,-0.125,0.0,
2446,-0.145,-0.015,
2447,-0.14,-0.015,
2448,-0.135,-0.03,
2449,-0.11,-0.01,
2450,-0.12,-0.005,
2451,-0.135,0.0,
2452,-0.155,-0.03,
2453,-0.145,-0.025,
2454,-0.14,-0.025,
2455,-0.13,-0.025,
2456,-0.125,0.005,
2457,-0.13,-0.005,
2458,-0.14,-0.005,
2459,-0.135,-0.03,
2460,-0.125,-0.04,
2461,-0.105,-0.02,
2462,-0.105,-0.01,
2463,-0.12,-0.005,
2464,-0.12,-0.02,
2465,-0.125,-0.035,
2466,-0.11,-0.04,
2467,-0.105,-0.02,
2468,-0.1,-0.01,
2469,-0.12,-0.015,
2470,-0.145,-0.005,
2471,-0.14,-0.03,
2472,-0.12,-0.04,
2473,-0.095,-0.02,
2474,-0.09,-0.015,
2475,-0.115,-0.005,
2476,-0.135,-0.015,
2477,-0.13,-0.035,
2478,-0.12,-0.035,
2479,-0.115,-0.03,
2480,-0.105,-0.015,
2481,-0.12,-0.02,
2482,-0.125,-0.02,
2483,-0.125,-0.04,
2484,-0.11,-0.035,
2485,-0.09,-0.035,
2486,-0.11,-0.025,
2487,-0.12,-0.02,
2488,-0.12,-0.025,
2489,-0.11,-0.035,
2490,-0.12,-0.035,
2491,-0.11,-0.04,
2492,-0.11,-0.005,
2493,-0.115,-0.015,
2494,-0.135,-0.025,
2495,-0.125,-0.035,
2496,-0.11,-0.04,
2497,-0.095,-0.025,
2498,-0.085,-0.005,
2499,-0.09,-0.01,
2500,-0.12,-0.01,
2501,-0.095,-0.03,
2502,-0.075,-0.015,
2503,-0.065,-0.005,
2504,-0.05,0.015,
2505,-0.06,0.015,
2506,-0.06,0.01,
2507,-0.045,0.01,
2508,-0.01,0.015,
2509,0.015,0.025,
2510,0.025,0.03,
2511,0.02,0.005,
2512,0.025,-0.005,
2513,0.045,-0.02,
2514,0.06,-0.045,
2515,0.075,-0.05,
2516,0.07,-0.05,
2517,0.06,-0.055,
2518,0.03,-0.065,
2519,0.01,-0.085,
2520,0.035,-0.07,
2521,0.025,-0.065,
2522,0.015,-0.065,
2523,-0.02,-0.06,
2524,-0.05,-0.065,
2525,-0.065,-0.075,
2526,-0.075,-0.06,
2527,-0.065,-0.055,
2528,-0.09,-0.03,
2529,-0.115,-0.035,
2530,-0.12,-0.045,
2531,-0.135,-0.055,
2532,-0.13,-0.06,
2533,-0.12,-0.06,
2534,-0.13,-0.04,
2535,-0.135,-0.04,
2536,-0.15,-0.045,
2537,-0.14,-0.06,
2538,-0.12,-0.06,
2539,-0.105,-0.055,
2540,-0.11,-0.04,
2541,-0.12,-0.055,
2542,-0.13,-0.05,
2543,-0.135,-0.065,
2544,-0.115,-0.07,
2545,-0.105,-0.055,
2546,-0.12,-0.07,
2547,-0.15,-0.07,
2548,-0.185,-0.095,
2549,-0.18,-0.085,
2550,-0.12,-0.095,
2551,0.005,-0.125,
2552,0.145,-0.18,
2553,0.315,-0.255,
2554,0.545,-0.29,
2555,0.825,-0.285,
2556,1.125,-0.295,
2557,1.39,-0.29,
2558,1.595,-0.255,N
2559,1.625,-0.22,
2560,1.445,-0.16,
2561,1.08,-0.13,
2562,0.655,-0.085,
2563,0.225,-0.08,
2564,-0.085,-0.105,
2565,-0.185,-0.135,
2566,-0.18,-0.17,
2567,-0.16,-0.165,
2568,-0.145,-0.15,
2569,-0.145,-0.105,
2570,-0.145,-0.065,
2571,-0.13,-0.05,
2572,-0.15,-0.04,
2573,-0.17,-0.055,
2574,-0.175,-0.055,
2575,-0.17,-0.045,
2576,-0.16,-0.025,
2577,-0.16,-0.03,
2578,-0.18,-0.04,
2579,-0.185,-0.04,
2580,-0.18,-0.035,
2581,-0.165,-0.04,
2582,-0.14,-0.035,
2583,-0.155,-0.035,
2584,-0.17,-0.04,
2585,-0.18,-0.045,
2586,-0.17,-0.06,
2587,-0.16,-0.04,
2588,-0.15,-0.04,
2589,-0.155,-0.045,
2590,-0.165,-0.045,
2591,-0.17,-0.055,
2592,-0.165,-0.06,
2593,-0.15,-0.06,
2594,-0.14,-0.03,
2595,-0.15,-0.045,
2596,-0.165,-0.05,
2597,-0.16,-0.07,
2598,-0.155,-0.07,
2599,-0.14,-0.065,
2600,-0.115,-0.06,
2601,-0.125,-0.05,
2602,-0.13,-0.065,
2603,-0.135,-0.075,
2604,-0.13,-0.09,
2605,-0.095,-0.095,
2606,-0.095,-0.07,
2607,-0.105,-0.085,
2608,-0.1,-0.1,
2609,-0.09,-0.11,
2610,-0.075,-0.115,
2611,-0.045,-0.11,
2612,-0.035,-0.115,
2613,-0.05,-0.105,
2614,-0.04,-0.12,
2615,-0.04,-0.135,
2616,-0.02,-0.16,
2617,0.01,-0.15,
2618,0.01,-0.155,
2619,0.025,-0.17,
2620,0.02,-0.18,
2621,0.045,-0.205,
2622,0.055,-0.22,
2623,0.085,-0.205,
2624,0.1,-0.215,
2625,0.1,-0.23,
2626,0.095,-0.245,
2627,0.105,-0.26,
2628,0.14,-0.275,
2629,0.16,-0.265,
2630,0.17,-0.27,
2631,0.17,-0.265,
2632,0.16,-0.285,
2633,0.16,-0.3,
2634,0.17,-0.315,
2635,0.215,-0.305,
2636,0.235,-0.295,
2637,0.225,-0.29,
2638,0.23,-0.295,
2639,0.23,-0.31,
2640,0.245,-0.305,
2641,0.255,-0.295,
2642,0.265,-0.275,
2643,0.255,-0.265,
2644,0.25,-0.275,
2645,0.23,-0.26,
2646,0.225,-0.245,
2647,0.215,-0.23,
2648,0.215,-0.195,
2649,0.195,-0.17,
2650,0.155,-0.16,
2651,0.125,-0.155,
2652,0.12,-0.14,
2653,0.1,-0.11,
2654,0.095,-0.085,
2655,0.075,-0.065,
2656,0.05,-0.055,
2657,0.02,-0.06,
2658,0.0,-0.065,
2659,-0.01,-0.035,
2660,-0.015,-0.005,
2661,-0.03,0.0,
2662,-0.075,0.02,
2663,-0.095,0.0,
2664,-0.11,0.005,
2665,-0.09,0.01,
2666,-0.085,0.035,
2667,-0.115,0.035,
2668,-0.12,0.04,
2669,-0.125,0.035,
2670,-0.14,0.025,
2671,-0.12,0.04,
2672,-0.135,0.05,
2673,-0.15,0.055,
2674,-0.155,0.045,
2675,-0.165,0.035,
2676,-0.14,0.025,
2677,-0.13,0.04,
2678,-0.12,0.045,
2679,-0.125,0.055,
2680,-0.145,0.045,
2681,-0.155,0.025,
2682,-0.145,0.03,
2683,-0.125,0.035,
2684,-0.13,0.045,
2685,-0.12,0.05,
2686,-0.13,0.04,
2687,-0.135,0.025,
2688,-0.135,0.01,
2689,-0.125,0.025,
2690,-0.11,0.035,
2691,-0.135,0.03,
2692,-0.145,0.03,
2693,-0.145,0.0,
2694,-0.15,0.0,
2695,-0.125,0.0,
2696,-0.12,0.03,
2697,-0.115,0.03,
2698,-0.13,0.01,
2699,-0.145,-0.005,
2700,-0.14,0.005,
2701,-0.12,0.02,
2702,-0.11,0.035,
2703,-0.11,0.035,
2704,-0.125,0.025,
2705,-0.105,0.035,
2706,-0.09,0.02,
2707,-0.06,0.045,
2708,-0.04,0.05,
2709,-0.04,0.05,
2710,-0.04,0.045,
2711,-0.035,0.04,
2712,0.0,0.03,
2713,0.04,0.02,
2714,0.055,0.045,
2715,0.04,0.04,
2716,0.02,0.035,
2717,0.005,0.02,
2718,0.01,0.0,
2719,0.025,0.0,
2720,0.035,0.01,
2721,0.03,0.02,
2722,0.0,0.015,
2723,0.005,0.0,
2724,0.045,-0.045,
2725,0.075,-0.07,
2726,0.11,-0.08,
2727,0.11,-0.115,
2728,0.13,-0.16,
2729,0.165,-0.195,
2730,0.24,-0.26,
2731,0.33,-0.365,
2732,0.41,-0.455,
2733,0.46,-0.555,
2734,0.525,-0.655,
2735,0.585,-0.725,
2736,0.66,-0.81,
2737,0.765,-0.845,
2738,0.835,-0.865,
2739,0.905,-0.95,
2740,0.965,-1.005,
2741,1.04,-1.035,
2742,1.115,-1.07,
2743,1.19,-1.09,
2744,1.27,-1.115,
2745,1.36,-1.15,
2746,1.45,-1.18,
2747,1.505,-1.16,V
2748,1.52,-1.12,
2749,1.495,-1.05,
2750,1.43,-0.96,
2751,1.345,-0.9,
2752,1.285,-0.83,
2753,1.24,-0.76,
2754,1.19,-0.655,
2755,1.15,-0.555,
2756,1.12,-0.46,
2757,1.06,-0.41,
2758,1.0,-0.39,
2759,0.985,-0.39,
2760,0.995,-0.365,
2761,0.99,-0.34,
2762,0.99,-0.3,
2763,0.965,-0.28,
2764,0.945,-0.28,
2765,0.905,-0.29,
2766,0.85,-0.28,
2767,0.745,-0.25,
2768,0.62,-0.19,
2769,0.44,-0.12,
2770,0.2,-0.05,
2771,-0.01,0.035,
2772,-0.18,0.1,
2773,-0.31,0.165,
2774,-0.395,0.215,
2775,-0.46,0.24,
2776,-0.505,0.245,
2777,-0.525,0.245,
2778,-0.555,0.265,
2779,-0.54,0.28,
2780,-0.57,0.305,
2781,-0.595,0.315,
2782,-0.63,0.32,
2783,-0.635,0.315,
2784,-0.63,0.33,
2785,-0.63,0.35,
2786,-0.635,0.365,
2787,-0.655,0.37,
2788,-0.68,0.375,
2789,-0.695,0.385,
2790,-0.695,0.39,
2791,-0.69,0.405,
2792,-0.695,0.435,
2793,-0.72,0.45,
2794,-0.74,0.465,
2795,-0.76,0.455,
2796,-0.77,0.47,
2797,-0.77,0.495,
2798,-0.79,0.525,
2799,-0.795,0.545,
2800,-0.82,0.555,
2801,-0.825,0.56,
2802,-0.845,0.575,
2803,-0.84,0.6,
2804,-0.845,0.625,
2805,-0.855,0.635,
2806,-0.885,0.65,
2807,-0.895,0.65,
2808,-0.905,0.645,
2809,-0.89,0.68,
2810,-0.9,0.695,
2811,-0.925,0.715,
2812,-0.96,0.71,
2813,-0.96,0.705,
2814,-0.945,0.7,
2815,-0.96,0.715,
2816,-0.965,0.745,
2817,-0.97,0.725,
2818,-0.99,0.735,
2819,-0.99,0.7,
2820,-0.98,0.69,
2821,-0.965,0.69,
2822,-0.96,0.7,
2823,-0.96,0.68,
2824,-0.975,0.65,
2825,-0.965,0.64,
2826,-0.935,0.61,
2827,-0.91,0.59,
2828,-0.895,0.585,
2829,-0.895,0.565,
2830,-0.895,0.52,
2831,-0.87,0.485,
2832,-0.84,0.455,
2833,-0.785,0.44,
2834,-0.76,0.42,
2835,-0.745,0.39,
2836,-0.72,0.345,
2837,-0.69,0.31,
2838,-0.65,0.28,
2839,-0.605,0.26,
2840,-0.58,0.245,
2841,-0.54,0.235,
2842,-0.535,0.205,
2843,-0.505,0.17,
2844,-0.46,0.155,
2845,-0.42,0.15,
2846,-0.405,0.17,
2847,-0.4,0.145,
2848,-0.38,0.135,
2849,-0.375,0.11,
2850,-0.33,0.105,
2851,-0.325,0.105,
2852,-0.305,0.125,
2853,-0.305,0.125,
2854,-0.325,0.115,
2855,-0.32,0.095,
2856,-0.305,0.08,
2857,-0.285,0.1,
2858,-0.28,0.11,
2859,-0.305,0.105,
2860,-0.315,0.1,
2861,-0.325,0.09,
2862,-0.315,0.085,
2863,-0.285,0.095,
2864,-0.285,0.1,
2865,-0.295,0.11,
2866,-0.315,0.11,
2867,-0.315,0.085,
2868,-0.315,0.095,
2869,-0.29,0.1,
2870,-0.29,0.105,
2871,-0.295,0.11,
2872,-0.305,0.115,
2873,-0.315,0.095,
2874,-0.305,0.095,
2875,-0.3,0.115,
2876,-0.295,0.115,
2877,-0.3,0.12,
2878,-0.31,0.12,
2879,-0.32,0.105,
2880,-0.31,0.09,
2881,-0.295,0.1,
2882,-0.28,0.12,
2883,-0.28,0.12,
2884,-0.3,0.1,
2885,-0.305,0.095,
2886,-0.31,0.09,
2887,-0.28,0.105,
2888,-0.265,0.115,
2889,-0.26,0.1,
2890,-0.27,0.095,
2891,-0.28,0.075,
2892,-0.27,0.085,
2893,-0.24,0.09,
2894,-0.24,0.095,
2895,-0.24,0.095,
2896,-0.24,0.095,
2897,-0.25,0.085,
2898,-0.235,0.08,
2899,-0.225,0.09,
2900,-0.215,0.1,
2901,-0.22,0.105,
2902,-0.245,0.1,
2903,-0.25,0.095,
2904,-0.225,0.105,
2905,-0.2,0.095,
2906,-0.175,0.11,
2907,-0.17,0.09,
2908,-0.15,0.075,
2909,-0.125,0.035,
2910,-0.07,0.01,
2911,-0.02,-0.01,
2912,0.01,-0.025,
2913,0.055,-0.07,
2914,0.095,-0.15,
2915,0.135,-0.225,
2916,0.245,-0.32,
2917,0.355,-0.435,
2918,0.45,-0.515,
2919,0.515,-0.595,
2920,0.595,-0.665,
2921,0.665,-0.735,
2922,0.765,-0.785,
2923,0.86,-0.845,
2924,0.95,-0.9,
2925,1.06,-0.97,
2926,1.145,-1.0,
2927,1.23,-1.02,
2928,1.355,-1.055,
2929,1.49,-1.07,
2930,1.56,-1.05,V
2931,1.59,-1.025,
2932,1.535,-1.01,
2933,1.455,-0.965,
2934,1.39,-0.91,
2935,1.33,-0.81,
2936,1.28,-0.7,
2937,1.245,-0.585,
2938,1.195,-0.49,
2939,1.16,-0.405,
2940,1.125,-0.36,
2941,1.095,-0.32,
2942,1.055,-0.275,
2943,1.03,-0.265,
2944,0.985,-0.225,
2945,0.975,-0.215,
2946,1.0,-0.19,
2947,1.025,-0.17,
2948,0.985,-0.16,
2949,0.9,-0.15,
2950,0.77,-0.165,
2951,0.62,-0.145,
2952,0.455,-0.095,
2953,0.255,-0.03,
2954,0.05,0.055,
2955,-0.135,0.135,
2956,-0.32,0.185,
2957,-0.41,0.2,
2958,-0.46,0.235,
2959,-0.47,0.265,
2960,-0.49,0.28,
2961,-0.525,0.295,
2962,-0.565,0.3,
2963,-0.6,0.295,
2964,-0.615,0.3,
2965,-0.61,0.33,
2966,-0.625,0.335,
2967,-0.655,0.365,
2968,-0.685,0.37,
2969,-0.69,0.36,
2970,-0.685,0.36,
2971,-0.68,0.385,
2972,-0.685,0.405,
2973,-0.72,0.415,
2974,-0.745,0.415,
2975,-0.755,0.415,
2976,-0.745,0.44,
2977,-0.74,0.465,
2978,-0.76,0.48,
2979,-0.785,0.495,
2980,-0.815,0.505,
2981,-0.835,0.505,
2982,-0.84,0.5,
2983,-0.83,0.535,
2984,-0.845,0.57,
2985,-0.875,0.575,
2986,-0.9,0.59,
2987,-0.92,0.595,
2988,-0.915,0.6,
2989,-0.915,0.625,
2990,-0.925,0.65,
2991,-0.95,0.655,
2992,-0.97,0.665,
2993,-0.99,0.65,
2994,-0.99,0.66,
2995,-0.985,0.67,
2996,-0.975,0.68,
2997,-0.99,0.68,
2998,-1.02,0.665,
2999,-1.015,0.64,
3000,-0.985,0.625,
3001,-0.945,0.61,
3002,-0.925,0.605,
3003,-0.935,0.59,
3004,-0.925,0.55,
3005,-0.905,0.505,
3006,-0.845,0.475,
3007,-0.805,0.445,
3008,-0.76,0.415,
3009,-0.72,0.4,
3010,-0.715,0.36,
3011,-0.67,0.32,
3012,-0.62,0.285,
3013,-0.565,0.275,
3014,-0.525,0.25,
3015,-0.495,0.24,
3016,-0.47,0.21,
3017,-0.44,0.175,
3018,-0.395,0.16,
3019,-0.35,0.15,
3020,-0.335,0.15,
3021,-0.315,0.145,
3022,-0.31,0.14,
3023,-0.295,0.11,
3024,-0.275,0.105,
3025,-0.26,0.105,
3026,-0.245,0.12,
3027,-0.26,0.12,
3028,-0.27,0.12,
3029,-0.29,0.085,
3030,-0.26,0.085,
3031,-0.23,0.095,
3032,-0.225,0.115,
3033,-0.24,0.105,
3034,-0.255,0.095,
3035,-0.26,0.09,
3036,-0.255,0.1,
3037,-0.235,0.095,
3038,-0.225,0.11,
3039,-0.235,0.11,
3040,-0.26,0.095,
3041,-0.26,0.1,
3042,-0.25,0.095,
3043,-0.23,0.1,
3044,-0.26,0.12,
3045,-0.25,0.125,
3046,-0.265,0.11,
3047,-0.255,0.095,
3048,-0.25,0.095,
3049,-0.22,0.095,
3050,-0.225,0.12,
3051,-0.23,0.115,
3052,-0.245,0.095,
3053,-0.24,0.075,
3054,-0.215,0.075,
3055,-0.195,0.09,
3056,-0.195,0.1,
3057,-0.21,0.095,
3058,-0.235,0.08,
3059,-0.225,0.06,
3060,-0.205,0.07,
3061,-0.18,0.08,
3062,-0.185,0.09,
3063,-0.195,0.095,
3064,-0.21,0.085,
3065,-0.205,0.065,
3066,-0.18,0.065,
3067,-0.16,0.07,
3068,-0.165,0.085,
3069,-0.18,0.085,
3070,-0.19,0.08,
3071,-0.19,0.065,
3072,-0.17,0.055,
3073,-0.16,0.075,
3074,-0.155,0.09,
3075,-0.17,0.085,
3076,-0.18,0.075,
3077,-0.19,0.055,
3078,-0.175,0.055,
3079,-0.155,0.065,
3080,-0.15,0.075,
3081,-0.165,0.07,
3082,-0.185,0.07,
3083,-0.18,0.055,
3084,-0.165,0.065,
3085,-0.145,0.06,
3086,-0.14,0.06,
3087,-0.165,0.075,
3088,-0.165,0.06,
3089,-0.16,0.035,
3090,-0.165,0.035,
3091,-0.145,0.045,
3092,-0.14,0.055,
3093,-0.155,0.07,
3094,-0.165,0.05,
3095,-0.17,0.04,
3096,-0.145,0.04,
3097,-0.14,0.055,
3098,-0.135,0.06,
3099,-0.145,0.065,
3100,-0.15,0.045,
3101,-0.155,0.04,
3102,-0.135,0.04,
3103,-0.13,0.045,
3104,-0.135,0.05,
3105,-0.135,0.05,
3106,-0.155,0.05,
3107,-0.16,0.045,
3108,-0.15,0.035,
3109,-0.13,0.045,
3110,-0.14,0.05,
3111,-0.135,0.06,
3112,-0.16,0.05,
3113,-0.155,0.04,
3114,-0.145,0.035,
3115,-0.125,0.04,
3116,-0.12,0.06,
3117,-0.13,0.05,
3118,-0.15,0.045,
3119,-0.155,0.025,
3120,-0.125,0.04,
3121,-0.125,0.05,
3122,-0.145,0.065,
3123,-0.145,0.06,
3124,-0.145,0.055,
3125,-0.145,0.04,
3126,-0.135,0.035,
3127,-0.125,0.045,
3128,-0.135,0.055,
3129,-0.155,0.06,
3130,-0.14,0.045,
3131,-0.14,0.03,
3132,-0.125,0.035,
3133,-0.12,0.04,
3134,-0.115,0.06,
3135,-0.125,0.05,
3136,-0.145,0.045,
3137,-0.145,0.04,
3138,-0.135,0.04,
3139,-0.115,0.045,
3140,-0.105,0.05,
3141,-0.11,0.055,
3142,-0.105,0.065,
3143,-0.1,0.07,
3144,-0.08,0.07,
3145,-0.05,0.08,
3146,-0.045,0.09,
3147,-0.035,0.105,
3148,-0.025,0.09,
3149,-0.015,0.08,
3150,0.02,0.065,
3151,0.05,0.05,
3152,0.05,0.055,
3153,0.035,0.03,
3154,0.03,0.005,
3155,0.025,-0.01,
3156,0.035,-0.025,
3157,0.025,-0.01,
3158,0.005,-0.01,
3159,-0.02,-0.005,
3160,-0.05,-0.005,
3161,-0.05,-0.025,
3162,-0.055,-0.045,
3163,-0.055,-0.035,
3164,-0.065,-0.01,
3165,-0.09,0.005,
3166,-0.115,0.005,
3167,-0.125,-0.005,
3168,-0.125,0.01,
3169,-0.125,-0.005,
3170,-0.125,0.02,
3171,-0.14,0.02,
3172,-0.165,0.0,
3173,-0.145,-0.005,
3174,-0.145,-0.005,
3175,-0.135,-0.005,
3176,-0.13,0.015,
3177,-0.145,0.01,
3178,-0.155,0.005,
3179,-0.14,-0.005,
3180,-0.125,-0.01,
3181,-0.115,-0.005,
3182,-0.125,0.0,
3183,-0.14,0.005,
3184,-0.145,-0.01,
3185,-0.145,-0.015,
3186,-0.12,-0.02,
3187,-0.115,-0.01,
3188,-0.125,-0.025,
3189,-0.155,-0.025,
3190,-0.165,-0.035,
3191,-0.15,-0.045,
3192,-0.07,-0.04,
3193,0.04,-0.05,
3194,0.175,-0.105,
3195,0.34,-0.19,
3196,0.53,-0.225,
3197,0.75,-0.25,
3198,0.995,-0.245,
3199,1.25,-0.255,
3200,1.47,-0.265,
3201,1.6,-0.25,N
3202,1.54,-0.19,
3203,1.28,-0.14,
3204,0.935,-0.125,
3205,0.595,-0.1,
3206,0.29,-0.08,
3207,0.1,-0.08,
3208,0.0,-0.115,
3209,-0.07,-0.135,
3210,-0.115,-0.12,
3211,-0.145,-0.095,
3212,-0.16,-0.05,
3213,-0.165,-0.025,
3214,-0.135,-0.02,
3215,-0.13,-0.02,
3216,-0.135,-0.01,
3217,-0.135,0.005,
3218,-0.15,0.02,
3219,-0.175,0.01,
3220,-0.185,0.005,
3221,-0.185,0.0,
3222,-0.18,-0.005,
3223,-0.165,0.015,
3224,-0.17,0.03,
3225,-0.205,0.025,
3226,-0.2,0.02,
3227,-0.195,0.005,
3228,-0.175,0.01,
3229,-0.18,0.015,
3230,-0.165,0.02,
3231,-0.18,0.025,
3232,-0.19,0.02,
3233,-0.195,0.0,
3234,-0.17,0.0,
3235,-0.15,0.005,
3236,-0.155,0.025,
3237,-0.165,0.015,
3238,-0.18,0.005,
3239,-0.185,-0.01,
3240,-0.155,0.01,
3241,-0.15,0.01,
3242,-0.14,0.03,
3243,-0.14,0.01,
3244,-0.155,-0.005,
3245,-0.155,-0.015,
3246,-0.125,-0.015,
3247,-0.1,-0.015,
3248,-0.095,-0.005,
3249,-0.105,0.005,
3250,-0.125,-0.015,
3251,-0.14,-0.035,
3252,-0.11,-0.04,
3253,-0.075,-0.03,
3254,-0.075,-0.03,
3255,-0.09,-0.035,
3256,-0.1,-0.05,
3257,-0.085,-0.06,
3258,-0.065,-0.065,
3259,-0.03,-0.055,
3260,-0.01,-0.055,
3261,-0.04,-0.065,
3262,-0.04,-0.085,
3263,-0.055,-0.105,
3264,-0.015,-0.12,
3265,0.025,-0.11,
3266,0.045,-0.105,
3267,0.035,-0.11,
3268,0.015,-0.135,
3269,0.025,-0.16,
3270,0.055,-0.17,
3271,0.11,-0.17,
3272,0.115,-0.175,
3273,0.12,-0.185,
3274,0.11,-0.21,
3275,0.125,-0.235,
3276,0.155,-0.24,
3277,0.19,-0.24,
3278,0.205,-0.23,
3279,0.21,-0.245,
3280,0.205,-0.265,
3281,0.21,-0.285,
3282,0.235,-0.29,
3283,0.255,-0.285,
3284,0.27,-0.265,
3285,0.27,-0.275,
3286,0.265,-0.285,
3287,0.26,-0.31,
3288,0.275,-0.3,
3289,0.31,-0.29,
3290,0.32,-0.275,
3291,0.315,-0.265,
3292,0.295,-0.26,
3293,0.275,-0.275,
3294,0.275,-0.265,
3295,0.29,-0.235,
3296,0.29,-0.2,
3297,0.24,-0.19,
3298,0.205,-0.18,
3299,0.17,-0.175,
3300,0.17,-0.14,
3301,0.175,-0.105,
3302,0.155,-0.08,
3303,0.14,-0.05,
3304,0.08,-0.05,
3305,0.06,-0.04,
3306,0.05,-0.035,
3307,0.055,-0.015,
3308,0.02,0.005,
3309,0.03,0.02,
3310,-0.02,0.02,
3311,-0.035,0.015,
3312,-0.045,0.025,
3313,-0.03,0.04,
3314,-0.035,0.055,
3315,-0.055,0.06,
3316,-0.08,0.055,
3317,-0.12,0.04,
3318,-0.14,0.04,
3319,-0.11,0.055,
3320,-0.105,0.06,
3321,-0.105,0.065,
3322,-0.125,0.075,
3323,-0.125,0.065,
3324,-0.125,0.045,
3325,-0.11,0.06,
3326,-0.11,0.07,
3327,-0.105,0.08,
3328,-0.12,0.07,
3329,-0.135,0.06,
3330,-0.135,0.055,
3331,-0.12,0.055,
3332,-0.115,0.08,
3333,-0.1,0.065,
3334,-0.125,0.065,
3335,-0.13,0.055,
3336,-0.125,0.05,
3337,-0.12,0.055,
3338,-0.105,0.065,
3339,-0.095,0.075,
3340,-0.125,0.05,
3341,-0.115,0.045,
3342,-0.1,0.035,
3343,-0.08,0.05,
3344,-0.08,0.06,
3345,-0.105,0.055,
3346,-0.12,0.055,
3347,-0.13,0.03,
3348,-0.13,0.025,
3349,-0.115,0.025,
3350,-0.105,0.03,
3351,-0.095,0.03,
3352,-0.11,0.025,
3353,-0.1,0.01,
3354,-0.105,0.02,
3355,-0.095,0.03,
3356,-0.1,0.025,
3357,-0.11,0.04,
3358,-0.11,0.035,
3359,-0.12,0.015,
3360,-0.105,0.015,
3361,-0.11,0.04,
3362,-0.11,0.035,
3363,-0.11,0.04,
3364,-0.12,0.04,
3365,-0.09,0.035,
3366,-0.07,0.025,
3367,-0.06,0.045,
3368,-0.05,0.065,
3369,-0.05,0.075,
3370,-0.045,0.075,
3371,-0.04,0.06,
3372,-0.015,0.055,
3373,0.005,0.075,
3374,0.02,0.075,
3375,0.025,0.07,
3376,0.025,0.055,
3377,0.025,0.04,
3378,0.045,0.035,
3379,0.065,0.03,
3380,0.055,0.045,
3381,0.02,0.035,
3382,0.005,0.025,
3383,0.01,0.02,
3384,0.03,0.015,
3385,0.045,0.015,
3386,0.045,0.02,
3387,0.035,0.025,
3388,0.025,-0.025,
3389,0.05,-0.06,
3390,0.07,-0.085,
3391,0.125,-0.11,
3392,0.16,-0.125,
3393,0.17,-0.17,
3394,0.205,-0.225,
3395,0.27,-0.295,
3396,0.35,-0.405,
3397,0.435,-0.51,
3398,0.515,-0.605,
3399,0.57,-0.685,
3400,0.615,-0.775,
3401,0.68,-0.83,
3402,0.755,-0.885,
3403,0.83,-0.925,
3404,0.9,-0.965,
3405,0.965,-1.035,
3406,1.04,-1.085,
3407,1.115,-1.125,
3408,1.185,-1.135,
3409,1.245,-1.145,
3410,1.34,-1.17,
3411,1.42,-1.195,V
3412,1.495,-1.215,
3413,1.55,-1.22,
3414,1.555,-1.165,
3415,1.545,-1.115,
3416,1.505,-1.045,
3417,1.445,-0.99,
3418,1.39,-0.94,
3419,1.33,-0.865,
3420,1.295,-0.775,
3421,1.285,-0.675,
3422,1.245,-0.565,
3423,1.22,-0.51,
3424,1.17,-0.48,
3425,1.14,-0.46,
3426,1.145,-0.45,
3427,1.16,-0.4,
3428,1.155,-0.345,
3429,1.14,-0.31,
3430,1.125,-0.3,
3431,1.09,-0.305,
3432,1.03,-0.3,
3433,0.96,-0.275,
3434,0.865,-0.235,
3435,0.715,-0.19,
3436,0.52,-0.14,
3437,0.295,-0.07,
3438,0.095,0.01,
3439,-0.09,0.08,
3440,-0.215,0.13,
3441,-0.325,0.185,
3442,-0.395,0.195,
3443,-0.445,0.205,
3444,-0.46,0.22,
3445,-0.455,0.24,
3446,-0.465,0.27,
3447,-0.495,0.29,
3448,-0.54,0.275,
3449,-0.575,0.29,
3450,-0.58,0.285,
3451,-0.58,0.3,
3452,-0.575,0.315,
3453,-0.58,0.325,
3454,-0.605,0.325,
3455,-0.61,0.335,
3456,-0.62,0.335,
3457,-0.62,0.35,
3458,-0.625,0.375,
3459,-0.65,0.375,
3460,-0.67,0.385,
3461,-0.67,0.38,
3462,-0.655,0.405,
3463,-0.635,0.4,
3464,-0.665,0.43,
3465,-0.685,0.43,
3466,-0.69,0.44,
3467,-0.7,0.44,
3468,-0.695,0.44,
3469,-0.69,0.47,
3470,-0.7,0.49,
3471,-0.725,0.505,
3472,-0.74,0.505,
3473,-0.745,0.515,
3474,-0.75,0.525,
3475,-0.75,0.55,
3476,-0.77,0.565,
3477,-0.8,0.585,
3478,-0.825,0.585,
3479,-0.825,0.58,
3480,-0.815,0.61,
3481,-0.81,0.62,
3482,-0.81,0.645,
3483,-0.83,0.645,
3484,-0.86,0.635,
3485,-0.865,0.635,
3486,-0.86,0.64,
3487,-0.86,0.65,
3488,-0.85,0.67,
3489,-0.865,0.67,
3490,-0.89,0.66,
3491,-0.91,0.64,
3492,-0.88,0.63,
3493,-0.855,0.645,
3494,-0.83,0.645,
3495,-0.86,0.645,
3496,-0.86,0.62,
3497,-0.87,0.595,
3498,-0.845,0.58,
3499,-0.815,0.57,
3500,-0.805,0.56,
3501,-0.795,0.55,
3502,-0.805,0.515,
3503,-0.795,0.48,
3504,-0.775,0.465,
3505,-0.735,0.44,
3506,-0.715,0.435,
3507,-0.695,0.42,
3508,-0.68,0.375,
3509,-0.66,0.34,
3510,-0.645,0.31,
3511,-0.6,0.305,
3512,-0.565,0.295,
3513,-0.53,0.265,
3514,-0.505,0.23,
3515,-0.495,0.2,
3516,-0.465,0.18,
3517,-0.425,0.175,
3518,-0.385,0.18,
3519,-0.345,0.155,
3520,-0.345,0.14,
3521,-0.315,0.105,
3522,-0.29,0.09,
3523,-0.25,0.075,
3524,-0.235,0.1,
3525,-0.235,0.095,
3526,-0.24,0.08,
3527,-0.235,0.065,
3528,-0.225,0.05,
3529,-0.2,0.06,
3530,-0.195,0.075,
3531,-0.195,0.07,
3532,-0.21,0.065,
3533,-0.205,0.045,
3534,-0.205,0.055,
3535,-0.195,0.06,
3536,-0.18,0.065,
3537,-0.195,0.07,
3538,-0.205,0.065,
3539,-0.21,0.05,
3540,-0.205,0.05,
3541,-0.19,0.065,
3542,-0.18,0.06,
3543,-0.175,0.085,
3544,-0.185,0.055,
3545,-0.19,0.055,
3546,-0.18,0.045,
3547,-0.175,0.05,
3548,-0.175,0.07,
3549,-0.175,0.065,
3550,-0.18,0.06,
3551,-0.17,0.055,
3552,-0.16,0.05,
3553,-0.175,0.07,
3554,-0.18,0.085,
3555,-0.19,0.085,
3556,-0.19,0.075,
3557,-0.175,0.065,
3558,-0.17,0.065,
3559,-0.17,0.085,
3560,-0.165,0.075,
3561,-0.18,0.085,
3562,-0.185,0.075,
3563,-0.18,0.06,
3564,-0.17,0.05,
3565,-0.165,0.07,
3566,-0.17,0.065,
3567,-0.165,0.075,
3568,-0.185,0.06,
3569,-0.175,0.045,
3570,-0.17,0.045,
3571,-0.165,0.04,
3572,-0.17,0.065,
3573,-0.175,0.085,
3574,-0.17,0.08,
3575,-0.175,0.07,
3576,-0.155,0.07,
3577,-0.135,0.065,
3578,-0.12,0.075,
3579,-0.1,0.075,
3580,-0.105,0.06,
3581,-0.08,0.025,
3582,-0.035,0.0,
3583,0.015,-0.02,
3584,0.06,-0.04,
3585,0.085,-0.07,
3586,0.12,-0.11,
3587,0.165,-0.165,
3588,0.235,-0.23,
3589,0.32,-0.3,
3590,0.39,-0.375,
3591,0.475,-0.46,
3592,0.545,-0.53,
3593,0.62,-0.59,
3594,0.71,-0.64,
3595,0.805,-0.685,
3596,0.885,-0.72,
3597,0.94,-0.76,
3598,1.025,-0.8,
3599,1.13,-0.87,
3600,1.225,-0.885,
3601,1.305,-0.9,
3602,1.385,-0.91,
3603,1.455,-0.925,
3604,1.55,-0.96,
3605,1.63,-0.975,
3606,1.67,-0.955,V
3607,1.66,-0.9,
3608,1.62,-0.825,
3609,1.54,-0.76,
3610,1.48,-0.695,
3611,1.42,-0.66,
3612,1.355,-0.58,
3613,1.315,-0.475,
3614,1.235,-0.395,
3615,1.17,-0.31,
3616,1.105,-0.285,
3617,1.055,-0.255,
3618,1.035,-0.235,
3619,1.035,-0.215,
3620,1.02,-0.215,
3621,1.0,-0.215,
3622,0.995,-0.225,
3623,0.965,-0.26,
3624,0.885,-0.265,
3625,0.76,-0.265,
3626,0.595,-0.23,
3627,0.4,-0.18,
3628,0.19,-0.105,
3629,0.01,-0.04,
3630,-0.125,0.045,
3631,-0.225,0.105,
3632,-0.305,0.155,
3633,-0.37,0.185,
3634,-0.415,0.2,
3635,-0.445,0.2,
3636,-0.455,0.21,
3637,-0.475,0.23,
3638,-0.485,0.245,
3639,-0.51,0.26,
3640,-0.52,0.265,
3641,-0.535,0.255,
3642,-0.54,0.265,
3643,-0.545,0.275,
3644,-0.56,0.295,
3645,-0.57,0.305,
3646,-0.595,0.315,
3647,-0.6,0.31,
3648,-0.6,0.3,
3649,-0.605,0.325,
3650,-0.605,0.34,
3651,-0.63,0.35,
3652,-0.645,0.345,
3653,-0.65,0.35,
3654,-0.645,0.37,
3655,-0.65,0.38,
3656,-0.67,0.39,
3657,-0.68,0.405,
3658,-0.705,0.415,
3659,-0.69,0.41,
3660,-0.695,0.43,
3661,-0.7,0.45,
3662,-0.71,0.48,
3663,-0.735,0.485,
3664,-0.765,0.485,
3665,-0.77,0.48,
3666,-0.78,0.5,
3667,-0.77,0.505,
3668,-0.78,0.53,
3669,-0.805,0.55,
3670,-0.82,0.545,
3671,-0.825,0.53,
3672,-0.825,0.535,
3673,-0.825,0.545,
3674,-0.825,0.57,
3675,-0.85,0.575,
3676,-0.86,0.56,
3677,-0.86,0.55,
3678,-0.86,0.55,
3679,-0.85,0.55,
3680,-0.855,0.56,
3681,-0.87,0.555,
3682,-0.87,0.535,
3683,-0.875,0.51,
3684,-0.855,0.515,
3685,-0.825,0.515,
3686,-0.82,0.505,
3687,-0.83,0.49,
3688,-0.82,0.46,
3689,-0.795,0.435,
3690,-0.765,0.42,
3691,-0.74,0.405,
3692,-0.74,0.385,
3693,-0.73,0.36,
3694,-0.7,0.325,
3695,-0.675,0.29,
3696,-0.635,0.27,
3697,-0.58,0.255,
3698,-0.555,0.235,
3699,-0.55,0.21,
3700,-0.515,0.195,
3701,-0.48,0.15,
3702,-0.43,0.135,
3703,-0.375,0.13,
3704,-0.355,0.135,
3705,-0.35,0.115,
3706,-0.33,0.1,
3707,-0.31,0.08,
3708,-0.285,0.065,
3709,-0.24,0.07,
3710,-0.235,0.07,
3711,-0.235,0.06,
3712,-0.24,0.055,
3713,-0.225,0.035,
3714,-0.22,0.045,
3715,-0.18,0.05,
3716,-0.19,0.065,
3717,-0.205,0.055,
3718,-0.21,0.03,
3719,-0.215,0.035,
3720,-0.19,0.025,
3721,-0.185,0.045,
3722,-0.18,0.055,
3723,-0.195,0.05,
3724,-0.215,0.045,
3725,-0.2,0.035,
3726,-0.19,0.03,
3727,-0.185,0.035,
3728,-0.195,0.055,
3729,-0.225,0.055,
3730,-0.215,0.045,
3731,-0.205,0.03,
3732,-0.19,0.03,
3733,-0.17,0.05,
3734,-0.185,0.055,
3735,-0.215,0.055,
3736,-0.24,0.035,
3737,-0.225,0.035,
3738,-0.195,0.035,
3739,-0.165,0.045,
3740,-0.155,0.05,
3741,-0.185,0.05,
3742,-0.2,0.04,
3743,-0.195,0.025,
3744,-0.185,0.02,
3745,-0.17,0.03,
3746,-0.16,0.045,
3747,-0.18,0.04,
3748,-0.19,0.035,
3749,-0.18,0.02,
3750,-0.17,0.025,
3751,-0.15,0.025,
3752,-0.14,0.035,
3753,-0.17,0.035,
3754,-0.17,0.03,
3755,-0.155,0.015,
3756,-0.14,0.01,
3757,-0.125,0.025,
3758,-0.135,0.025,
3759,-0.135,0.03,
3760,-0.17,0.015,
3761,-0.16,0.0,
3762,-0.13,-0.01,
3763,-0.11,0.015,
3764,-0.11,0.03,
3765,-0.135,0.015,
3766,-0.145,0.015,
3767,-0.145,0.0,
3768,-0.135,-0.005,
3769,-0.12,0.01,
3770,-0.09,0.02,
3771,-0.11,0.015,
3772,-0.145,0.0,
3773,-0.135,-0.015,
3774,-0.11,-0.005,
3775,-0.09,0.01,
3776,-0.095,0.015,
3777,-0.105,0.01,
3778,-0.14,-0.005,
3779,-0.135,-0.015,
3780,-0.11,-0.01,
3781,-0.095,-0.005,
3782,-0.09,0.01,
3783,-0.105,0.02,
3784,-0.11,0.0,
3785,-0.115,-0.02,
3786,-0.1,-0.02,
3787,-0.085,-0.015,
3788,-0.085,0.01,
3789,-0.11,0.015,
3790,-0.14,-0.005,
3791,-0.14,-0.02,
3792,-0.12,-0.015,
3793,-0.09,-0.005,
3794,-0.09,0.01,
3795,-0.1,0.01,
3796,-0.125,-0.01,
3797,-0.13,-0.015,
3798,-0.125,-0.015,
3799,-0.1,-0.005,
3800,-0.085,0.005,
3801,-0.105,0.0,
3802,-0.105,-0.01,
3803,-0.125,-0.02,
3804,-0.115,-0.02,
3805,-0.09,-0.025,
3806,-0.08,-0.005,
3807,-0.09,0.005,
3808,-0.105,-0.01,
3809,-0.115,-0.02,
3810,-0.11,-0.035,
3811,-0.09,-0.015,
3812,-0.09,0.005,
3813,-0.095,-0.01,
3814,-0.1,-0.015,
3815,-0.125,-0.03,
3816,-0.105,-0.03,
3817,-0.075,-0.02,
3818,-0.07,-0.01,
3819,-0.085,-0.005,
3820,-0.085,-0.01,
3821,-0.105,-0.03,
3822,-0.085,-0.035,
3823,-0.07,-0.02,
3824,-0.06,0.01,
3825,-0.065,0.0,
3826,-0.055,0.0,
3827,-0.055,0.0,
3828,-0.03,0.005,
3829,-0.01,0.015,
3830,0.005,0.03,
3831,0.0,0.03,
3832,0.015,0.035,
3833,0.025,0.015,
3834,0.04,0.005,
3835,0.07,0.005,
3836,0.085,0.01,
3837,0.09,0.015,
3838,0.09,-0.02,
3839,0.085,-0.055,
3840,0.08,-0.06,
3841,0.085,-0.07,
3842,0.085,-0.055,
3843,0.055,-0.055,
3844,0.045,-0.06,
3845,0.035,-0.065,
3846,0.025,-0.07,
3847,0.02,-0.075,
3848,-0.01,-0.06,
3849,-0.025,-0.05,
3850,-0.055,-0.06,
3851,-0.06,-0.055,
3852,-0.055,-0.045,
3853,-0.05,-0.055,
3854,-0.065,-0.035,
3855,-0.08,-0.035,
3856,-0.1,-0.045,
3857,-0.11,-0.055,
3858,-0.11,-0.045,
3859,-0.105,-0.05,
3860,-0.095,-0.035,
3861,-0.1,-0.035,
3862,-0.115,-0.05,
3863,-0.11,-0.055,
3864,-0.12,-0.06,
3865,-0.09,-0.045,
3866,-0.085,-0.04,
3867,-0.095,-0.035,
3868,-0.105,-0.05,
3869,-0.1,-0.055,
3870,-0.11,-0.06,
3871,-0.105,-0.05,
3872,-0.085,-0.04,
3873,-0.1,-0.06,
3874,-0.115,-0.08,
3875,-0.14,-0.08,
3876,-0.14,-0.065,
3877,-0.07,-0.055,
3878,0.055,-0.07,
3879,0.19,-0.125,
3880,0.35,-0.19,
3881,0.535,-0.27,
3882,0.8,-0.275,
3883,1.105,-0.265,
3884,1.39,-0.26,
3885,1.625,-0.26,
3886,1.72,-0.26,N
3887,1.62,-0.23,
3888,1.325,-0.16,
3889,0.955,-0.11,
3890,0.58,-0.085,
3891,0.245,-0.095,
3892,0.0,-0.13,
3893,-0.105,-0.165,
3894,-0.13,-0.175,
3895,-0.12,-0.16,
3896,-0.105,-0.125,
3897,-0.145,-0.1,
3898,-0.135,-0.08,
3899,-0.135,-0.07,
3900,-0.11,-0.055,
3901,-0.115,-0.04,
3902,-0.115,-0.025,
3903,-0.13,-0.025,
3904,-0.14,-0.04,
3905,-0.14,-0.035,
3906,-0.135,-0.03,
3907,-0.14,-0.03,
3908,-0.15,-0.03,
3909,-0.155,-0.03,
3910,-0.16,-0.025,
3911,-0.155,-0.05,
3912,-0.15,-0.045,
3913,-0.145,-0.03,
3914,-0.14,-0.015,
3915,-0.135,-0.015,
3916,-0.15,-0.025,
3917,-0.145,-0.045,
3918,-0.145,-0.035,
3919,-0.15,-0.025,
3920,-0.13,-0.015,
3921,-0.145,-0.015,
3922,-0.155,-0.03,
3923,-0.135,-0.03,
3924,-0.135,-0.035,
3925,-0.12,-0.035,
3926,-0.11,-0.015,
3927,-0.12,-0.015,
3928,-0.13,-0.03,
3929,-0.12,-0.035,
3930,-0.1,-0.05,
3931,-0.11,-0.045,
3932,-0.095,-0.035,
3933,-0.105,-0.045,
3934,-0.095,-0.055,
3935,-0.085,-0.065,
3936,-0.07,-0.08,
3937,-0.055,-0.08,
3938,-0.035,-0.07,
3939,-0.05,-0.075,
3940,-0.05,-0.085,
3941,-0.05,-0.1,
3942,-0.04,-0.105,
3943,-0.01,-0.095,
3944,-0.005,-0.1,
3945,0.01,-0.1,
3946,0.015,-0.12,
3947,0.015,-0.13,
3948,0.03,-0.145,
3949,0.045,-0.15,
3950,0.055,-0.145,
3951,0.065,-0.16,
3952,0.075,-0.17,
3953,0.08,-0.205,
3954,0.085,-0.225,
3955,0.12,-0.22,
3956,0.14,-0.22,
3957,0.14,-0.22,
3958,0.16,-0.25,
3959,0.17,-0.275,
3960,0.185,-0.28,
3961,0.22,-0.27,
3962,0.215,-0.28,
3963,0.23,-0.28,
3964,0.24,-0.29,
3965,0.23,-0.295,
3966,0.245,-0.305,
3967,0.265,-0.315,
3968,0.265,-0.3,
3969,0.285,-0.295,
3970,0.275,-0.3,
3971,0.28,-0.305,
3972,0.27,-0.3,
3973,0.295,-0.29,
3974,0.285,-0.28,
3975,0.27,-0.27,
3976,0.255,-0.26,
3977,0.255,-0.26,
3978,0.27,-0.24,
3979,0.25,-0.215,
3980,0.215,-0.175,
3981,0.21,-0.175,
3982,0.175,-0.16,
3983,0.165,-0.155,
3984,0.14,-0.115,
3985,0.14,-0.105,
3986,0.11,-0.07,
3987,0.085,-0.04,
3988,0.07,-0.045,
3989,0.035,-0.035,
3990,0.03,-0.03,
3991,0.005,-0.01,
3992,0.0,0.025,
3993,-0.02,0.025,
3994,-0.055,0.03,
3995,-0.06,0.015,
3996,-0.085,0.02,
3997,-0.07,0.025,
3998,-0.075,0.05,
3999,-0.1,0.045,
4000,-0.105,0.05,
4001,-0.105,0.04,
4002,-0.105,0.035,
4003,-0.1,0.045,
4004,-0.1,0.06,
4005,-0.105,0.065,
4006,-0.115,0.055,
4007,-0.13,0.045,
4008,-0.115,0.055,
4009,-0.1,0.055,
4010,-0.085,0.07,
4011,-0.09,0.075,
4012,-0.105,0.06,
4013,-0.11,0.04,
4014,-0.115,0.045,
4015,-0.09,0.045,
4016,-0.08,0.07,
4017,-0.085,0.065,
4018,-0.105,0.055,
4019,-0.115,0.035,
4020,-0.1,0.035,
4021,-0.08,0.04,
4022,-0.065,0.06,
4023,-0.09,0.055,
4024,-0.1,0.045,
4025,-0.12,0.025,
4026,-0.11,0.02,
4027,-0.095,0.035,
4028,-0.09,0.045,
4029,-0.08,0.04,
4030,-0.095,0.035,
4031,-0.115,0.02,
4032,-0.105,0.015,
4033,-0.07,0.02,
4034,-0.08,0.03,
4035,-0.075,0.04,
4036,-0.095,0.03,
4037,-0.115,0.03,
4038,-0.095,0.035,
4039,-0.075,0.045,
4040,-0.06,0.06,
4041,-0.06,0.075,
4042,-0.06,0.065,
4043,-0.06,0.06,
4044,-0.03,0.065,
4045,-0.015,0.07,
4046,0.0,0.09,
4047,0.005,0.09,
4048,0.02,0.07,
4049,0.02,0.045,
4050,0.04,0.03,
4051,0.075,0.045,
4052,0.075,0.05,
4053,0.07,0.02,
4054,0.035,0.0,
4055,0.015,-0.015,
4056,0.025,-0.02,
4057,0.03,-0.005,
4058,0.02,0.02,
4059,0.0,0.01,
4060,-0.04,0.01,
4061,-0.085,0.01,
4062,-0.095,0.01,
4063,-0.085,0.035,
4064,-0.085,0.055,
4065,-0.1,0.085,
4066,-0.115,0.055,
4067,-0.1,0.03,
4068,-0.05,0.02,
4069,0.0,-0.01,
4070,0.03,-0.045,
4071,0.06,-0.08,
4072,0.1,-0.135,
4073,0.17,-0.2,
4074,0.245,-0.265,
4075,0.335,-0.335,
4076,0.405,-0.43,
4077,0.475,-0.555,
4078,0.515,-0.66,
4079,0.595,-0.75,
4080,0.69,-0.815,
4081,0.75,-0.88,
4082,0.8,-0.925,
4083,0.845,-1.01,
4084,0.92,-1.08,
4085,1.025,-1.15,
4086,1.11,-1.165,
4087,1.17,-1.18,
4088,1.23,-1.21,
4089,1.285,-1.25,
4090,1.36,-1.28,
4091,1.49,-1.28,
4092,1.585,-1.27,
4093,1.655,-1.265,
4094,1.695,-1.265,
4095,1.73,-1.255,
4096,1.795,-1.23,
4097,1.905,-1.145,F
4098,2.0,-1.025,
4099,2.045,-0.895,
4100,1.855,-0.755,
4101,1.47,-0.585,
4102,1.045,-0.415,
4103,0.695,-0.255,
4104,0.42,-0.135,
4105,0.165,-0.045,
4106,-0.03,0.03,
4107,-0.175,0.07,
4108,-0.265,0.095,
4109,-0.31,0.13,
4110,-0.32,0.155,
4111,-0.35,0.21,
4112,-0.39,0.225,
4113,-0.42,0.24,
4114,-0.445,0.245,
4115,-0.465,0.25,
4116,-0.465,0.26,
4117,-0.485,0.28,
4118,-0.505,0.305,
4119,-0.52,0.31,
4120,-0.525,0.295,
4121,-0.525,0.295,
4122,-0.525,0.295,
4123,-0.515,0.32,
4124,-0.53,0.33,
4125,-0.545,0.33,
4126,-0.555,0.34,
4127,-0.545,0.33,
4128,-0.54,0.34,
4129,-0.535,0.355,
4130,-0.545,0.365,
4131,-0.575,0.375,
4132,-0.585,0.385,
4133,-0.58,0.395,
4134,-0.57,0.395,
4135,-0.565,0.42,
4136,-0.59,0.43,
4137,-0.6,0.45,
4138,-0.605,0.46,
4139,-0.63,0.455,
4140,-0.61,0.465,
4141,-0.62,0.49,
4142,-0.635,0.5,
4143,-0.645,0.51,
4144,-0.655,0.53,
4145,-0.665,0.525,
4146,-0.665,0.54,
4147,-0.675,0.56,
4148,-0.675,0.575,
4149,-0.705,0.605,
4150,-0.71,0.595,
4151,-0.7,0.595,
4152,-0.7,0.61,
4153,-0.705,0.625,
4154,-0.715,0.64,
4155,-0.72,0.655,
4156,-0.735,0.65,
4157,-0.72,0.645,
4158,-0.72,0.635,
4159,-0.71,0.64,
4160,-0.71,0.65,
4161,-0.71,0.65,
4162,-0.71,0.635,
4163,-0.71,0.62,
4164,-0.7,0.605,
4165,-0.7,0.62,
4166,-0.675,0.605,
4167,-0.675,0.585,
4168,-0.65,0.56,
4169,-0.635,0.525,
4170,-0.61,0.515,
4171,-0.595,0.505,
4172,-0.58,0.495,
4173,-0.555,0.465,
4174,-0.545,0.42,
4175,-0.51,0.385,
4176,-0.485,0.36,
4177,-0.455,0.345,
4178,-0.43,0.33,
4179,-0.405,0.31,
4180,-0.385,0.28,
4181,-0.355,0.26,
4182,-0.345,0.225,
4183,-0.315,0.215,
4184,-0.305,0.215,
4185,-0.28,0.19,
4186,-0.28,0.175,
4187,-0.27,0.155,
4188,-0.24,0.155,
4189,-0.23,0.145,
4190,-0.215,0.15,
4191,-0.225,0.14,
4192,-0.21,0.135,
4193,-0.215,0.12,
4194,-0.205,0.135,
4195,-0.2,0.13,
4196,-0.225,0.125,
4197,-0.215,0.125,
4198,-0.24,0.115,
4199,-0.24,0.105,
4200,-0.21,0.11,
4201,-0.22,0.11,
4202,-0.225,0.12,
4203,-0.225,0.12,
4204,-0.245,0.105,
4205,-0.235,0.085,
4206,-0.225,0.095,
4207,-0.215,0.105,
4208,-0.215,0.11,
4209,-0.22,0.095,
4210,-0.235,0.09,
4211,-0.22,0.085,
4212,-0.2,0.09,
4213,-0.195,0.1,
4214,-0.195,0.11,
4215,-0.21,0.115,
4216,-0.23,0.095,
4217,-0.23,0.1,
4218,-0.205,0.09,
4219,-0.205,0.1,
4220,-0.195,0.115,
4221,-0.205,0.1,
4222,-0.23,0.095,
4223,-0.22,0.095,
4224,-0.21,0.085,
4225,-0.205,0.1,
4226,-0.21,0.11,
4227,-0.23,0.1,
4228,-0.24,0.1,
4229,-0.23,0.075,
4230,-0.215,0.09,
4231,-0.195,0.085,
4232,-0.19,0.115,
4233,-0.2,0.1,
4234,-0.23,0.1,
4235,-0.23,0.105,
4236,-0.205,0.105,
4237,-0.18,0.11,
4238,-0.16,0.105,
4239,-0.155,0.1,
4240,-0.15,0.065,
4241,-0.14,0.035,
4242,-0.095,0.03,
4243,-0.06,0.02,
4244,-0.02,0.015,
4245,0.0,-0.02,
4246,0.02,-0.065,
4247,0.075,-0.135,
4248,0.16,-0.2,
4249,0.25,-0.25,
4250,0.335,-0.335,
4251,0.395,-0.415,
4252,0.455,-0.51,
4253,0.515,-0.58,
4254,0.615,-0.65,
4255,0.72,-0.7,
4256,0.795,-0.755,
4257,0.845,-0.84,
4258,0.885,-0.92,
4259,0.95,-0.98,
4260,1.03,-1.015,
4261,1.085,-1.015,
4262,1.18,-1.02,V
4263,1.26,-1.04,
4264,1.325,-1.035,
4265,1.36,-1.02,
4266,1.385,-0.985,
4267,1.38,-0.92,
4268,1.335,-0.845,
4269,1.275,-0.77,
4270,1.225,-0.72,
4271,1.2,-0.63,
4272,1.17,-0.525,
4273,1.185,-0.415,
4274,1.17,-0.335,
4275,1.125,-0.29,
4276,1.065,-0.26,
4277,1.04,-0.26,
4278,1.03,-0.26,
4279,1.025,-0.235,
4280,1.045,-0.205,
4281,1.055,-0.205,
4282,1.03,-0.205,
4283,0.97,-0.235,
4284,0.87,-0.23,
4285,0.73,-0.21,
4286,0.57,-0.165,
4287,0.365,-0.1,
4288,0.13,-0.04,
4289,-0.075,0.05,
4290,-0.225,0.13,
4291,-0.325,0.19,
4292,-0.395,0.22,
4293,-0.445,0.24,
4294,-0.485,0.245,
4295,-0.505,0.25,
4296,-0.525,0.265,
4297,-0.53,0.295,
4298,-0.56,0.3,
4299,-0.6,0.305,
4300,-0.6,0.31,
4301,-0.62,0.305,
4302,-0.625,0.315,
4303,-0.635,0.335,
4304,-0.64,0.345,
4305,-0.66,0.355,
4306,-0.695,0.355,
4307,-0.69,0.355,
4308,-0.69,0.35,
4309,-0.68,0.385,
4310,-0.685,0.385,
4311,-0.715,0.4,
4312,-0.745,0.395,
4313,-0.755,0.395,
4314,-0.76,0.41,
4315,-0.755,0.43,
4316,-0.765,0.445,
4317,-0.785,0.45,
4318,-0.815,0.45,
4319,-0.825,0.455,
4320,-0.815,0.465,
4321,-0.84,0.5,
4322,-0.86,0.51,
4323,-0.885,0.525,
4324,-0.9,0.52,
4325,-0.895,0.52,
4326,-0.9,0.515,
4327,-0.895,0.555,
4328,-0.915,0.555,
4329,-0.94,0.585,
4330,-0.97,0.56,
4331,-1.0,0.565,
4332,-0.965,0.57,
4333,-0.96,0.57,
4334,-0.98,0.59,
4335,-0.985,0.595,
4336,-1.0,0.575,
4337,-1.005,0.56,
4338,-0.98,0.575,
4339,-0.955,0.565,
4340,-0.965,0.565,
4341,-0.975,0.565,
4342,-0.975,0.53,
4343,-0.965,0.525,
4344,-0.935,0.505,
4345,-0.905,0.5,
4346,-0.89,0.485,
4347,-0.87,0.465,
4348,-0.86,0.44,
4349,-0.845,0.395,
4350,-0.81,0.39,
4351,-0.77,0.38,
4352,-0.73,0.36,
4353,-0.705,0.34,
4354,-0.695,0.295,
4355,-0.655,0.27,
4356,-0.61,0.24,
4357,-0.555,0.235,
4358,-0.525,0.235,
4359,-0.52,0.215,
4360,-0.505,0.2,
4361,-0.475,0.17,
4362,-0.43,0.15,
4363,-0.395,0.155,
4364,-0.385,0.155,
4365,-0.365,0.145,
4366,-0.36,0.13,
4367,-0.345,0.105,
4368,-0.31,0.115,
4369,-0.29,0.13,
4370,-0.29,0.125,
4371,-0.295,0.125,
4372,-0.295,0.115,
4373,-0.295,0.1,
4374,-0.27,0.105,
4375,-0.255,0.115,
4376,-0.255,0.12,
4377,-0.28,0.13,
4378,-0.295,0.115,
4379,-0.295,0.105,
4380,-0.29,0.095,
4381,-0.275,0.115,
4382,-0.27,0.125,
4383,-0.265,0.12,
4384,-0.265,0.115,
4385,-0.27,0.095,
4386,-0.28,0.105,
4387,-0.255,0.11,
4388,-0.26,0.125,
4389,-0.275,0.125,
4390,-0.28,0.115,
4391,-0.28,0.095,
4392,-0.245,0.105,
4393,-0.25,0.11,
4394,-0.245,0.115,
4395,-0.26,0.125,
4396,-0.27,0.095,
4397,-0.26,0.095,
4398,-0.25,0.085,
4399,-0.23,0.09,
4400,-0.22,0.1,
4401,-0.235,0.095,
4402,-0.25,0.095,
4403,-0.245,0.075,
4404,-0.24,0.085,
4405,-0.235,0.09,
4406,-0.225,0.095,
4407,-0.225,0.09,
4408,-0.25,0.085,
4409,-0.245,0.095,
4410,-0.22,0.07,
4411,-0.205,0.09,
4412,-0.205,0.105,
4413,-0.22,0.095,
4414,-0.22,0.09,
4415,-0.225,0.075,
4416,-0.205,0.07,
4417,-0.21,0.08,
4418,-0.2,0.09,
4419,-0.21,0.075,
4420,-0.23,0.065,
4421,-0.23,0.055,
4422,-0.21,0.065,
4423,-0.195,0.065,
4424,-0.2,0.07,
4425,-0.215,0.07,
4426,-0.23,0.065,
4427,-0.21,0.055,
4428,-0.2,0.05,
4429,-0.205,0.055,
4430,-0.215,0.06,
4431,-0.235,0.06,
4432,-0.23,0.045,
4433,-0.21,0.045,
4434,-0.21,0.045,
4435,-0.195,0.05,
4436,-0.185,0.055,
4437,-0.205,0.06,
4438,-0.225,0.045,
4439,-0.215,0.035,
4440,-0.215,0.035,
4441,-0.195,0.04,
4442,-0.195,0.06,
4443,-0.2,0.055,
4444,-0.21,0.06,
4445,-0.215,0.03,
4446,-0.2,0.04,
4447,-0.185,0.045,
4448,-0.175,0.055,
4449,-0.2,0.065,
4450,-0.225,0.045,
4451,-0.2,0.035,
4452,-0.185,0.025,
4453,-0.17,0.045,
4454,-0.175,0.055,
4455,-0.2,0.035,
4456,-0.21,0.04,
4457,-0.205,0.025,
4458,-0.195,0.025,
4459,-0.175,0.04,
4460,-0.17,0.04,
4461,-0.19,0.045,
4462,-0.21,0.04,
4463,-0.21,0.025,
4464,-0.185,0.03,
4465,-0.175,0.045,
4466,-0.19,0.045,
4467,-0.2,0.03,
4468,-0.215,0.035,
4469,-0.205,0.03,
4470,-0.18,0.025,
4471,-0.175,0.03,
4472,-0.18,0.04,
4473,-0.2,0.035,
4474,-0.195,0.03,
4475,-0.2,0.015,
4476,-0.19,0.02,
4477,-0.165,0.04,
4478,-0.17,0.035,
4479,-0.195,0.035,
4480,-0.195,0.015,
4481,-0.195,0.015,
4482,-0.185,0.03,
4483,-0.17,0.015,
4484,-0.17,0.03,
4485,-0.205,0.035,
4486,-0.195,0.03,
4487,-0.185,0.015,
4488,-0.175,0.03,
4489,-0.16,0.03,
4490,-0.17,0.035,
4491,-0.18,0.035,
4492,-0.21,0.025,
4493,-0.2,0.025,
4494,-0.175,0.025,
4495,-0.155,0.03,
4496,-0.155,0.03,
4497,-0.185,0.03,
4498,-0.2,0.02,
4499,-0.195,0.005,
4500,-0.17,0.015,
4501,-0.17,0.03,
4502,-0.155,0.05,
4503,-0.165,0.035,
4504,-0.18,0.03,
4505,-0.175,0.02,
4506,-0.15,0.015,
4507,-0.135,0.035,
4508,-0.13,0.05,
4509,-0.13,0.05,
4510,-0.135,0.05,
4511,-0.12,0.04,
4512,-0.11,0.045,
4513,-0.08,0.065,
4514,-0.09,0.08,
4515,-0.075,0.08,
4516,-0.055,0.045,
4517,-0.035,0.025,
4518,-0.01,0.025,
4519,0.015,0.02,
4520,0.015,0.0,
4521,-0.005,0.0,
4522,-0.04,-0.025,
4523,-0.04,-0.045,
4524,-0.04,-0.035,
4525,-0.03,-0.03,
4526,-0.035,-0.015,
4527,-0.07,-0.01,
4528,-0.115,-0.015,
4529,-0.13,-0.04,
4530,-0.145,-0.03,
4531,-0.14,-0.02,
4532,-0.155,0.005,
4533,-0.18,0.005,
4534,-0.205,-0.01,
4535,-0.18,-0.025,
4536,-0.17,-0.03,
4537,-0.16,-0.005,
4538,-0.17,0.0,
4539,-0.17,0.0,
4540,-0.185,-0.015,
4541,-0.19,-0.03,
4542,-0.17,-0.03,
4543,-0.165,-0.02,
4544,-0.15,0.0,
4545,-0.185,-0.02,
4546,-0.175,-0.03,
4547,-0.195,-0.04,
4548,-0.18,-0.03,
4549,-0.17,-0.025,
4550,-0.17,-0.01,
4551,-0.17,-0.015,
4552,-0.185,-0.03,
4553,-0.175,-0.045,
4554,-0.17,-0.065,
4555,-0.175,-0.06,
4556,-0.175,-0.045,
4557,-0.115,-0.055,
4558,-0.01,-0.105,
4559,0.125,-0.16,
4560,0.315,-0.22,
4561,0.545,-0.235,
4562,0.795,-0.235,
4563,1.08,-0.23,
4564,1.35,-0.24,
4565,1.53,-0.225,N
4566,1.5,-0.19,
4567,1.24,-0.105,
4568,0.87,-0.07,
4569,0.475,-0.045,
4570,0.11,-0.065,
4571,-0.11,-0.105,
4572,-0.175,-0.12,
4573,-0.165,-0.11,
4574,-0.19,-0.085,
4575,-0.205,-0.045,
4576,-0.215,-0.04,
4577,-0.195,-0.035,
4578,-0.19,-0.025,
4579,-0.19,-0.01,
4580,-0.2,0.0,
4581,-0.215,0.01,
4582,-0.245,-0.005,
4583,-0.225,-0.015,
4584,-0.225,-0.01,
4585,-0.205,-0.005,
4586,-0.215,0.01,
4587,-0.225,0.005,
4588,-0.24,0.0,
4589,-0.25,-0.015,
4590,-0.225,-0.015,
4591,-0.205,-0.005,
4592,-0.205,0.005,
4593,-0.205,0.01,
4594,-0.22,-0.02,
4595,-0.235,-0.035,
4596,-0.235,-0.01,
4597,-0.2,-0.01,
4598,-0.195,-0.01,
4599,-0.2,0.0,
4600,-0.205,-0.02,
4601,-0.205,-0.025,
4602,-0.195,-0.02,
4603,-0.185,-0.01,
4604,-0.18,-0.01,
4605,-0.195,0.0,
4606,-0.205,-0.03,
4607,-0.195,-0.03,
4608,-0.18,-0.035,
4609,-0.145,-0.03,
4610,-0.145,-0.035,
4611,-0.14,-0.04,
4612,-0.155,-0.055,
4613,-0.13,-0.055,
4614,-0.11,-0.055,
4615,-0.095,-0.05,
4616,-0.095,-0.065,
4617,-0.105,-0.075,
4618,-0.1,-0.075,
4619,-0.08,-0.105,
4620,-0.065,-0.1,
4621,-0.03,-0.11,
4622,-0.03,-0.09,
4623,-0.055,-0.11,
4624,-0.04,-0.125,
4625,-0.03,-0.15,
4626,0.0,-0.165,
4627,0.015,-0.155,
4628,0.03,-0.17,
4629,0.025,-0.165,
4630,0.03,-0.19,
4631,0.05,-0.215,
4632,0.075,-0.215,
4633,0.09,-0.2,
4634,0.1,-0.205,
4635,0.09,-0.21,
4636,0.09,-0.23,
4637,0.11,-0.25,
4638,0.135,-0.26,
4639,0.16,-0.24,
4640,0.17,-0.24,
4641,0.165,-0.245,
4642,0.165,-0.26,
4643,0.185,-0.27,
4644,0.195,-0.265,
4645,0.225,-0.255,
4646,0.235,-0.24,
4647,0.215,-0.225,
4648,0.195,-0.225,
4649,0.195,-0.225,
4650,0.205,-0.21,
4651,0.215,-0.19,
4652,0.175,-0.165,
4653,0.125,-0.155,
4654,0.125,-0.145,
4655,0.085,-0.14,
4656,0.09,-0.125,
4657,0.11,-0.085,
4658,0.095,-0.06,
4659,0.065,-0.045,
4660,0.03,-0.045,
4661,0.005,-0.035,
4662,0.0,-0.025,
4663,-0.02,0.005,
4664,-0.02,0.02,
4665,-0.04,0.03,
4666,-0.08,0.03,
4667,-0.105,0.04,
4668,-0.1,0.045,
4669,-0.105,0.055,
4670,-0.095,0.085,
4671,-0.12,0.075,
4672,-0.155,0.075,
4673,-0.15,0.065,
4674,-0.145,0.07,
4675,-0.13,0.09,
4676,-0.135,0.085,
4677,-0.145,0.09,
4678,-0.16,0.09,
4679,-0.16,0.08,
4680,-0.145,0.085,
4681,-0.125,0.085,
4682,-0.13,0.095,
4683,-0.135,0.095,
4684,-0.145,0.09,
4685,-0.13,0.075,
4686,-0.15,0.075,
4687,-0.12,0.09,
4688,-0.115,0.095,
4689,-0.13,0.08,
4690,-0.14,0.08,
4691,-0.15,0.055,
4692,-0.135,0.07,
4693,-0.105,0.075,
4694,-0.11,0.08,
4695,-0.135,0.08,
4696,-0.15,0.065,
4697,-0.145,0.06,
4698,-0.125,0.06,
4699,-0.12,0.075,
4700,-0.11,0.075,
4701,-0.12,0.075,
4702,-0.14,0.06,
4703,-0.16,0.06,
4704,-0.12,0.06,
4705,-0.095,0.07,
4706,-0.095,0.09,
4707,-0.105,0.085,
4708,-0.11,0.075,
4709,-0.1,0.075,
4710,-0.07,0.08,
4711,-0.05,0.095,
4712,-0.04,0.1,
4713,-0.06,0.105,
4714,-0.045,0.095,
4715,-0.025,0.07,
4716,0.015,0.075,
4717,0.05,0.075,
4718,0.065,0.07,
4719,0.04,0.06,
4720,0.03,0.04,
4721,0.02,0.025,
4722,0.03,0.03,
4723,0.03,0.035,
4724,0.025,0.05,
4725,-0.01,0.055,
4726,-0.045,0.06,
4727,-0.035,0.045,
4728,-0.04,0.05,
4729,-0.04,0.06,
4730,-0.075,0.08,
4731,-0.105,0.07,
4732,-0.15,0.07,
4733,-0.12,0.045,
4734,-0.08,0.03,
4735,-0.01,0.01,
4736,0.015,-0.01,
4737,0.035,-0.055,
4738,0.065,-0.11,
4739,0.115,-0.165,
4740,0.2,-0.23,
4741,0.285,-0.31,
4742,0.375,-0.39,
4743,0.44,-0.48,
4744,0.505,-0.56,
4745,0.565,-0.64,
4746,0.645,-0.68,
4747,0.735,-0.725,
4748,0.8,-0.745,
4749,0.845,-0.79,
4750,0.915,-0.85,
4751,1.015,-0.89,
4752,1.11,-0.93,
4753,1.18,-0.945,
4754,1.245,-0.955,
4755,1.33,-0.995,
4756,1.43,-1.02,
4757,1.535,-1.045,
4758,1.575,-1.015,
4759,1.565,-0.96,
4760,1.54,-0.89,
4761,1.55,-0.845,
4762,1.605,-0.84,
4763,1.67,-0.845,
4764,1.705,-0.815,
4765,1.76,-0.745,
4766,1.8,-0.68,F
4767,1.815,-0.615,
4768,1.815,-0.575,
4769,1.765,-0.525,
4770,1.57,-0.45,
4771,1.245,-0.365,
4772,0.895,-0.255,
4773,0.59,-0.165,
4774,0.33,-0.095,
4775,0.105,-0.04,
4776,-0.045,0.01,
4777,-0.145,0.07,
4778,-0.215,0.13,
4779,-0.3,0.165,
4780,-0.375,0.19,
4781,-0.41,0.195,
4782,-0.425,0.22,
4783,-0.445,0.255,
4784,-0.46,0.27,
4785,-0.49,0.28,
4786,-0.52,0.28,
4787,-0.51,0.28,
4788,-0.52,0.29,
4789,-0.505,0.305,
4790,-0.535,0.325,
4791,-0.565,0.325,
4792,-0.585,0.335,
4793,-0.57,0.315,
4794,-0.555,0.335,
4795,-0.545,0.355,
4796,-0.565,0.375,
4797,-0.59,0.375,
4798,-0.61,0.36,
4799,-0.61,0.37,
4800,-0.595,0.38,
4801,-0.585,0.41,
4802,-0.595,0.43,
4803,-0.625,0.455,
4804,-0.64,0.43,
4805,-0.64,0.43,
4806,-0.645,0.455,
4807,-0.635,0.47,
4808,-0.665,0.505,
4809,-0.68,0.5,
4810,-0.715,0.505,
4811,-0.705,0.515,
4812,-0.705,0.53,
4813,-0.685,0.555,
4814,-0.7,0.58,
4815,-0.72,0.59,
4816,-0.76,0.585,
4817,-0.765,0.59,
4818,-0.77,0.6,
4819,-0.755,0.615,
4820,-0.755,0.64,
4821,-0.78,0.65,
4822,-0.795,0.64,
4823,-0.8,0.64,
4824,-0.8,0.64,
4825,-0.795,0.665,
4826,-0.795,0.675,
4827,-0.815,0.675,
4828,-0.835,0.65,
4829,-0.82,0.65,
4830,-0.81,0.645,
4831,-0.795,0.65,
4832,-0.79,0.645,
4833,-0.8,0.63,
4834,-0.81,0.615,
4835,-0.79,0.59,
4836,-0.75,0.58,
4837,-0.73,0.575,
4838,-0.71,0.56,
4839,-0.72,0.525,
4840,-0.72,0.5,
4841,-0.68,0.455,
4842,-0.64,0.435,
4843,-0.59,0.42,
4844,-0.555,0.415,
4845,-0.56,0.395,
4846,-0.55,0.355,
4847,-0.52,0.315,
4848,-0.485,0.3,
4849,-0.43,0.295,
4850,-0.4,0.275,
4851,-0.385,0.255,
4852,-0.365,0.235,
4853,-0.33,0.2,
4854,-0.3,0.19,
4855,-0.265,0.185,
4856,-0.25,0.18,
4857,-0.25,0.175,
4858,-0.245,0.155,
4859,-0.235,0.135,
4860,-0.21,0.135,
4861,-0.185,0.14,
4862,-0.195,0.14,
4863,-0.21,0.135,
4864,-0.22,0.115,
4865,-0.21,0.1,
4866,-0.2,0.12,
4867,-0.175,0.115,
4868,-0.185,0.13,
4869,-0.205,0.125,
4870,-0.205,0.095,
4871,-0.19,0.09,
4872,-0.175,0.105,
4873,-0.16,0.11,
4874,-0.16,0.115,
4875,-0.175,0.12,
4876,-0.19,0.105,
4877,-0.17,0.095,
4878,-0.16,0.1,
4879,-0.15,0.1,
4880,-0.16,0.13,
4881,-0.175,0.11,
4882,-0.175,0.105,
4883,-0.165,0.085,
4884,-0.16,0.095,
4885,-0.155,0.11,
4886,-0.15,0.12,
4887,-0.165,0.125,
4888,-0.185,0.105,
4889,-0.165,0.09,
4890,-0.16,0.11,
4891,-0.15,0.12,
4892,-0.135,0.13,
4893,-0.16,0.115,
4894,-0.145,0.115,
4895,-0.13,0.105,
4896,-0.125,0.115,
4897,-0.115,0.115,
4898,-0.115,0.12,
4899,-0.135,0.11,
4900,-0.125,0.11,
4901,-0.13,0.1,
4902,-0.11,0.105,
4903,-0.11,0.125,
4904,-0.095,0.115,
4905,-0.11,0.095,
4906,-0.11,0.095,
4907,-0.105,0.09,
4908,-0.1,0.095,
4909,-0.085,0.105,
4910,-0.075,0.11,
4911,-0.085,0.115,
4912,-0.095,0.095,
4913,-0.08,0.09,
4914,-0.065,0.105,
4915,-0.06,0.11,
4916,-0.075,0.13,
4917,-0.055,0.13,
4918,-0.03,0.11,
4919,-0.01,0.1,
4920,0.02,0.12,
4921,0.055,0.1,
4922,0.095,0.095,
4923,0.135,0.07,
4924,0.185,0.04,
4925,0.24,-0.005,
4926,0.315,-0.045,
4927,0.37,-0.095,
4928,0.44,-0.145,
4929,0.515,-0.225,
4930,0.58,-0.345,
4931,0.65,-0.45,
4932,0.735,-0.55,
4933,0.825,-0.625,
4934,0.89,-0.675,
4935,0.93,-0.745,
4936,0.97,-0.81,
4937,1.03,-0.885,
4938,1.125,-0.925,
4939,1.24,-0.98,
4940,1.29,-1.0,
4941,1.355,-1.02,
4942,1.44,-1.05,
4943,1.53,-1.07,
4944,1.62,-1.05,V
4945,1.645,-1.025,
4946,1.62,-0.97,
4947,1.54,-0.92,
4948,1.45,-0.875,
4949,1.39,-0.82,
4950,1.345,-0.75,
4951,1.31,-0.65,
4952,1.29,-0.545,
4953,1.27,-0.46,
4954,1.225,-0.4,
4955,1.19,-0.36,
4956,1.16,-0.31,
4957,1.16,-0.275,
4958,1.125,-0.24,
4959,1.095,-0.23,
4960,1.08,-0.21,
4961,1.085,-0.21,
4962,1.065,-0.195,
4963,1.03,-0.2,
4964,0.93,-0.18,
4965,0.795,-0.17,
4966,0.63,-0.15,
4967,0.48,-0.115,
4968,0.305,-0.075,
4969,0.12,0.01,
4970,-0.035,0.08,
4971,-0.175,0.15,
4972,-0.305,0.17,
4973,-0.35,0.205,
4974,-0.39,0.23,
4975,-0.39,0.255,
4976,-0.42,0.29,
4977,-0.45,0.31,
4978,-0.475,0.3,
4979,-0.5,0.3,
4980,-0.52,0.32,
4981,-0.52,0.335,
4982,-0.535,0.37,
4983,-0.56,0.365,
4984,-0.59,0.365,
4985,-0.595,0.37,
4986,-0.585,0.38,
4987,-0.585,0.4,
4988,-0.6,0.415,
4989,-0.63,0.43,
4990,-0.665,0.435,
4991,-0.68,0.44,
4992,-0.665,0.45,
4993,-0.67,0.48,
4994,-0.665,0.5,
4995,-0.69,0.51,
4996,-0.73,0.515,
4997,-0.73,0.525,
4998,-0.74,0.545,
4999,-0.735,0.57,
5000,-0.74,0.585,
5001,-0.765,0.585,
5002,-0.78,0.6,
5003,-0.805,0.6,
5004,-0.81,0.62,
5005,-0.81,0.645,
5006,-0.81,0.67,
5007,-0.84,0.685,
5008,-0.87,0.69,
5009,-0.865,0.685,
5010,-0.865,0.7,
5011,-0.865,0.73,
5012,-0.86,0.725,
5013,-0.88,0.73,
5014,-0.895,0.735,
5015,-0.9,0.72,
5016,-0.9,0.725,
5017,-0.885,0.73,
5018,-0.885,0.735,
5019,-0.895,0.735,
5020,-0.905,0.7,
5021,-0.905,0.685,
5022,-0.9,0.675,
5023,-0.88,0.68,
5024,-0.85,0.645,
5025,-0.84,0.63,
5026,-0.84,0.585,
5027,-0.82,0.575,
5028,-0.785,0.54,
5029,-0.76,0.525,
5030,-0.72,0.5,
5031,-0.71,0.465,
5032,-0.69,0.43,
5033,-0.635,0.38,
5034,-0.59,0.355,
5035,-0.55,0.34,
5036,-0.5,0.325,
5037,-0.485,0.285,
5038,-0.465,0.25,
5039,-0.445,0.215,
5040,-0.38,0.2,
5041,-0.33,0.195,
5042,-0.305,0.18,
5043,-0.275,0.16,
5044,-0.265,0.145,
5045,-0.235,0.13,
5046,-0.21,0.115,
5047,-0.165,0.115,
5048,-0.15,0.125,
5049,-0.145,0.11,
5050,-0.15,0.1,
5051,-0.13,0.085,
5052,-0.12,0.085,
5053,-0.11,0.095,
5054,-0.095,0.1,
5055,-0.115,0.1,
5056,-0.14,0.085,
5057,-0.13,0.09,
5058,-0.115,0.075,
5059,-0.1,0.105,
5060,-0.11,0.11,
5061,-0.11,0.095,
5062,-0.135,0.08,
5063,-0.135,0.075,
5064,-0.115,0.075,
5065,-0.095,0.09,
5066,-0.1,0.1,
5067,-0.115,0.1,
5068,-0.125,0.09,
5069,-0.135,0.09,
5070,-0.125,0.09,
5071,-0.11,0.095,
5072,-0.105,0.105,
5073,-0.135,0.1,
5074,-0.15,0.085,
5075,-0.135,0.075,
5076,-0.11,0.085,
5077,-0.1,0.095,
5078,-0.085,0.11,
5079,-0.12,0.105,
5080,-0.115,0.095,
5081,-0.115,0.085,
5082,-0.095,0.1,
5083,-0.075,0.095,
5084,-0.075,0.105,
5085,-0.095,0.1,
5086,-0.085,0.09,
5087,-0.09,0.09,
5088,-0.075,0.09,
5089,-0.06,0.105,
5090,-0.06,0.105,
5091,-0.075,0.1,
5092,-0.07,0.105,
5093,-0.06,0.095,
5094,-0.045,0.08,
5095,-0.025,0.1,
5096,-0.03,0.115,
5097,-0.06,0.1,
5098,-0.075,0.09,
5099,-0.08,0.075,
5100,-0.045,0.085,
5101,-0.03,0.085,
5102,-0.025,0.105,
5103,-0.035,0.085,
5104,-0.055,0.085,
5105,-0.065,0.075,
5106,-0.04,0.08,
5107,-0.02,0.08,
5108,-0.02,0.095,
5109,-0.03,0.085,
5110,-0.04,0.075,
5111,-0.05,0.065,
5112,-0.03,0.07,
5113,-0.015,0.07,
5114,-0.015,0.09,
5115,-0.045,0.07,
5116,-0.06,0.06,
5117,-0.055,0.065,
5118,-0.035,0.065,
5119,-0.035,0.075,
5120,-0.03,0.075,
5121,-0.055,0.08,
5122,-0.07,0.07,
5123,-0.065,0.055,
5124,-0.04,0.05,
5125,-0.015,0.07,
5126,-0.02,0.07,
5127,-0.03,0.075,
5128,-0.04,0.055,
5129,-0.05,0.035,
5130,-0.035,0.045,
5131,-0.005,0.06,
5132,-0.01,0.06,
5133,-0.025,0.065,
5134,-0.045,0.05,
5135,-0.04,0.035,
5136,-0.02,0.05,
5137,0.0,0.06,
5138,-0.005,0.065,
5139,-0.02,0.06,
5140,-0.025,0.05,
5141,-0.02,0.055,
5142,0.005,0.05,
5143,0.015,0.07,
5144,0.035,0.08,
5145,0.02,0.085,
5146,0.025,0.085,
5147,0.045,0.08,
5148,0.065,0.085,
5149,0.095,0.105,
5150,0.105,0.115,
5151,0.105,0.1,
5152,0.14,0.08,
5153,0.165,0.04,
5154,0.175,0.015,
5155,0.18,0.01,
5156,0.165,0.02,
5157,0.125,0.015,
5158,0.11,0.01,
5159,0.105,-0.01,
5160,0.09,-0.005,
5161,0.075,-0.005,
5162,0.06,0.01,
5163,0.02,0.02,
5164,0.0,0.015,
5165,-0.005,0.025,
5166,0.0,0.015,
5167,0.0,0.02,
5168,-0.005,0.03,
5169,-0.02,0.025,
5170,-0.03,0.01,
5171,-0.03,0.01,
5172,-0.02,0.005,
5173,0.015,0.015,
5174,-0.005,0.025,
5175,-0.005,0.015,
5176,-0.02,-0.005,
5177,-0.015,-0.005,
5178,-0.005,0.0,
5179,0.015,0.02,
5180,0.005,0.015,
5181,-0.005,0.005,
5182,-0.03,-0.005,
5183,-0.025,-0.025,
5184,-0.01,-0.015,
5185,-0.025,-0.025,
5186,-0.035,-0.02,
5187,-0.045,-0.025,
5188,0.01,-0.03,
5189,0.13,-0.055,
5190,0.275,-0.125,
5191,0.47,-0.195,
5192,0.69,-0.26,
5193,0.925,-0.315,
5194,1.19,-0.35,
5195,1.45,-0.41,
5196,1.68,-0.425,N
5197,1.785,-0.375,
5198,1.62,-0.285,
5199,1.225,-0.2,
5200,0.82,-0.175,
5201,0.47,-0.165,
5202,0.245,-0.155,
5203,0.145,-0.145,
5204,0.09,-0.12,
5205,0.015,-0.085,
5206,-0.055,-0.06,
5207,-0.08,-0.045,
5208,-0.06,-0.015,
5209,-0.02,0.01,
5210,-0.02,0.04,
5211,-0.05,0.055,
5212,-0.065,0.05,
5213,-0.085,0.04,
5214,-0.085,0.04,
5215,-0.09,0.07,
5216,-0.09,0.07,
5217,-0.105,0.075,
5218,-0.125,0.065,
5219,-0.115,0.055,
5220,-0.1,0.06,
5221,-0.085,0.085,
5222,-0.1,0.1,
5223,-0.105,0.08,
5224,-0.1,0.08,
5225,-0.105,0.065,
5226,-0.11,0.075,
5227,-0.08,0.075,
5228,-0.085,0.085,
5229,-0.095,0.085,
5230,-0.115,0.08,
5231,-0.11,0.07,
5232,-0.095,0.08,
5233,-0.075,0.085,
5234,-0.06,0.09,
5235,-0.075,0.09,
5236,-0.1,0.08,
5237,-0.075,0.075,
5238,-0.08,0.07,
5239,-0.06,0.065,
5240,-0.04,0.09,
5241,-0.065,0.07,
5242,-0.06,0.045,
5243,-0.05,0.035,
5244,-0.04,0.045,
5245,-0.015,0.04,
5246,-0.015,0.045,
5247,-0.03,0.035,
5248,-0.01,0.015,
5249,0.01,0.005,
5250,0.01,-0.005,
5251,0.06,-0.01,
5252,0.06,-0.01,
5253,0.045,-0.01,
5254,0.05,-0.035,
5255,0.065,-0.06,
5256,0.095,-0.075,
5257,0.13,-0.075,
5258,0.13,-0.07,
5259,0.135,-0.085,
5260,0.14,-0.115,
5261,0.17,-0.14,
5262,0.19,-0.145,
5263,0.22,-0.155,
5264,0.25,-0.16,
5265,0.235,-0.165,
5266,0.245,-0.2,
5267,0.26,-0.22,
5268,0.265,-0.215,
5269,0.285,-0.22,
5270,0.3,-0.22,
5271,0.3,-0.23,
5272,0.3,-0.24,
5273,0.325,-0.25,
5274,0.34,-0.245,
5275,0.36,-0.235,
5276,0.355,-0.22,
5277,0.34,-0.24,
5278,0.34,-0.245,
5279,0.35,-0.245,
5280,0.37,-0.215,
5281,0.365,-0.19,
5282,0.345,-0.16,
5283,0.305,-0.14,
5284,0.28,-0.14,
5285,0.27,-0.125,
5286,0.26,-0.105,
5287,0.24,-0.07,
5288,0.21,-0.03,
5289,0.175,-0.02,
5290,0.135,0.0,
5291,0.125,-0.005,
5292,0.115,0.025,
5293,0.105,0.04,
5294,0.09,0.08,
5295,0.05,0.105,
5296,0.01,0.09,
5297,0.005,0.09,
5298,0.0,0.1,
5299,-0.005,0.11,
5300,-0.015,0.145,
5301,-0.04,0.135,
5302,-0.06,0.135,
5303,-0.07,0.13,
5304,-0.065,0.135,
5305,-0.06,0.145,
5306,-0.09,0.16,
5307,-0.12,0.15,
5308,-0.13,0.14,
5309,-0.13,0.145,
5310,-0.115,0.14,
5311,-0.085,0.16,
5312,-0.07,0.17,
5313,-0.085,0.155,
5314,-0.08,0.155,
5315,-0.085,0.155,
5316,-0.08,0.145,
5317,-0.055,0.135,
5318,-0.055,0.165,
5319,-0.08,0.16,
5320,-0.09,0.15,
5321,-0.09,0.145,
5322,-0.07,0.15,
5323,-0.055,0.16,
5324,-0.065,0.17,
5325,-0.075,0.155,
5326,-0.09,0.145,
5327,-0.09,0.13,
5328,-0.065,0.125,
5329,-0.08,0.135,
5330,-0.07,0.15,
5331,-0.095,0.145,
5332,-0.105,0.125,
5333,-0.105,0.11,
5334,-0.075,0.12,
5335,-0.065,0.125,
5336,-0.065,0.13,
5337,-0.08,0.13,
5338,-0.095,0.12,
5339,-0.08,0.12,
5340,-0.075,0.12,
5341,-0.065,0.135,
5342,-0.07,0.135,
5343,-0.09,0.13,
5344,-0.085,0.125,
5345,-0.09,0.115,
5346,-0.075,0.115,
5347,-0.09,0.125,
5348,-0.095,0.13,
5349,-0.105,0.125,
5350,-0.105,0.125,
5351,-0.105,0.11,
5352,-0.095,0.115,
5353,-0.08,0.13,
5354,-0.07,0.15,
5355,-0.07,0.15,
5356,-0.06,0.145,
5357,-0.05,0.145,
5358,-0.045,0.145,
5359,-0.02,0.16,
5360,0.005,0.17,
5361,0.005,0.16,
5362,0.005,0.155,
5363,0.015,0.125,
5364,0.05,0.115,
5365,0.065,0.13,
5366,0.065,0.125,
5367,0.045,0.11,
5368,0.03,0.07,
5369,0.04,0.055,
5370,0.045,0.055,
5371,0.035,0.075,
5372,0.02,0.085,
5373,-0.02,0.095,
5374,-0.04,0.095,
5375,-0.06,0.09,
5376,-0.075,0.095,
5377,-0.075,0.115,
5378,-0.09,0.145,
5379,-0.105,0.15,
5380,-0.105,0.14,
5381,-0.09,0.115,
5382,-0.045,0.085,
5383,-0.005,0.055,
5384,0.035,0.025,
5385,0.06,-0.02,
5386,0.12,-0.075,
5387,0.195,-0.15,
5388,0.28,-0.185,
5389,0.37,-0.245,
5390,0.42,-0.31,
5391,0.46,-0.415,
5392,0.52,-0.515,
5393,0.59,-0.6,
5394,0.675,-0.68,
5395,0.75,-0.73,
5396,0.805,-0.785,
5397,0.855,-0.855,
5398,0.92,-0.935,
5399,1.015,-1.01,
5400,1.135,-1.05,
5401,1.21,-1.075,
5402,1.275,-1.095,
5403,1.355,-1.15,
5404,1.43,-1.195,
5405,1.54,-1.225,
5406,1.59,-1.21,
5407,1.655,-1.16,
5408,1.665,-1.105,
5409,1.695,-1.09,
5410,1.73,-1.09,
5411,1.79,-1.115,
5412,1.87,-1.085,
5413,1.935,-1.02,
5414,1.995,-0.925,F
5415,2.06,-0.82,
5416,2.08,-0.755,
5417,1.97,-0.685,
5418,1.705,-0.565,
5419,1.34,-0.405,
5420,1.0,-0.26,
5421,0.69,-0.13,
5422,0.375,-0.02,
5423,0.15,0.03,
5424,-0.01,0.085,
5425,-0.125,0.14,
5426,-0.2,0.185,
5427,-0.28,0.225,
5428,-0.325,0.245,
5429,-0.345,0.265,
5430,-0.355,0.285,
5431,-0.355,0.32,
5432,-0.38,0.33,
5433,-0.41,0.36,
5434,-0.44,0.36,
5435,-0.445,0.36,
5436,-0.45,0.365,
5437,-0.455,0.385,
5438,-0.465,0.405,
5439,-0.495,0.42,
5440,-0.505,0.405,
5441,-0.505,0.41,
5442,-0.495,0.425,
5443,-0.49,0.44,
5444,-0.495,0.455,
5445,-0.53,0.46,
5446,-0.545,0.45,
5447,-0.565,0.46,
5448,-0.53,0.47,
5449,-0.525,0.49,
5450,-0.53,0.515,
5451,-0.56,0.51,
5452,-0.58,0.52,
5453,-0.59,0.525,
5454,-0.585,0.52,
5455,-0.57,0.55,
5456,-0.59,0.555,
5457,-0.625,0.57,
5458,-0.645,0.58,
5459,-0.645,0.565,
5460,-0.635,0.6,
5461,-0.625,0.615,
5462,-0.635,0.645,
5463,-0.66,0.66,
5464,-0.68,0.645,
5465,-0.7,0.665,
5466,-0.68,0.68,
5467,-0.67,0.705,
5468,-0.665,0.725,
5469,-0.69,0.735,
5470,-0.725,0.725,
5471,-0.725,0.725,
5472,-0.71,0.735,
5473,-0.695,0.765,
5474,-0.69,0.785,
5475,-0.695,0.785,
5476,-0.715,0.765,
5477,-0.71,0.77,
5478,-0.695,0.765,
5479,-0.69,0.785,
5480,-0.69,0.78,
5481,-0.685,0.77,
5482,-0.695,0.755,
5483,-0.675,0.735,
5484,-0.655,0.735,
5485,-0.635,0.73,
5486,-0.625,0.72,
5487,-0.635,0.695,
5488,-0.63,0.665,
5489,-0.6,0.64,
5490,-0.575,0.625,
5491,-0.55,0.6,
5492,-0.525,0.575,
5493,-0.525,0.55,
5494,-0.525,0.515,
5495,-0.485,0.485,
5496,-0.45,0.465,
5497,-0.41,0.45,
5498,-0.39,0.43,
5499,-0.39,0.39,
5500,-0.38,0.36,
5501,-0.37,0.335,
5502,-0.33,0.295,
5503,-0.3,0.305,
5504,-0.275,0.29,
5505,-0.265,0.26,
5506,-0.265,0.245,
5507,-0.25,0.215,
5508,-0.24,0.21,
5509,-0.205,0.22,
5510,-0.18,0.21,
5511,-0.185,0.195,
5512,-0.2,0.18,
5513,-0.195,0.18,
5514,-0.185,0.17,
5515,-0.17,0.195,
5516,-0.17,0.19,
5517,-0.2,0.175,
5518,-0.185,0.165,
5519,-0.2,0.165,
5520,-0.175,0.17,
5521,-0.17,0.18,
5522,-0.165,0.195,
5523,-0.185,0.195,
5524,-0.21,0.17,
5525,-0.19,0.16,
5526,-0.17,0.165,
5527,-0.16,0.175,
5528,-0.16,0.17,
5529,-0.18,0.18,
5530,-0.18,0.165,
5531,-0.17,0.16,
5532,-0.16,0.16,
5533,-0.16,0.17,
5534,-0.14,0.18,
5535,-0.16,0.175,
5536,-0.17,0.155,
5537,-0.17,0.16,
5538,-0.16,0.17,
5539,-0.145,0.18,
5540,-0.135,0.18,
5541,-0.155,0.175,
5542,-0.155,0.155,
5543,-0.14,0.14,
5544,-0.11,0.115,
5545,-0.075,0.13,
5546,-0.04,0.12,
5547,-0.03,0.09,
5548,-0.005,0.05,
5549,0.02,-0.005,
5550,0.06,-0.03,
5551,0.155,-0.065,
5552,0.235,-0.11,
5553,0.295,-0.165,
5554,0.36,-0.24,
5555,0.44,-0.315,
5556,0.525,-0.38,
5557,0.615,-0.435,
5558,0.705,-0.48,
5559,0.785,-0.535,
5560,0.885,-0.61,
5561,0.95,-0.67,
5562,1.025,-0.725,
5563,1.12,-0.76,
5564,1.185,-0.785,
5565,1.24,-0.815,
5566,1.275,-0.83,
5567,1.38,-0.85,
5568,1.49,-0.85,V
5569,1.545,-0.825,
5570,1.535,-0.81,
5571,1.465,-0.745,
5572,1.41,-0.715,
5573,1.36,-0.655,
5574,1.33,-0.57,
5575,1.295,-0.495,
5576,1.255,-0.395,
5577,1.225,-0.31,
5578,1.19,-0.275,
5579,1.145,-0.245,
5580,1.13,-0.235,
5581,1.115,-0.205,
5582,1.09,-0.175,
5583,1.065,-0.18,
5584,1.05,-0.175,
5585,1.045,-0.185,
5586,0.985,-0.17,
5587,0.895,-0.185,
5588,0.785,-0.165,
5589,0.625,-0.15,
5590,0.435,-0.115,
5591,0.25,-0.05,
5592,0.11,0.035,
5593,-0.005,0.11,
5594,-0.1,0.16,
5595,-0.175,0.195,
5596,-0.235,0.215,
5597,-0.27,0.22,
5598,-0.285,0.24,
5599,-0.305,0.27,
5600,-0.345,0.28,
5601,-0.39,0.305,
5602,-0.45,0.295,
5603,-0.48,0.305,
5604,-0.485,0.33,
5605,-0.5,0.365,
5606,-0.525,0.375,
5607,-0.545,0.385,
5608,-0.59,0.375,
5609,-0.595,0.37,
5610,-0.595,0.38,
5611,-0.6,0.405,
5612,-0.605,0.405,
5613,-0.63,0.42,
5614,-0.64,0.405,
5615,-0.66,0.41,
5616,-0.655,0.41,
5617,-0.645,0.44,
5618,-0.655,0.455,
5619,-0.685,0.46,
5620,-0.715,0.455,
5621,-0.72,0.455,
5622,-0.71,0.47,
5623,-0.715,0.485,
5624,-0.725,0.5,
5625,-0.745,0.495,
5626,-0.775,0.495,
5627,-0.78,0.49,
5628,-0.785,0.51,
5629,-0.77,0.52,
5630,-0.77,0.54,
5631,-0.78,0.55,
5632,-0.795,0.535,
5633,-0.815,0.535,
5634,-0.8,0.545,
5635,-0.79,0.57,
5636,-0.81,0.575,
5637,-0.835,0.58,
5638,-0.845,0.57,
5639,-0.855,0.55,
5640,-0.835,0.55,
5641,-0.825,0.565,
5642,-0.83,0.57,
5643,-0.84,0.56,
5644,-0.84,0.545,
5645,-0.835,0.52,
5646,-0.81,0.525,
5647,-0.78,0.515,
5648,-0.78,0.52,
5649,-0.785,0.505,
5650,-0.785,0.48,
5651,-0.76,0.46,
5652,-0.715,0.45,
5653,-0.68,0.44,
5654,-0.66,0.42,
5655,-0.655,0.41,
5656,-0.635,0.4,
5657,-0.615,0.355,
5658,-0.59,0.335,
5659,-0.555,0.345,
5660,-0.535,0.32,
5661,-0.53,0.3,
5662,-0.5,0.28,
5663,-0.46,0.245,
5664,-0.425,0.235,
5665,-0.38,0.25,
5666,-0.355,0.235,
5667,-0.35,0.22,
5668,-0.34,0.19,
5669,-0.32,0.18,
5670,-0.295,0.175,
5671,-0.265,0.175,
5672,-0.26,0.18,
5673,-0.265,0.165,
5674,-0.275,0.15,
5675,-0.27,0.135,
5676,-0.245,0.145,
5677,-0.23,0.145,
5678,-0.22,0.165,
5679,-0.245,0.155,
5680,-0.25,0.14,
5681,-0.245,0.14,
5682,-0.23,0.155,
5683,-0.225,0.155,
5684,-0.22,0.15,
5685,-0.23,0.15,
5686,-0.245,0.14,
5687,-0.24,0.135,
5688,-0.225,0.135,
5689,-0.205,0.155,
5690,-0.225,0.16,
5691,-0.225,0.15,
5692,-0.235,0.125,
5693,-0.225,0.125,
5694,-0.205,0.125,
5695,-0.19,0.135,
5696,-0.19,0.14,
5697,-0.215,0.145,
5698,-0.235,0.135,
5699,-0.22,0.115,
5700,-0.215,0.13,
5701,-0.195,0.13,
5702,-0.185,0.14,
5703,-0.2,0.125,
5704,-0.2,0.115,
5705,-0.185,0.11,
5706,-0.185,0.11,
5707,-0.17,0.125,
5708,-0.185,0.125,
5709,-0.18,0.12,
5710,-0.2,0.115,
5711,-0.19,0.09,
5712,-0.19,0.12,
5713,-0.17,0.12,
5714,-0.17,0.135,
5715,-0.17,0.125,
5716,-0.18,0.115,
5717,-0.18,0.105,
5718,-0.165,0.11,
5719,-0.15,0.12,
5720,-0.16,0.125,
5721,-0.16,0.12,
5722,-0.175,0.105,
5723,-0.16,0.1,
5724,-0.145,0.105,
5725,-0.14,0.12,
5726,-0.145,0.13,
5727,-0.16,0.12,
5728,-0.16,0.095,
5729,-0.155,0.1,
5730,-0.14,0.105,
5731,-0.13,0.11,
5732,-0.13,0.12,
5733,-0.14,0.115,
5734,-0.155,0.09,
5735,-0.155,0.09,
5736,-0.145,0.08,
5737,-0.15,0.105,
5738,-0.14,0.115,
5739,-0.14,0.11,
5740,-0.15,0.105,
5741,-0.16,0.08,
5742,-0.165,0.105,
5743,-0.145,0.11,
5744,-0.135,0.105,
5745,-0.15,0.105,
5746,-0.16,0.095,
5747,-0.16,0.08,
5748,-0.145,0.1,
5749,-0.135,0.11,
5750,-0.14,0.13,
5751,-0.14,0.115,
5752,-0.14,0.085,
5753,-0.145,0.075,
5754,-0.145,0.085,
5755,-0.14,0.11,
5756,-0.135,0.1,
5757,-0.135,0.095,
5758,-0.14,0.09,
5759,-0.145,0.085,
5760,-0.135,0.095,
5761,-0.125,0.095,
5762,-0.125,0.095,
5763,-0.155,0.1,
5764,-0.145,0.095,
5765,-0.145,0.085,
5766,-0.125,0.095,
5767,-0.12,0.1,
5768,-0.13,0.105,
5769,-0.145,0.1,
5770,-0.155,0.09,
5771,-0.145,0.08,
5772,-0.12,0.08,
5773,-0.115,0.1,
5774,-0.115,0.11,
5775,-0.13,0.095,
5776,-0.13,0.09,
5777,-0.125,0.08,
5778,-0.12,0.09,
5779,-0.1,0.09,
5780,-0.1,0.09,
5781,-0.125,0.095,
5782,-0.15,0.07,
5783,-0.13,0.075,
5784,-0.11,0.095,
5785,-0.11,0.1,
5786,-0.11,0.1,
5787,-0.13,0.09,
5788,-0.13,0.075,
5789,-0.12,0.065,
5790,-0.125,0.065,
5791,-0.12,0.09,
5792,-0.125,0.085,
5793,-0.145,0.085,
5794,-0.14,0.075,
5795,-0.125,0.08,
5796,-0.105,0.075,
5797,-0.11,0.095,
5798,-0.115,0.095,
5799,-0.11,0.095,
5800,-0.125,0.065,
5801,-0.125,0.065,
5802,-0.105,0.075,
5803,-0.095,0.085,
5804,-0.095,0.095,
5805,-0.115,0.09,
5806,-0.135,0.085,
5807,-0.12,0.07,
5808,-0.1,0.07,
5809,-0.085,0.095,
5810,-0.08,0.095,
5811,-0.1,0.08,
5812,-0.115,0.085,
5813,-0.11,0.075,
5814,-0.095,0.07,
5815,-0.075,0.08,
5816,-0.1,0.085,
5817,-0.11,0.09,
5818,-0.13,0.075,
5819,-0.115,0.07,
5820,-0.095,0.085,
5821,-0.08,0.085,
5822,-0.09,0.1,
5823,-0.115,0.095,
5824,-0.115,0.085,
5825,-0.125,0.08,
5826,-0.11,0.095,
5827,-0.125,0.095,
5828,-0.115,0.105,
5829,-0.115,0.11,
5830,-0.12,0.085,
5831,-0.125,0.09,
5832,-0.11,0.09,
5833,-0.1,0.095,
5834,-0.105,0.105,
5835,-0.115,0.12,
5836,-0.125,0.1,
5837,-0.12,0.09,
5838,-0.105,0.095,
5839,-0.085,0.11,
5840,-0.08,0.135,
5841,-0.075,0.145,
5842,-0.085,0.135,
5843,-0.08,0.13,
5844,-0.07,0.14,
5845,-0.06,0.15,
5846,-0.04,0.165,
5847,-0.025,0.155,
5848,-0.03,0.135,
5849,-0.01,0.13,
5850,0.015,0.125,
5851,0.035,0.105,
5852,0.035,0.1,
5853,0.015,0.08,
5854,0.01,0.06,
5855,0.01,0.06,
5856,0.015,0.07,
5857,0.01,0.075,
5858,0.0,0.075,
5859,-0.015,0.06,
5860,-0.045,0.055,
5861,-0.05,0.055,
5862,-0.055,0.055,
5863,-0.055,0.075,
5864,-0.075,0.07,
5865,-0.09,0.085,
5866,-0.105,0.09,
5867,-0.12,0.07,
5868,-0.105,0.08,
5869,-0.115,0.085,
5870,-0.12,0.09,
5871,-0.14,0.095,
5872,-0.13,0.08,
5873,-0.14,0.06,
5874,-0.12,0.075,
5875,-0.105,0.07,
5876,-0.11,0.09,
5877,-0.13,0.09,
5878,-0.14,0.07,
5879,-0.135,0.065,
5880,-0.125,0.08,
5881,-0.115,0.085,
5882,-0.13,0.095,
5883,-0.12,0.085,
5884,-0.14,0.07,
5885,-0.135,0.07,
5886,-0.115,0.055,
5887,-0.125,0.055,
5888,-0.14,0.06,
5889,-0.14,0.075,
5890,-0.09,0.065,
5891,0.025,0.03,
5892,0.165,-0.025,
5893,0.35,-0.09,
5894,0.565,-0.14,
5895,0.84,-0.17,
5896,1.11,-0.185,
5897,1.335,-0.22,
5898,1.54,-0.245,
5899,1.675,-0.235,N
5900,1.63,-0.19,
5901,1.375,-0.115,
5902,1.055,-0.095,
5903,0.7,-0.075,
5904,0.34,-0.055,
5905,0.075,-0.035,
5906,-0.085,-0.04,
5907,-0.15,-0.045,
5908,-0.15,-0.055,
5909,-0.17,-0.025,
5910,-0.18,0.015,
5911,-0.185,0.055,
5912,-0.17,0.075,
5913,-0.18,0.095,
5914,-0.18,0.085,
5915,-0.195,0.1,
5916,-0.185,0.105,
5917,-0.19,0.12,
5918,-0.2,0.12,
5919,-0.22,0.12,
5920,-0.255,0.115,
5921,-0.25,0.11,
5922,-0.245,0.105,
5923,-0.225,0.125,
5924,-0.235,0.13,
5925,-0.24,0.13,
5926,-0.265,0.12,
5927,-0.26,0.105,
5928,-0.245,0.11,
5929,-0.24,0.12,
5930,-0.225,0.13,
5931,-0.24,0.12,
5932,-0.235,0.11,
5933,-0.225,0.125,
5934,-0.22,0.125,
5935,-0.21,0.13,
5936,-0.225,0.12,
5937,-0.23,0.105,
5938,-0.245,0.105,
5939,-0.23,0.09,
5940,-0.24,0.085,
5941,-0.21,0.1,
5942,-0.215,0.11,
5943,-0.22,0.1,
5944,-0.235,0.085,
5945,-0.23,0.065,
5946,-0.21,0.07,
5947,-0.2,0.08,
5948,-0.195,0.07,
5949,-0.2,0.07,
5950,-0.22,0.065,
5951,-0.205,0.055,
5952,-0.18,0.055,
5953,-0.17,0.065,
5954,-0.17,0.075,
5955,-0.185,0.06,
5956,-0.19,0.045,
5957,-0.185,0.03,
5958,-0.155,0.04,
5959,-0.14,0.035,
5960,-0.135,0.045,
5961,-0.145,0.03,
5962,-0.135,0.01,
5963,-0.12,-0.01,
5964,-0.085,-0.01,
5965,-0.08,-0.005,
5966,-0.075,-0.015,
5967,-0.08,-0.025,
5968,-0.08,-0.045,
5969,-0.065,-0.055,
5970,-0.035,-0.06,
5971,-0.025,-0.075,
5972,-0.01,-0.065,
5973,-0.01,-0.08,
5974,-0.01,-0.1,
5975,0.0,-0.11,
5976,0.025,-0.115,
5977,0.045,-0.11,
5978,0.055,-0.115,
5979,0.035,-0.125,
5980,0.05,-0.155,
5981,0.045,-0.16,
5982,0.08,-0.155,
5983,0.095,-0.15,
5984,0.085,-0.145,
5985,0.09,-0.15,
5986,0.08,-0.16,
5987,0.1,-0.175,
5988,0.11,-0.16,
5989,0.135,-0.15,
5990,0.13,-0.145,
5991,0.12,-0.135,
5992,0.12,-0.14,
5993,0.12,-0.14,
5994,0.14,-0.11,
5995,0.15,-0.095,
5996,0.13,-0.08,
5997,0.105,-0.07,
5998,0.09,-0.065,
5999,0.07,-0.06,
6000,0.07,-0.04,
6001,0.06,-0.005,
6002,0.045,0.01,
6003,0.02,0.03,
6004,-0.025,0.035,
6005,-0.035,0.05,
6006,-0.03,0.065,
6007,-0.04,0.095,
6008,-0.075,0.105,
6009,-0.1,0.12,
6010,-0.145,0.13,
6011,-0.15,0.12,
6012,-0.15,0.135,
6013,-0.15,0.165,
6014,-0.145,0.17,
6015,-0.185,0.165,
6016,-0.2,0.16,
6017,-0.205,0.165,
6018,-0.185,0.185,
6019,-0.185,0.19,
6020,-0.185,0.2,
6021,-0.205,0.2,
6022,-0.22,0.185,
6023,-0.23,0.185,
6024,-0.23,0.19,
6025,-0.225,0.2,
6026,-0.22,0.195,
6027,-0.22,0.205,
6028,-0.235,0.18,
6029,-0.225,0.18,
6030,-0.21,0.19,
6031,-0.205,0.2,
6032,-0.215,0.2,
6033,-0.235,0.19,
6034,-0.24,0.19,
6035,-0.235,0.175,
6036,-0.22,0.185,
6037,-0.215,0.205,
6038,-0.21,0.21,
6039,-0.23,0.195,
6040,-0.235,0.185,
6041,-0.225,0.185,
6042,-0.215,0.18,
6043,-0.205,0.195,
6044,-0.22,0.195,
6045,-0.235,0.19,
6046,-0.245,0.18,
6047,-0.23,0.16,
6048,-0.21,0.16,
6049,-0.21,0.18,
6050,-0.21,0.18,
6051,-0.23,0.18,
6052,-0.24,0.155,
6053,-0.23,0.14,
6054,-0.21,0.165,
6055,-0.205,0.17,
6056,-0.22,0.175,
6057,-0.225,0.175,
6058,-0.23,0.155,
6059,-0.22,0.16,
6060,-0.215,0.16,
6061,-0.2,0.165,
6062,-0.21,0.17,
6063,-0.225,0.165,
6064,-0.23,0.16,
6065,-0.22,0.155,
6066,-0.205,0.155,
6067,-0.21,0.175,
6068,-0.2,0.195,
6069,-0.2,0.185,
6070,-0.19,0.2,
6071,-0.175,0.2,
6072,-0.165,0.215,
6073,-0.15,0.235,
6074,-0.145,0.255,
6075,-0.155,0.26,
6076,-0.12,0.235,
6077,-0.085,0.22,
6078,-0.05,0.22,
6079,-0.01,0.21,
6080,-0.015,0.2,
6081,0.005,0.16,
6082,0.03,0.11,
6083,0.08,0.055,
6084,0.12,0.03,
6085,0.165,0.01,
6086,0.185,-0.01,
6087,0.215,-0.08,
6088,0.265,-0.17,
6089,0.335,-0.29,
6090,0.43,-0.39,
6091,0.49,-0.475,
6092,0.54,-0.56,
6093,0.575,-0.625,
6094,0.625,-0.69,
6095,0.675,-0.755,
6096,0.76,-0.81,
6097,0.835,-0.865,
6098,0.91,-0.96,
6099,0.975,-1.005,
6100,1.035,-1.065,
6101,1.085,-1.095,
6102,1.16,-1.115,
6103,1.245,-1.14,
6104,1.315,-1.17,
6105,1.35,-1.175,V
6106,1.355,-1.16,
6107,1.345,-1.12,
6108,1.315,-1.065,
6109,1.255,-0.985,
6110,1.195,-0.905,
6111,1.125,-0.815,
6112,1.06,-0.73,
6113,1.03,-0.61,
6114,1.01,-0.48,
6115,0.98,-0.365,
6116,0.94,-0.305,
6117,0.875,-0.235,
6118,0.84,-0.215,
6119,0.81,-0.19,
6120,0.795,-0.15,
6121,0.78,-0.125,
6122,0.73,-0.105,
6123,0.71,-0.11,
6124,0.69,-0.105,
6125,0.685,-0.1,
6126,0.645,-0.09,
6127,0.6,-0.075,
6128,0.495,-0.05,
6129,0.36,-0.03,
6130,0.18,0.025,
6131,-0.005,0.085,
6132,-0.165,0.165,
6133,-0.315,0.25,
6134,-0.43,0.305,
6135,-0.535,0.34,
6136,-0.595,0.37,
6137,-0.635,0.375,
6138,-0.64,0.4,
6139,-0.645,0.425,
6140,-0.66,0.44,
6141,-0.7,0.455,
6142,-0.735,0.455,
6143,-0.745,0.455,
6144,-0.745,0.46,
6145,-0.75,0.485,
6146,-0.76,0.51,
6147,-0.785,0.51,
6148,-0.81,0.5,
6149,-0.8,0.505,
6150,-0.8,0.52,
6151,-0.8,0.54,
6152,-0.82,0.57,
6153,-0.83,0.57,
6154,-0.85,0.56,
6155,-0.84,0.58,
6156,-0.84,0.585,
6157,-0.85,0.605,
6158,-0.85,0.635,
6159,-0.875,0.635,
6160,-0.905,0.65,
6161,-0.905,0.66,
6162,-0.895,0.67,
6163,-0.9,0.7,
6164,-0.915,0.715,
6165,-0.935,0.735,
6166,-0.945,0.735,
6167,-0.975,0.75,
6168,-0.965,0.765,
6169,-0.96,0.795,
6170,-0.98,0.815,
6171,-1.0,0.82,
6172,-1.005,0.825,
6173,-1.01,0.83,
6174,-1.005,0.85,
6175,-1.015,0.865,
6176,-1.02,0.88,
6177,-1.05,0.885,
6178,-1.065,0.88,
6179,-1.065,0.88,
6180,-1.055,0.9,
6181,-1.05,0.91,
6182,-1.07,0.93,
6183,-1.1,0.915,
6184,-1.095,0.89,
6185,-1.09,0.875,
6186,-1.07,0.87,
6187,-1.065,0.87,
6188,-1.06,0.865,
6189,-1.06,0.825,
6190,-1.055,0.81,
6191,-1.05,0.78,
6192,-1.03,0.755,
6193,-1.015,0.74,
6194,-1.0,0.73,
6195,-0.985,0.695,
6196,-0.955,0.66,
6197,-0.92,0.615,
6198,-0.885,0.605,
6199,-0.865,0.59,
6200,-0.845,0.57,
6201,-0.815,0.525,
6202,-0.8,0.48,
6203,-0.77,0.45,
6204,-0.73,0.43,
6205,-0.695,0.42,
6206,-0.665,0.41,
6207,-0.65,0.375,
6208,-0.62,0.335,
6209,-0.575,0.32,
6210,-0.535,0.325,
6211,-0.515,0.33,
6212,-0.515,0.33,
6213,-0.515,0.325,
6214,-0.515,0.295,
6215,-0.495,0.285,
6216,-0.47,0.295,
6217,-0.455,0.31,
6218,-0.45,0.3,
6219,-0.46,0.3,
6220,-0.475,0.295,
6221,-0.475,0.285,
6222,-0.46,0.29,
6223,-0.455,0.295,
6224,-0.455,0.305,
6225,-0.465,0.3,
6226,-0.465,0.285,
6227,-0.465,0.27,
6228,-0.47,0.28,
6229,-0.455,0.285,
6230,-0.445,0.29,
6231,-0.45,0.285,
6232,-0.465,0.27,
6233,-0.465,0.26,
6234,-0.445,0.29,
6235,-0.455,0.29,
6236,-0.475,0.3,
6237,-0.495,0.285,
6238,-0.505,0.27,
6239,-0.495,0.28,
6240,-0.48,0.28,
6241,-0.48,0.29,
6242,-0.505,0.305,
6243,-0.525,0.31,
6244,-0.53,0.315,
6245,-0.53,0.315,
6246,-0.525,0.315,
6247,-0.515,0.335,
6248,-0.515,0.34,
6249,-0.5,0.33,
6250,-0.49,0.315,
6251,-0.46,0.325,
6252,-0.42,0.355,
6253,-0.38,0.39,
6254,-0.35,0.385,
6255,-0.34,0.385,
6256,-0.36,0.36,
6257,-0.355,0.355,
6258,-0.33,0.35,
6259,-0.31,0.345,
6260,-0.295,0.325,
6261,-0.29,0.325,
6262,-0.285,0.3,
6263,-0.265,0.285,
6264,-0.235,0.29,
6265,-0.24,0.295,
6266,-0.25,0.305,
6267,-0.27,0.295,
6268,-0.275,0.28,
6269,-0.26,0.28,
6270,-0.23,0.28,
6271,-0.205,0.28,
6272,-0.205,0.28,
6273,-0.21,0.265,
6274,-0.23,0.26,
6275,-0.24,0.245,
6276,-0.225,0.255,
6277,-0.205,0.265,
6278,-0.185,0.275,
6279,-0.18,0.265,
6280,-0.155,0.235,
6281,-0.145,0.215,
6282,-0.125,0.21,
6283,-0.12,0.21,
6284,-0.1,0.165,
6285,-0.085,0.14,
6286,-0.08,0.1,
6287,-0.04,0.04,
6288,0.01,-0.015,
6289,0.07,-0.08,
6290,0.13,-0.16,
6291,0.195,-0.275,
6292,0.28,-0.405,
6293,0.365,-0.515,
6294,0.455,-0.615,
6295,0.55,-0.67,
6296,0.625,-0.75,
6297,0.695,-0.84,
6298,0.775,-0.915,
6299,0.875,-0.995,
6300,0.975,-1.055,
6301,1.09,-1.08,
6302,1.16,-1.105,
6303,1.24,-1.14,
6304,1.315,-1.18,V
6305,1.38,-1.185,
6306,1.415,-1.16,
6307,1.395,-1.11,
6308,1.375,-1.045,
6309,1.3,-0.985,
6310,1.22,-0.945,
6311,1.165,-0.85,
6312,1.155,-0.73,
6313,1.165,-0.595,
6314,1.16,-0.495,
6315,1.115,-0.415,
6316,1.065,-0.37,
6317,1.035,-0.315,
6318,1.005,-0.25,
6319,0.965,-0.2,
6320,0.925,-0.165,
6321,0.9,-0.12,
6322,0.88,-0.09,
6323,0.9,-0.065,
6324,0.9,-0.06,
6325,0.85,-0.03,
6326,0.73,-0.02,
6327,0.54,0.03,
6328,0.315,0.09,
6329,0.09,0.185,
6330,-0.125,0.275,
6331,-0.3,0.38,
6332,-0.465,0.455,
6333,-0.605,0.48,
6334,-0.675,0.505,
6335,-0.715,0.535,
6336,-0.72,0.56,
6337,-0.725,0.59,
6338,-0.74,0.605,
6339,-0.775,0.61,
6340,-0.81,0.615,
6341,-0.83,0.625,
6342,-0.845,0.67,
6343,-0.855,0.715,
6344,-0.87,0.755,
6345,-0.915,0.795,
6346,-0.94,0.825,
6347,-0.905,0.86,
6348,-0.885,0.85,
6349,-0.89,0.845,
6350,-0.9,0.835,
6351,-0.925,0.8,
6352,-0.935,0.78,
6353,-0.935,0.755,
6354,-0.91,0.75,
6355,-0.925,0.775,
6356,-0.93,0.77,
6357,-0.945,0.755,
6358,-0.97,0.73,
6359,-0.97,0.73,
6360,-0.975,0.745,
6361,-0.99,0.76,
6362,-0.985,0.765,
6363,-1.005,0.765,
6364,-1.025,0.765,
6365,-1.03,0.765,
6366,-1.04,0.78,
6367,-1.045,0.79,
6368,-1.075,0.82,
6369,-1.11,0.83,
6370,-1.115,0.825,
6371,-1.11,0.825,
6372,-1.095,0.84,
6373,-1.085,0.87,
6374,-1.1,0.885,
6375,-1.135,0.895,
6376,-1.15,0.89,
6377,-1.13,0.865,
6378,-1.11,0.885,
6379,-1.115,0.885,
6380,-1.105,0.895,
6381,-1.125,0.88,
6382,-1.13,0.86,
6383,-1.1,0.84,
6384,-1.065,0.82,
6385,-1.045,0.815,
6386,-1.03,0.795,
6387,-1.025,0.79,
6388,-1.015,0.76,
6389,-1.0,0.71,
6390,-0.965,0.685,
6391,-0.935,0.655,
6392,-0.905,0.63,
6393,-0.87,0.57,
6394,-0.84,0.52,
6395,-0.795,0.46,
6396,-0.735,0.415,
6397,-0.695,0.4,
6398,-0.66,0.37,
6399,-0.645,0.315,
6400,-0.61,0.25,
6401,-0.565,0.215,
6402,-0.525,0.18,
6403,-0.48,0.155,
6404,-0.455,0.14,
6405,-0.45,0.11,
6406,-0.455,0.07,
6407,-0.425,0.055,
6408,-0.405,0.05,
6409,-0.385,0.045,
6410,-0.365,0.04,
6411,-0.365,0.02,
6412,-0.365,0.015,
6413,-0.35,-0.005,
6414,-0.35,0.01,
6415,-0.35,0.045,
6416,-0.35,0.05,
6417,-0.37,0.035,
6418,-0.39,0.02,
6419,-0.37,0.02,
6420,-0.38,0.035,
6421,-0.39,0.035,
6422,-0.415,0.055,
6423,-0.445,0.045,
6424,-0.46,0.05,
6425,-0.455,0.035,
6426,-0.44,0.045,
6427,-0.425,0.06,
6428,-0.44,0.07,
6429,-0.46,0.075,
6430,-0.485,0.065,
6431,-0.475,0.065,
6432,-0.47,0.09,
6433,-0.46,0.095,
6434,-0.465,0.095,
6435,-0.47,0.09,
6436,-0.49,0.075,
6437,-0.48,0.055,
6438,-0.48,0.06,
6439,-0.475,0.08,
6440,-0.495,0.09,
6441,-0.505,0.08,
6442,-0.52,0.07,
6443,-0.52,0.065,
6444,-0.51,0.085,
6445,-0.49,0.09,
6446,-0.48,0.1,
6447,-0.5,0.095,
6448,-0.5,0.085,
6449,-0.495,0.075,
6450,-0.475,0.07,
6451,-0.465,0.09,
6452,-0.47,0.1,
6453,-0.48,0.1,
6454,-0.485,0.08,
6455,-0.465,0.08,
6456,-0.45,0.095,
6457,-0.45,0.12,
6458,-0.465,0.11,
6459,-0.48,0.075,
6460,-0.485,0.06,
6461,-0.485,0.04,
6462,-0.455,0.055,
6463,-0.435,0.065,
6464,-0.44,0.08,
6465,-0.45,0.065,
6466,-0.465,0.055,
6467,-0.47,0.05,
6468,-0.46,0.045,
6469,-0.46,0.06,
6470,-0.455,0.045,
6471,-0.47,0.05,
6472,-0.465,0.03,
6473,-0.465,0.04,
6474,-0.455,0.04,
6475,-0.455,0.045,
6476,-0.455,0.05,
6477,-0.475,0.045,
6478,-0.48,0.035,
6479,-0.465,0.03,
6480,-0.43,0.035,
6481,-0.415,0.06,
6482,-0.425,0.06,~
6483,-0.44,0.06,
6484,-0.44,0.065,
6485,-0.425,0.06,
6486,-0.41,0.075,
6487,-0.405,0.085,
6488,-0.41,0.095,
6489,-0.4,0.095,
6490,-0.385,0.07,
6491,-0.355,0.06,
6492,-0.35,0.06,
6493,-0.365,0.075,
6494,-0.375,0.075,
6495,-0.39,0.05,
6496,-0.405,0.05,
6497,-0.385,0.025,
6498,-0.37,0.04,
6499,-0.385,0.045,
6500,-0.37,0.045,
6501,-0.4,0.035,
6502,-0.415,0.015,
6503,-0.415,0.005,
6504,-0.395,0.01,
6505,-0.37,0.015,
6506,-0.355,-0.005,
6507,-0.36,0.0,
6508,-0.375,-0.015,
6509,-0.39,-0.025,
6510,-0.385,-0.03,
6511,-0.375,-0.02,
6512,-0.37,-0.03,
6513,-0.375,-0.04,
6514,-0.385,-0.07,
6515,-0.35,-0.07,
6516,-0.32,-0.08,
6517,-0.31,-0.05,
6518,-0.325,-0.06,
6519,-0.34,-0.06,
6520,-0.335,-0.055,
6521,-0.3,-0.065,
6522,-0.255,-0.055,
6523,-0.24,-0.035,
6524,-0.235,-0.03,
6525,-0.255,-0.045,
6526,-0.24,-0.055,
6527,-0.21,-0.07,
6528,-0.175,-0.075,
6529,-0.125,-0.065,
6530,-0.11,-0.07,
6531,-0.125,-0.075,
6532,-0.135,-0.11,
6533,-0.13,-0.14,
6534,-0.115,-0.16,
6535,-0.115,-0.14,
6536,-0.12,-0.145,
6537,-0.15,-0.14,
6538,-0.155,-0.15,
6539,-0.16,-0.145,
6540,-0.17,-0.14,
6541,-0.17,-0.14,
6542,-0.19,-0.14,
6543,-0.25,-0.135,
6544,-0.285,-0.14,
6545,-0.275,-0.125,
6546,-0.27,-0.115,
6547,-0.26,-0.095,
6548,-0.275,-0.09,
6549,-0.305,-0.095,
6550,-0.32,-0.11,
6551,-0.33,-0.105,
6552,-0.3,-0.095,
6553,-0.305,-0.07,
6554,-0.305,-0.075,
6555,-0.315,-0.065,
6556,-0.33,-0.075,
6557,-0.325,-0.1,
6558,-0.305,-0.08,
6559,-0.295,-0.075,
6560,-0.285,-0.07,
6561,-0.3,-0.07,
6562,-0.31,-0.09,
6563,-0.33,-0.095,
6564,-0.32,-0.085,
6565,-0.3,-0.085,
6566,-0.3,-0.09,
6567,-0.305,-0.11,
6568,-0.31,-0.14,
6569,-0.305,-0.12,
6570,-0.265,-0.105,
6571,-0.165,-0.13,
6572,-0.045,-0.195,
6573,0.1,-0.31,
6574,0.275,-0.39,
6575,0.495,-0.48,
6576,0.8,-0.5,
6577,1.125,-0.51,
6578,1.395,-0.52,
6579,1.54,-0.48,N
6580,1.44,-0.39,
6581,1.19,-0.285,
6582,0.865,-0.17,
6583,0.52,-0.095,
6584,0.16,-0.08,
6585,-0.13,-0.13,
6586,-0.27,-0.205,
6587,-0.265,-0.23,
6588,-0.22,-0.22,
6589,-0.205,-0.185,
6590,-0.21,-0.155,
6591,-0.225,-0.135,
6592,-0.19,-0.15,
6593,-0.185,-0.155,
6594,-0.185,-0.14,
6595,-0.22,-0.12,
6596,-0.245,-0.11,
6597,-0.27,-0.12,
6598,-0.305,-0.125,
6599,-0.295,-0.13,
6600,-0.295,-0.125,
6601,-0.295,-0.115,
6602,-0.28,-0.13,
6603,-0.3,-0.13,
6604,-0.335,-0.15,
6605,-0.325,-0.165,
6606,-0.28,-0.165,
6607,-0.24,-0.16,
6608,-0.22,-0.17,
6609,-0.19,-0.18,
6610,-0.19,-0.2,
6611,-0.22,-0.19,
6612,-0.24,-0.17,
6613,-0.235,-0.16,
6614,-0.23,-0.15,
6615,-0.25,-0.15,
6616,-0.285,-0.155,
6617,-0.305,-0.165,
6618,-0.26,-0.17,
6619,-0.205,-0.165,
6620,-0.25,-0.15,
6621,-0.38,-0.135,
6622,-0.455,-0.135,
6623,-0.445,-0.13,
6624,-0.365,-0.14,
6625,-0.32,-0.135,
6626,-0.32,-0.13,
6627,-0.335,-0.115,
6628,-0.33,-0.15,
6629,-0.31,-0.16,
6630,-0.3,-0.145,
6631,-0.33,-0.115,
6632,-0.355,-0.125,
6633,-0.365,-0.125,
6634,-0.335,-0.135,
6635,-0.275,-0.14,
6636,-0.24,-0.15,
6637,-0.2,-0.14,
6638,-0.19,-0.15,
6639,-0.19,-0.16,
6640,-0.19,-0.18,
6641,-0.185,-0.16,
6642,-0.15,-0.155,
6643,-0.12,-0.155,
6644,-0.1,-0.16,
6645,-0.095,-0.175,
6646,-0.1,-0.2,
6647,-0.09,-0.25,
6648,-0.075,-0.265,
6649,-0.055,-0.27,
6650,-0.04,-0.29,
6651,-0.015,-0.325,
6652,0.005,-0.355,
6653,0.035,-0.37,
6654,0.035,-0.365,
6655,0.05,-0.355,
6656,0.03,-0.355,
6657,0.04,-0.36,
6658,0.065,-0.405,
6659,0.135,-0.415,
6660,0.195,-0.415,
6661,0.21,-0.4,
6662,0.155,-0.38,
6663,0.055,-0.37,
6664,0.005,-0.36,
6665,0.01,-0.345,
6666,0.035,-0.325,
6667,0.05,-0.295,
6668,0.04,-0.275,
6669,0.02,-0.26,
6670,0.0,-0.235,
6671,0.005,-0.235,
6672,-0.005,-0.19,
6673,-0.015,-0.15,
6674,-0.05,-0.135,
6675,-0.09,-0.11,
6676,-0.11,-0.1,
6677,-0.145,-0.085,
6678,-0.145,-0.055,
6679,-0.135,-0.02,
6680,-0.135,0.0,
6681,-0.12,0.0,
6682,-0.095,-0.005,
6683,-0.055,-0.01,
6684,-0.03,-0.005,
6685,-0.08,0.02,
6686,-0.17,0.035,
6687,-0.26,0.04,
6688,-0.32,0.06,
6689,-0.36,0.09,
6690,-0.41,0.12,
6691,-0.43,0.135,
6692,-0.41,0.135,
6693,-0.4,0.135,
6694,-0.38,0.13,
6695,-0.37,0.125,
6696,-0.345,0.135,
6697,-0.315,0.115,
6698,-0.3,0.09,
6699,-0.295,0.06,
6700,-0.28,0.025,
6701,-0.28,0.03,
6702,-0.27,0.055,
6703,-0.27,0.07,
6704,-0.285,0.06,
6705,-0.305,0.055,
6706,-0.33,0.015,
6707,-0.33,0.01,
6708,-0.315,0.005,
6709,-0.3,0.015,
6710,-0.305,0.02,
6711,-0.315,0.015,
6712,-0.31,0.005,
6713,-0.295,0.01,
6714,-0.29,0.01,
6715,-0.275,0.03,
6716,-0.265,0.035,
6717,-0.265,0.05,
6718,-0.245,0.045,
6719,-0.215,0.04,
6720,-0.185,0.06,
6721,-0.165,0.06,
6722,-0.16,0.07,
6723,-0.165,0.065,
6724,-0.175,0.055,
6725,-0.155,0.04,
6726,-0.145,0.05,
6727,-0.095,0.05,
6728,-0.085,0.055,
6729,-0.08,0.025,
6730,-0.125,-0.005,
6731,-0.13,-0.025,
6732,-0.075,-0.045,
6733,-0.025,-0.035,
6734,-0.025,-0.035,
6735,-0.095,-0.02,
6736,-0.175,-0.015,
6737,-0.16,-0.035,
6738,-0.135,-0.025,
6739,-0.18,0.01,
6740,-0.28,0.035,
6741,-0.39,0.05,
