,MLII,V1,symbol
0,-0.5,0.05,
1,-0.5,0.05,
2,-0.5,0.05,
3,-0.5,0.05,
4,-0.5,0.05,
5,-0.5,0.05,
6,-0.5,0.05,
7,-0.5,0.05,
8,-0.46,0.05,
9,-0.4,0.04,
10,-0.34,0.02,
11,-0.29,-0.005,
12,-0.275,-0.05,
13,-0.28,-0.095,
14,-0.28,-0.1,
15,-0.285,-0.1,
16,-0.265,-0.08,
17,-0.24,-0.085,
18,-0.215,-0.105,
19,-0.21,-0.145,
20,-0.205,-0.185,
21,-0.195,-0.175,
22,-0.185,-0.155,
23,-0.175,-0.15,
24,-0.17,-0.155,
25,-0.185,-0.18,
26,-0.185,-0.175,
27,-0.17,-0.19,
28,-0.145,-0.2,
29,-0.12,-0.21,
30,-0.095,-0.23,
31,-0.1,-0.26,
32,-0.125,-0.28,
33,-0.115,-0.29,
34,-0.11,-0.27,
35,-0.07,-0.26,
36,-0.055,-0.295,
37,-0.05,-0.32,
38,-0.06,-0.38,
39,-0.05,-0.4,
40,-0.02,-0.415,
41,0.0,-0.415,
42,0.015,-0.44,
43,0.025,-0.47,
44,0.025,-0.485,
45,0.05,-0.505,
46,0.09,-0.515,
47,0.11,-0.525,
48,0.14,-0.56,
49,0.145,-0.575,
50,0.15,-0.59,
51,0.14,-0.605,
52,0.14,-0.6,
53,0.18,-0.57,
54,0.21,-0.595,
55,0.225,-0.615,
56,0.235,-0.61,
57,0.245,-0.605,
58,0.25,-0.57,
59,0.275,-0.545,
60,0.275,-0.52,
61,0.26,-0.53,
62,0.23,-0.485,
63,0.23,-0.46,
64,0.205,-0.42,
65,0.22,-0.385,
66,0.215,-0.36,
67,0.175,-0.34,
68,0.14,-0.32,
69,0.11,-0.275,
70,0.09,-0.24,
71,0.08,-0.185,
72,0.06,-0.16,
73,0.035,-0.155,
74,0.0,-0.135,
75,-0.03,-0.105,
76,-0.04,-0.085,
77,-0.06,-0.035,
78,-0.08,-0.02,
79,-0.115,-0.01,
80,-0.15,0.01,
81,-0.18,0.02,
82,-0.19,0.06,
83,-0.19,0.085,
84,-0.19,0.08,
85,-0.22,0.065,
86,-0.24,0.05,
87,-0.265,0.05,
88,-0.28,0.095,
89,-0.265,0.13,
90,-0.265,0.115,
91,-0.27,0.095,
92,-0.29,0.085,
93,-0.3,0.085,
94,-0.31,0.09,
95,-0.295,0.1,
96,-0.295,0.105,
97,-0.305,0.11,
98,-0.315,0.105,
99,-0.325,0.12,
100,-0.305,0.135,
101,-0.28,0.125,
102,-0.28,0.105,
103,-0.28,0.095,
104,-0.3,0.08,
105,-0.305,0.09,
106,-0.31,0.11,
107,-0.29,0.135,
108,-0.275,0.135,
109,-0.28,0.115,
110,-0.285,0.1,
111,-0.265,0.09,
112,-0.26,0.11,
113,-0.235,0.11,
114,-0.245,0.095,
115,-0.26,0.09,
116,-0.27,0.09,
117,-0.29,0.115,
118,-0.27,0.115,
119,-0.235,0.115,
120,-0.215,0.095,
121,-0.22,0.08,
122,-0.24,0.07,
123,-0.25,0.085,
124,-0.25,0.095,
125,-0.245,0.12,+
126,-0.23,0.12,
127,-0.23,0.095,
128,-0.23,0.085,
129,-0.235,0.08,
130,-0.22,0.09,
131,-0.215,0.09,
132,-0.215,0.08,
133,-0.225,0.08,
134,-0.245,0.075,
135,-0.25,0.08,
136,-0.24,0.095,
137,-0.22,0.105,
138,-0.215,0.09,
139,-0.225,0.07,
140,-0.24,0.055,
141,-0.255,0.07,
142,-0.235,0.09,
143,-0.23,0.115,
144,-0.225,0.105,
145,-0.24,0.095,
146,-0.24,0.08,
147,-0.245,0.07,
148,-0.23,0.075,
149,-0.225,0.09,
150,-0.215,0.105,
151,-0.225,0.12,
152,-0.245,0.11,
153,-0.225,0.13,
154,-0.19,0.135,
155,-0.15,0.165,
156,-0.125,0.15,
157,-0.11,0.11,
158,-0.12,0.1,
159,-0.11,0.075,
160,-0.085,0.105,
161,-0.065,0.095,
162,-0.03,0.09,
163,-0.005,0.05,
164,0.01,0.035,
165,0.01,0.03,
166,0.025,0.05,
167,0.04,0.07,
168,0.035,0.08,
169,0.025,0.075,
170,0.02,0.065,
171,0.015,0.065,
172,0.02,0.07,
173,0.01,0.075,
174,-0.025,0.06,
175,-0.075,0.035,
176,-0.13,0.04,
177,-0.165,0.045,
178,-0.18,0.075,
179,-0.175,0.08,
180,-0.19,0.07,
181,-0.21,0.055,
182,-0.225,0.025,
183,-0.24,0.015,
184,-0.23,0.04,
185,-0.23,0.065,
186,-0.25,0.07,
187,-0.265,0.075,
188,-0.28,0.06,
189,-0.275,0.055,
190,-0.27,0.06,
191,-0.26,0.06,
192,-0.245,0.065,
193,-0.27,0.04,
194,-0.285,0.04,
195,-0.29,0.055,
196,-0.29,0.095,
197,-0.27,0.105,
198,-0.25,0.085,
199,-0.25,0.065,
200,-0.255,0.045,
201,-0.255,0.055,
202,-0.245,0.09,
203,-0.22,0.13,
204,-0.205,0.145,
205,-0.185,0.09,
206,-0.165,0.015,
207,-0.095,-0.01,
208,0.015,-0.03,
209,0.205,-0.04,
210,0.425,-0.03,
211,0.655,0.025,
212,0.915,0.17,
213,1.135,0.42,
214,1.295,0.64,R
215,1.315,0.805,
216,1.13,0.895,
217,0.74,0.89,
218,0.275,0.845,
219,-0.165,0.835,
220,-0.47,0.85,
221,-0.605,0.93,
222,-0.61,1.01,
223,-0.59,1.08,
224,-0.575,1.135,
225,-0.6,1.195,
226,-0.615,1.245,
227,-0.645,1.29,
228,-0.69,1.32,
229,-0.725,1.38,
230,-0.755,1.435,
231,-0.755,1.505,
232,-0.73,1.55,
233,-0.715,1.555,
234,-0.705,1.505,
235,-0.725,1.385,
236,-0.75,1.23,
237,-0.745,1.06,
238,-0.715,0.905,
239,-0.65,0.735,
240,-0.6,0.57,
241,-0.55,0.405,
242,-0.505,0.255,
243,-0.45,0.165,
244,-0.365,0.11,
245,-0.28,0.075,
246,-0.235,0.03,
247,-0.195,-0.01,
248,-0.185,-0.025,
249,-0.17,-0.03,
250,-0.155,-0.04,
251,-0.14,-0.03,
252,-0.125,-0.06,
253,-0.105,-0.09,
254,-0.105,-0.13,
255,-0.095,-0.135,
256,-0.085,-0.135,
257,-0.07,-0.125,
258,-0.065,-0.125,
259,-0.075,-0.135,
260,-0.07,-0.17,
261,-0.07,-0.175,
262,-0.04,-0.19,
263,-0.02,-0.185,
264,-0.025,-0.21,
265,-0.025,-0.235,
266,-0.045,-0.25,
267,-0.035,-0.255,
268,-0.01,-0.225,
269,0.015,-0.23,
270,0.03,-0.245,
271,0.02,-0.28,
272,0.03,-0.31,
273,0.03,-0.31,
274,0.05,-0.295,
275,0.065,-0.305,
276,0.07,-0.315,
277,0.075,-0.34,
278,0.085,-0.39,
279,0.09,-0.415,
280,0.13,-0.42,
281,0.16,-0.45,
282,0.185,-0.47,
283,0.19,-0.51,
284,0.185,-0.525,
285,0.185,-0.53,
286,0.22,-0.525,
287,0.25,-0.535,
288,0.28,-0.57,
289,0.27,-0.59,
290,0.285,-0.62,
291,0.295,-0.62,
292,0.32,-0.61,
293,0.355,-0.58,
294,0.365,-0.585,
295,0.37,-0.58,
296,0.36,-0.58,
297,0.365,-0.565,
298,0.395,-0.52,
299,0.395,-0.5,
300,0.395,-0.5,
301,0.355,-0.475,
302,0.325,-0.45,
303,0.305,-0.395,
304,0.29,-0.345,
305,0.285,-0.31,
306,0.27,-0.285,
307,0.23,-0.265,
308,0.185,-0.245,
309,0.155,-0.21,
310,0.12,-0.15,
311,0.1,-0.085,
312,0.08,-0.07,
313,0.05,-0.05,
314,0.02,-0.055,
315,0.0,-0.045,
316,-0.025,-0.02,
317,-0.01,-0.005,
318,-0.02,0.02,
319,-0.055,0.02,
320,-0.08,0.035,
321,-0.09,0.055,
322,-0.1,0.07,
323,-0.11,0.08,
324,-0.115,0.065,
325,-0.12,0.04,
326,-0.14,0.035,
327,-0.17,0.035,
328,-0.17,0.085,
329,-0.16,0.095,
330,-0.165,0.105,
331,-0.19,0.095,
332,-0.205,0.075,
333,-0.195,0.075,
334,-0.175,0.075,
335,-0.16,0.09,
336,-0.16,0.085,
337,-0.19,0.085,
338,-0.2,0.075,
339,-0.19,0.1,
340,-0.18,0.105,
341,-0.16,0.095,
342,-0.15,0.085,
343,-0.17,0.07,
344,-0.175,0.065,
345,-0.19,0.07,
346,-0.175,0.105,
347,-0.15,0.135,
348,-0.14,0.115,
349,-0.14,0.075,
350,-0.145,0.04,
351,-0.145,0.05,
352,-0.145,0.08,
353,-0.135,0.08,
354,-0.135,0.09,
355,-0.145,0.075,
356,-0.15,0.055,
357,-0.15,0.055,
358,-0.135,0.06,
359,-0.125,0.07,
360,-0.105,0.055,
361,-0.125,0.06,
362,-0.16,0.06,
363,-0.165,0.055,
364,-0.145,0.08,
365,-0.125,0.07,
366,-0.12,0.065,
367,-0.125,0.06,
368,-0.15,0.02,
369,-0.145,0.045,
370,-0.155,0.065,
371,-0.135,0.085,
372,-0.15,0.09,
373,-0.14,0.055,
374,-0.145,0.055,
375,-0.145,0.05,
376,-0.135,0.06,
377,-0.125,0.07,
378,-0.13,0.08,
379,-0.14,0.065,
380,-0.155,0.065,
381,-0.165,0.065,
382,-0.155,0.075,
383,-0.135,0.075,
384,-0.12,0.065,
385,-0.12,0.05,
386,-0.14,0.06,
387,-0.155,0.09,
388,-0.145,0.11,
389,-0.135,0.135,
390,-0.11,0.125,
391,-0.1,0.115,
392,-0.095,0.11,
393,-0.095,0.12,
394,-0.06,0.145,
395,-0.03,0.165,
396,-0.015,0.165,
397,0.0,0.14,
398,0.01,0.11,
399,0.02,0.075,
400,0.05,0.085,
401,0.095,0.065,
402,0.105,0.055,
403,0.12,0.045,
404,0.13,0.05,
405,0.135,0.065,
406,0.135,0.08,
407,0.145,0.085,
408,0.16,0.075,
409,0.17,0.07,
410,0.135,0.05,
411,0.115,0.065,
412,0.075,0.09,
413,0.04,0.105,
414,0.005,0.095,
415,-0.03,0.06,
416,-0.065,0.04,
417,-0.08,0.03,
418,-0.105,0.055,
419,-0.085,0.06,
420,-0.125,0.085,
421,-0.145,0.075,
422,-0.135,0.075,
423,-0.145,0.06,
424,-0.135,0.07,
425,-0.15,0.07,
426,-0.135,0.075,
427,-0.145,0.065,
428,-0.16,0.065,
429,-0.18,0.08,
430,-0.17,0.095,
431,-0.16,0.09,
432,-0.135,0.075,
433,-0.15,0.05,
434,-0.16,0.045,
435,-0.165,0.06,
436,-0.16,0.065,
437,-0.135,0.11,
438,-0.135,0.105,
439,-0.135,0.1,
440,-0.125,0.1,
441,-0.135,0.11,
442,-0.105,0.1,
443,-0.05,0.025,
444,0.005,-0.015,
445,0.085,-0.065,
446,0.18,-0.04,
447,0.36,-0.015,
448,0.61,0.045,
449,0.875,0.185,
450,1.12,0.375,
451,1.305,0.555,R
452,1.35,0.715,
453,1.24,0.855,
454,0.93,0.915,
455,0.5,0.915,
456,0.08,0.865,
457,-0.27,0.87,
458,-0.42,0.875,
459,-0.435,0.955,
460,-0.385,1.05,
461,-0.37,1.14,
462,-0.4,1.2,
463,-0.465,1.25,
464,-0.515,1.29,
465,-0.555,1.335,
466,-0.57,1.41,
467,-0.555,1.475,
468,-0.535,1.515,
469,-0.555,1.545,
470,-0.585,1.545,
471,-0.595,1.52,
472,-0.605,1.465,
473,-0.615,1.365,
474,-0.605,1.22,
475,-0.585,1.04,
476,-0.56,0.855,
477,-0.52,0.67,
478,-0.47,0.515,
479,-0.41,0.38,
480,-0.355,0.255,
481,-0.32,0.17,
482,-0.275,0.11,
483,-0.23,0.105,
484,-0.155,0.1,
485,-0.105,0.08,
486,-0.06,0.03,
487,-0.06,-0.01,
488,-0.055,-0.055,
489,-0.05,-0.07,
490,-0.035,-0.055,
491,0.0,-0.045,
492,0.015,-0.055,
493,0.02,-0.09,
494,0.025,-0.115,
495,0.02,-0.135,
496,0.025,-0.135,
497,0.045,-0.135,
498,0.06,-0.14,
499,0.035,-0.16,
500,0.01,-0.18,
501,0.025,-0.17,
502,0.055,-0.16,
503,0.07,-0.175,
504,0.08,-0.2,
505,0.09,-0.23,
506,0.085,-0.245,
507,0.065,-0.26,
508,0.085,-0.245,
509,0.105,-0.24,
510,0.105,-0.245,
511,0.095,-0.285,
512,0.115,-0.32,
513,0.125,-0.35,
514,0.145,-0.345,
515,0.18,-0.375,
516,0.19,-0.395,
517,0.2,-0.41,
518,0.175,-0.43,
519,0.195,-0.44,
520,0.215,-0.455,
521,0.23,-0.465,
522,0.25,-0.505,
523,0.26,-0.54,
524,0.25,-0.58,
525,0.275,-0.585,
526,0.285,-0.575,
527,0.32,-0.56,
528,0.325,-0.585,
529,0.335,-0.6,
530,0.34,-0.625,
531,0.35,-0.625,
532,0.375,-0.61,
533,0.4,-0.6,
534,0.405,-0.595,
535,0.395,-0.59,
536,0.38,-0.57,
537,0.37,-0.525,
538,0.385,-0.485,
539,0.395,-0.47,
540,0.39,-0.445,
541,0.375,-0.43,
542,0.335,-0.445,
543,0.32,-0.405,
544,0.305,-0.36,
545,0.295,-0.305,
546,0.29,-0.255,
547,0.25,-0.235,
548,0.235,-0.22,
549,0.21,-0.195,
550,0.195,-0.16,
551,0.185,-0.135,
552,0.17,-0.105,
553,0.13,-0.09,
554,0.075,-0.065,
555,0.065,-0.03,
556,0.05,0.01,
557,0.05,0.025,
558,0.045,0.03,
559,0.025,0.005,
560,0.0,-0.005,
561,-0.025,0.005,
562,-0.035,0.055,
563,-0.045,0.09,
564,-0.045,0.085,
565,-0.065,0.08,
566,-0.08,0.065,
567,-0.095,0.07,
568,-0.085,0.09,
569,-0.08,0.095,
570,-0.085,0.085,
571,-0.095,0.07,
572,-0.12,0.075,
573,-0.125,0.095,
574,-0.1,0.1,
575,-0.1,0.12,
576,-0.09,0.1,
577,-0.095,0.07,
578,-0.11,0.05,
579,-0.115,0.075,
580,-0.11,0.095,
581,-0.095,0.115,
582,-0.095,0.125,
583,-0.105,0.095,
584,-0.11,0.055,
585,-0.11,0.065,
586,-0.09,0.07,
587,-0.075,0.085,
588,-0.085,0.08,
589,-0.1,0.07,
590,-0.135,0.075,
591,-0.105,0.085,
592,-0.085,0.11,
593,-0.085,0.105,
594,-0.075,0.06,
595,-0.07,0.055,
596,-0.095,0.06,
597,-0.105,0.065,
598,-0.09,0.09,
599,-0.075,0.11,
600,-0.065,0.1,
601,-0.07,0.085,
602,-0.085,0.05,
603,-0.11,0.045,
604,-0.11,0.075,
605,-0.095,0.095,
606,-0.07,0.085,
607,-0.08,0.095,
608,-0.1,0.065,
609,-0.1,0.08,
610,-0.1,0.085,
611,-0.08,0.09,
612,-0.08,0.08,
613,-0.1,0.055,
614,-0.12,0.065,
615,-0.13,0.075,
616,-0.115,0.105,
617,-0.105,0.13,
618,-0.1,0.1,
619,-0.115,0.055,
620,-0.145,0.045,
621,-0.12,0.06,
622,-0.105,0.075,
623,-0.095,0.1,
624,-0.1,0.1,
625,-0.1,0.095,
626,-0.125,0.08,
627,-0.135,0.075,
628,-0.115,0.095,
629,-0.09,0.12,
630,-0.075,0.125,
631,-0.085,0.135,
632,-0.11,0.14,
633,-0.1,0.14,
634,-0.075,0.18,
635,-0.05,0.2,
636,-0.03,0.19,
637,-0.015,0.175,
638,-0.005,0.125,
639,-0.015,0.1,
640,0.005,0.1,
641,0.02,0.105,
642,0.065,0.095,
643,0.095,0.055,
644,0.095,0.04,
645,0.115,0.07,
646,0.145,0.085,
647,0.165,0.08,
648,0.16,0.085,
649,0.125,0.07,
650,0.095,0.07,
651,0.09,0.085,
652,0.1,0.095,
653,0.09,0.12,
654,0.085,0.115,
655,0.045,0.085,
656,-0.005,0.075,
657,-0.06,0.06,
658,-0.08,0.065,
659,-0.085,0.095,
660,-0.105,0.095,
661,-0.12,0.065,
662,-0.14,0.065,
663,-0.155,0.055,
664,-0.155,0.065,
665,-0.16,0.085,
666,-0.175,0.055,
667,-0.18,0.055,
668,-0.205,0.04,
669,-0.225,0.05,
670,-0.22,0.07,
671,-0.195,0.095,
672,-0.195,0.075,
673,-0.195,0.06,
674,-0.23,0.045,
675,-0.225,0.04,
676,-0.22,0.055,
677,-0.21,0.075,
678,-0.215,0.08,
679,-0.215,0.07,
680,-0.255,0.055,
681,-0.235,0.07,
682,-0.205,0.065,
683,-0.19,0.08,
684,-0.185,0.075,
685,-0.175,0.09,
686,-0.18,0.09,
687,-0.175,0.055,
688,-0.15,0.015,
689,-0.06,-0.015,
690,0.045,-0.025,
691,0.19,-0.035,
692,0.37,-0.015,
693,0.615,0.085,
694,0.865,0.275,
695,1.08,0.495,
696,1.205,0.69,R
697,1.185,0.81,
698,0.93,0.885,
699,0.53,0.87,
700,0.1,0.845,
701,-0.24,0.84,
702,-0.44,0.85,
703,-0.515,0.89,
704,-0.495,0.955,
705,-0.51,1.05,
706,-0.515,1.14,
707,-0.525,1.2,
708,-0.565,1.215,
709,-0.61,1.24,
710,-0.65,1.27,
711,-0.675,1.305,
712,-0.69,1.39,
713,-0.665,1.485,
714,-0.685,1.52,
715,-0.685,1.535,
716,-0.72,1.51,
717,-0.72,1.455,
718,-0.73,1.335,
719,-0.705,1.195,
720,-0.69,1.005,
721,-0.675,0.815,
722,-0.66,0.63,
723,-0.63,0.455,
724,-0.57,0.32,
725,-0.495,0.215,
726,-0.435,0.13,
727,-0.36,0.075,
728,-0.32,0.025,
729,-0.265,0.01,
730,-0.24,-0.005,
731,-0.22,-0.02,
732,-0.21,-0.04,
733,-0.21,-0.07,
734,-0.22,-0.09,
735,-0.195,-0.12,
736,-0.165,-0.11,
737,-0.145,-0.115,
738,-0.16,-0.14,
739,-0.16,-0.155,
740,-0.175,-0.195,
741,-0.17,-0.185,
742,-0.17,-0.165,
743,-0.125,-0.15,
744,-0.125,-0.175,
745,-0.11,-0.21,
746,-0.125,-0.25,
747,-0.135,-0.26,
748,-0.12,-0.255,
749,-0.105,-0.235,
750,-0.105,-0.25,
751,-0.105,-0.26,
752,-0.12,-0.29,
753,-0.105,-0.305,
754,-0.09,-0.31,
755,-0.06,-0.325,
756,-0.045,-0.35,
757,-0.05,-0.375,
758,-0.065,-0.4,
759,-0.075,-0.405,
760,-0.06,-0.4,
761,-0.045,-0.4,
762,-0.025,-0.435,
763,-0.025,-0.485,
764,-0.02,-0.52,
765,-0.005,-0.54,
766,0.01,-0.545,
767,0.03,-0.535,
768,0.04,-0.555,
769,0.045,-0.58,
770,0.035,-0.6,
771,0.035,-0.615,
772,0.075,-0.615,
773,0.11,-0.63,
774,0.13,-0.635,
775,0.115,-0.65,
776,0.12,-0.67,
777,0.115,-0.635,
778,0.145,-0.605,
779,0.155,-0.58,
780,0.16,-0.56,
781,0.17,-0.565,
782,0.145,-0.575,
783,0.14,-0.55,
784,0.14,-0.515,
785,0.145,-0.485,
786,0.135,-0.445,
787,0.105,-0.425,
788,0.065,-0.4,
789,0.05,-0.365,
790,0.05,-0.32,
791,0.035,-0.29,
792,0.02,-0.27,
793,-0.01,-0.275,
794,-0.045,-0.245,
795,-0.07,-0.21,
796,-0.085,-0.165,
797,-0.095,-0.11,
798,-0.11,-0.095,
799,-0.14,-0.1,
800,-0.17,-0.1,
801,-0.18,-0.085,
802,-0.195,-0.05,
803,-0.19,-0.03,
804,-0.225,-0.005,
805,-0.25,0.0,
806,-0.285,0.0,
807,-0.3,0.005,
808,-0.31,0.025,
809,-0.3,0.02,
810,-0.31,0.01,
811,-0.325,0.0,
812,-0.36,-0.005,
813,-0.37,0.015,
814,-0.36,0.055,
815,-0.345,0.06,
816,-0.33,0.035,
817,-0.34,0.015,
818,-0.37,-0.005,
819,-0.375,-0.005,
820,-0.37,0.01,
821,-0.37,0.025,
822,-0.365,0.035,
823,-0.365,0.035,
824,-0.38,0.035,
825,-0.37,0.015,
826,-0.34,0.01,
827,-0.34,0.03,
828,-0.335,0.01,
829,-0.36,0.01,
830,-0.375,0.025,
831,-0.385,0.02,
832,-0.365,0.045,
833,-0.34,0.045,
834,-0.345,0.025,
835,-0.36,-0.005,
836,-0.37,-0.01,
837,-0.375,-0.01,
838,-0.375,0.015,
839,-0.365,0.025,
840,-0.36,0.025,
841,-0.37,0.01,
842,-0.375,0.01,
843,-0.355,0.015,
844,-0.355,0.015,
845,-0.34,0.01,
846,-0.345,0.01,
847,-0.365,-0.01,
848,-0.385,0.005,
849,-0.39,0.02,
850,-0.38,0.03,
851,-0.36,0.04,
852,-0.345,0.01,
853,-0.36,0.0,
854,-0.385,-0.015,
855,-0.395,0.0,
856,-0.4,0.03,
857,-0.39,0.045,
858,-0.37,0.07,
859,-0.385,0.065,
860,-0.385,0.045,
861,-0.36,0.045,
862,-0.35,0.055,
863,-0.32,0.08,
864,-0.32,0.08,
865,-0.32,0.085,
866,-0.33,0.065,
867,-0.315,0.06,
868,-0.29,0.055,
869,-0.255,0.04,
870,-0.225,-0.005,
871,-0.205,-0.035,
872,-0.2,-0.04,
873,-0.185,-0.015,
874,-0.16,0.01,
875,-0.15,0.015,
876,-0.155,0.025,
877,-0.15,0.01,
878,-0.17,0.0,
879,-0.18,0.015,
880,-0.17,0.035,
881,-0.195,0.02,
882,-0.205,0.03,
883,-0.245,0.025,
884,-0.29,0.015,
885,-0.325,0.02,
886,-0.355,0.01,
887,-0.36,0.015,
888,-0.39,-0.005,
889,-0.405,-0.02,
890,-0.425,-0.03,
891,-0.455,-0.01,
892,-0.45,0.01,
893,-0.465,0.025,
894,-0.465,0.015,
895,-0.47,0.005,
896,-0.485,-0.025,
897,-0.505,-0.025,
898,-0.505,-0.025,
899,-0.5,0.015,
900,-0.495,0.01,
901,-0.51,0.005,
902,-0.52,-0.005,
903,-0.525,-0.01,
904,-0.51,-0.005,
905,-0.49,0.0,
906,-0.47,0.0,
907,-0.485,-0.025,
908,-0.505,-0.03,
909,-0.52,-0.005,
910,-0.485,0.035,
911,-0.47,0.045,
912,-0.47,0.05,
913,-0.465,0.035,
914,-0.465,0.025,
915,-0.455,-0.005,
916,-0.415,-0.06,
917,-0.34,-0.095,
918,-0.25,-0.115,
919,-0.11,-0.095,
920,0.08,-0.06,
921,0.33,0.04,
922,0.605,0.185,
923,0.835,0.35,
924,0.97,0.47,R
925,0.955,0.6,
926,0.785,0.705,
927,0.445,0.735,
928,0.03,0.725,
929,-0.345,0.715,
930,-0.62,0.705,
931,-0.745,0.735,
932,-0.75,0.775,
933,-0.715,0.85,
934,-0.71,0.91,
935,-0.74,0.985,
936,-0.765,1.045,
937,-0.82,1.095,
938,-0.86,1.13,
939,-0.88,1.17,
940,-0.88,1.22,
941,-0.865,1.295,
942,-0.86,1.345,
943,-0.86,1.39,
944,-0.88,1.4,
945,-0.915,1.36,
946,-0.925,1.3,
947,-0.93,1.19,
948,-0.905,1.02,
949,-0.885,0.84,
950,-0.84,0.65,
951,-0.8,0.49,
952,-0.74,0.35,
953,-0.695,0.26,
954,-0.645,0.17,
955,-0.62,0.085,
956,-0.575,0.05,
957,-0.5,0.035,
958,-0.43,0.0,
959,-0.365,-0.005,
960,-0.335,-0.04,
961,-0.32,-0.09,
962,-0.325,-0.115,
963,-0.325,-0.115,
964,-0.315,-0.11,
965,-0.3,-0.1,
966,-0.27,-0.12,
967,-0.26,-0.16,
968,-0.26,-0.18,
969,-0.245,-0.175,
970,-0.23,-0.185,
971,-0.225,-0.18,
972,-0.215,-0.18,
973,-0.21,-0.195,
974,-0.225,-0.215,
975,-0.215,-0.22,
976,-0.185,-0.205,
977,-0.165,-0.225,
978,-0.15,-0.25,
979,-0.16,-0.285,
980,-0.16,-0.305,
981,-0.175,-0.315,
982,-0.155,-0.285,
983,-0.12,-0.29,
984,-0.115,-0.295,
985,-0.1,-0.345,
986,-0.105,-0.385,
987,-0.09,-0.4,
988,-0.075,-0.415,
989,-0.05,-0.42,
990,-0.04,-0.435,
991,-0.03,-0.46,
992,-0.05,-0.47,
993,-0.03,-0.48,
994,-0.01,-0.495,
995,0.025,-0.515,
996,0.045,-0.535,
997,0.04,-0.56,
998,0.035,-0.575,
999,0.045,-0.585,
1000,0.055,-0.565,
1001,0.09,-0.585,
1002,0.1,-0.605,
1003,0.11,-0.62,
1004,0.135,-0.62,
1005,0.155,-0.61,
1006,0.17,-0.585,
1007,0.185,-0.59,
1008,0.185,-0.595,
1009,0.165,-0.575,
1010,0.15,-0.52,
1011,0.165,-0.485,
1012,0.165,-0.455,
1013,0.18,-0.45,
1014,0.175,-0.45,
1015,0.14,-0.43,
1016,0.125,-0.405,
1017,0.1,-0.365,
1018,0.1,-0.325,
1019,0.07,-0.295,
1020,0.06,-0.27,
1021,0.015,-0.25,
1022,-0.015,-0.225,
1023,-0.01,-0.185,
1024,-0.005,-0.155,
1025,-0.02,-0.15,
1026,-0.035,-0.15,
1027,-0.08,-0.145,
1028,-0.105,-0.095,
1029,-0.1,-0.07,
1030,-0.12,-0.03,
1031,-0.145,0.0,
1032,-0.17,0.005,
1033,-0.185,-0.005,
1034,-0.2,0.015,
1035,-0.205,0.03,
1036,-0.2,0.045,
1037,-0.215,0.05,
1038,-0.24,0.05,
1039,-0.27,0.04,
1040,-0.28,0.075,
1041,-0.27,0.09,
1042,-0.27,0.095,
1043,-0.26,0.075,
1044,-0.26,0.05,
1045,-0.275,0.025,
1046,-0.285,0.05,
1047,-0.28,0.08,
1048,-0.285,0.085,
1049,-0.27,0.1,
1050,-0.285,0.08,
1051,-0.285,0.07,
1052,-0.285,0.065,
1053,-0.27,0.07,
1054,-0.26,0.08,
1055,-0.255,0.07,
1056,-0.265,0.065,
1057,-0.275,0.06,
1058,-0.285,0.065,
1059,-0.285,0.09,
1060,-0.26,0.11,
1061,-0.255,0.085,
1062,-0.245,0.06,
1063,-0.26,0.045,
1064,-0.265,0.05,
1065,-0.255,0.06,
1066,-0.245,0.07,
1067,-0.255,0.07,
1068,-0.255,0.08,
1069,-0.265,0.075,
1070,-0.255,0.075,
1071,-0.245,0.095,
1072,-0.225,0.065,
1073,-0.23,0.05,
1074,-0.23,0.045,
1075,-0.25,0.045,
1076,-0.265,0.06,
1077,-0.25,0.09,
1078,-0.245,0.095,
1079,-0.235,0.1,
1080,-0.26,0.08,
1081,-0.255,0.055,
1082,-0.26,0.04,
1083,-0.245,0.055,
1084,-0.225,0.07,
1085,-0.23,0.06,
1086,-0.235,0.06,
1087,-0.26,0.065,
1088,-0.27,0.07,
1089,-0.255,0.085,
1090,-0.24,0.09,
1091,-0.22,0.075,
1092,-0.22,0.06,
1093,-0.24,0.05,
1094,-0.23,0.045,
1095,-0.245,0.075,
1096,-0.23,0.105,
1097,-0.21,0.125,
1098,-0.235,0.13,
1099,-0.245,0.125,
1100,-0.225,0.115,
1101,-0.18,0.12,
1102,-0.155,0.13,
1103,-0.145,0.12,
1104,-0.14,0.115,
1105,-0.145,0.115,
1106,-0.145,0.105,
1107,-0.12,0.105,
1108,-0.105,0.1,
1109,-0.07,0.09,
1110,-0.06,0.055,
1111,-0.035,0.015,
1112,-0.025,0.01,
1113,0.0,0.035,
1114,0.025,0.06,
1115,0.01,0.075,
1116,0.015,0.065,
1117,-0.01,0.06,
1118,-0.005,0.07,
1119,0.015,0.075,
1120,0.025,0.085,
1121,0.015,0.06,
1122,0.0,0.045,
1123,-0.045,0.05,
1124,-0.09,0.05,
1125,-0.125,0.075,
1126,-0.14,0.08,
1127,-0.16,0.085,
1128,-0.185,0.045,
1129,-0.22,0.04,
1130,-0.23,0.03,
1131,-0.23,0.03,
1132,-0.235,0.045,
1133,-0.24,0.03,
1134,-0.27,0.035,
1135,-0.285,0.035,
1136,-0.305,0.055,
1137,-0.305,0.06,
1138,-0.3,0.085,
1139,-0.295,0.065,
1140,-0.31,0.03,
1141,-0.305,0.025,
1142,-0.31,0.025,
1143,-0.295,0.055,
1144,-0.295,0.055,
1145,-0.3,0.07,
1146,-0.32,0.06,
1147,-0.325,0.055,
1148,-0.325,0.06,
1149,-0.305,0.075,
1150,-0.285,0.07,
1151,-0.26,0.07,
1152,-0.28,0.06,
1153,-0.295,0.045,
1154,-0.305,0.075,
1155,-0.29,0.105,
1156,-0.25,0.14,
1157,-0.26,0.15,
1158,-0.245,0.1,
1159,-0.215,0.04,
1160,-0.17,-0.005,
1161,-0.055,-0.03,
1162,0.075,-0.055,
1163,0.235,-0.025,
1164,0.43,-0.005,
1165,0.64,0.065,
1166,0.88,0.22,
1167,1.09,0.41,
1168,1.25,0.59,R
1169,1.3,0.725,
1170,1.205,0.815,
1171,0.96,0.865,
1172,0.6,0.86,
1173,0.215,0.875,
1174,-0.135,0.885,
1175,-0.4,0.89,
1176,-0.575,0.905,
1177,-0.63,0.93,
1178,-0.63,0.985,
1179,-0.59,1.07,
1180,-0.57,1.14,
1181,-0.595,1.175,
1182,-0.64,1.19,
1183,-0.695,1.245,
1184,-0.73,1.29,
1185,-0.755,1.355,
1186,-0.755,1.42,
1187,-0.73,1.475,
1188,-0.73,1.495,
1189,-0.73,1.5,
1190,-0.735,1.495,
1191,-0.74,1.48,
1192,-0.75,1.425,
1193,-0.755,1.31,
1194,-0.78,1.165,
1195,-0.765,1.015,
1196,-0.745,0.845,
1197,-0.69,0.71,
1198,-0.63,0.56,
1199,-0.57,0.41,
1200,-0.54,0.28,
1201,-0.505,0.155,
1202,-0.445,0.095,
1203,-0.385,0.075,
1204,-0.315,0.05,
1205,-0.265,0.03,
1206,-0.235,-0.015,
1207,-0.23,-0.045,
1208,-0.215,-0.045,
1209,-0.185,-0.07,
1210,-0.155,-0.08,
1211,-0.14,-0.105,
1212,-0.125,-0.135,
1213,-0.13,-0.155,
1214,-0.14,-0.16,
1215,-0.12,-0.13,
1216,-0.105,-0.13,
1217,-0.105,-0.14,
1218,-0.095,-0.16,
1219,-0.105,-0.18,
1220,-0.1,-0.195,
1221,-0.09,-0.185,
1222,-0.07,-0.185,
1223,-0.05,-0.19,
1224,-0.07,-0.23,
1225,-0.065,-0.24,
1226,-0.06,-0.22,
1227,-0.045,-0.215,
1228,-0.025,-0.215,
1229,-0.005,-0.245,
1230,-0.015,-0.285,
1231,-0.015,-0.315,
1232,-0.02,-0.34,
1233,-0.005,-0.325,
1234,0.01,-0.315,
1235,0.035,-0.325,
1236,0.04,-0.35,
1237,0.035,-0.39,
1238,0.055,-0.415,
1239,0.065,-0.43,
1240,0.095,-0.44,
1241,0.105,-0.47,
1242,0.105,-0.495,
1243,0.105,-0.505,
1244,0.115,-0.51,
1245,0.15,-0.495,
1246,0.165,-0.5,
1247,0.17,-0.51,
1248,0.175,-0.545,
1249,0.185,-0.585,
1250,0.175,-0.605,
1251,0.205,-0.605,
1252,0.23,-0.605,
1253,0.25,-0.61,
1254,0.25,-0.645,
1255,0.26,-0.635,
1256,0.25,-0.62,
1257,0.25,-0.61,
1258,0.285,-0.6,
1259,0.315,-0.61,
1260,0.315,-0.635,
1261,0.31,-0.625,
1262,0.32,-0.615,
1263,0.33,-0.59,
1264,0.34,-0.535,
1265,0.335,-0.525,
1266,0.325,-0.505,
1267,0.295,-0.495,
1268,0.28,-0.46,
1269,0.27,-0.42,
1270,0.265,-0.385,
1271,0.245,-0.375,
1272,0.23,-0.37,
1273,0.195,-0.335,
1274,0.165,-0.295,
1275,0.14,-0.23,
1276,0.14,-0.19,
1277,0.115,-0.15,
1278,0.075,-0.155,
1279,0.05,-0.14,
1280,0.025,-0.13,
1281,0.03,-0.1,
1282,0.02,-0.075,
1283,0.015,-0.06,
1284,-0.02,-0.055,
1285,-0.055,-0.04,
1286,-0.08,-0.01,
1287,-0.085,0.025,
1288,-0.08,0.04,
1289,-0.08,0.03,
1290,-0.11,0.02,
1291,-0.135,0.015,
1292,-0.14,0.02,
1293,-0.155,0.03,
1294,-0.145,0.06,
1295,-0.15,0.06,
1296,-0.175,0.055,
1297,-0.185,0.055,
1298,-0.2,0.07,
1299,-0.185,0.095,
1300,-0.17,0.105,
1301,-0.165,0.085,
1302,-0.19,0.06,
1303,-0.22,0.03,
1304,-0.22,0.055,
1305,-0.225,0.07,
1306,-0.21,0.1,
1307,-0.21,0.085,
1308,-0.23,0.08,
1309,-0.22,0.08,
1310,-0.235,0.075,
1311,-0.21,0.07,
1312,-0.21,0.075,
1313,-0.205,0.06,
1314,-0.23,0.05,
1315,-0.24,0.05,
1316,-0.23,0.065,
1317,-0.225,0.075,
1318,-0.205,0.085,
1319,-0.205,0.08,
1320,-0.2,0.065,
1321,-0.195,0.055,
1322,-0.19,0.04,
1323,-0.185,0.055,
1324,-0.165,0.07,
1325,-0.17,0.05,
1326,-0.19,0.04,
1327,-0.195,0.04,
1328,-0.2,0.055,
1329,-0.195,0.07,
1330,-0.18,0.085,
1331,-0.18,0.09,
1332,-0.18,0.07,
1333,-0.195,0.04,
1334,-0.205,0.035,
1335,-0.185,0.055,
1336,-0.16,0.07,
1337,-0.165,0.055,
1338,-0.165,0.04,
1339,-0.2,0.055,
1340,-0.2,0.06,
1341,-0.2,0.085,
1342,-0.2,0.075,
1343,-0.175,0.075,
1344,-0.175,0.03,
1345,-0.19,0.015,
1346,-0.205,0.03,
1347,-0.215,0.05,
1348,-0.2,0.075,
1349,-0.185,0.09,
1350,-0.19,0.06,
1351,-0.2,0.06,
1352,-0.2,0.06,
1353,-0.19,0.075,
1354,-0.17,0.065,
1355,-0.175,0.065,
1356,-0.195,0.045,
1357,-0.215,0.045,
1358,-0.215,0.06,
1359,-0.215,0.09,
1360,-0.19,0.12,
1361,-0.195,0.095,
1362,-0.205,0.09,
1363,-0.2,0.09,
1364,-0.21,0.07,
1365,-0.205,0.08,
1366,-0.17,0.105,
1367,-0.16,0.1,
1368,-0.18,0.095,
1369,-0.19,0.1,
1370,-0.18,0.12,
1371,-0.16,0.145,
1372,-0.125,0.165,
1373,-0.115,0.165,
1374,-0.09,0.15,
1375,-0.09,0.125,
1376,-0.1,0.11,
1377,-0.075,0.105,
1378,-0.05,0.095,
1379,-0.04,0.075,
1380,-0.035,0.065,
1381,-0.05,0.04,
1382,-0.02,0.05,
1383,0.03,0.07,
1384,0.065,0.075,
1385,0.075,0.055,
1386,0.08,0.045,
1387,0.05,0.045,
1388,0.04,0.06,
1389,0.04,0.095,
1390,0.04,0.1,
1391,0.04,0.095,
1392,0.0,0.08,
1393,-0.04,0.075,
1394,-0.095,0.07,
1395,-0.095,0.07,
1396,-0.12,0.085,
1397,-0.14,0.065,
1398,-0.165,0.04,
1399,-0.205,0.035,
1400,-0.21,0.055,
1401,-0.205,0.085,
1402,-0.205,0.085,
1403,-0.205,0.075,
1404,-0.23,0.055,
1405,-0.25,0.04,
1406,-0.25,0.03,
1407,-0.25,0.055,
1408,-0.25,0.075,
1409,-0.255,0.06,
1410,-0.275,0.055,
1411,-0.3,0.055,
1412,-0.305,0.07,
1413,-0.295,0.085,
1414,-0.28,0.08,
1415,-0.275,0.075,
1416,-0.285,0.065,
1417,-0.29,0.03,
1418,-0.3,0.03,
1419,-0.285,0.065,
1420,-0.28,0.095,
1421,-0.26,0.1,
1422,-0.265,0.08,
1423,-0.28,0.06,
1424,-0.275,0.06,
1425,-0.245,0.1,
1426,-0.23,0.13,
1427,-0.22,0.125,
1428,-0.205,0.105,
1429,-0.21,0.06,
1430,-0.19,0.015,
1431,-0.13,0.01,
1432,-0.04,0.015,
1433,0.04,-0.005,
1434,0.165,-0.02,
1435,0.305,-0.025,
1436,0.475,0.015,
1437,0.69,0.1,
1438,0.895,0.255,
1439,1.065,0.405,
1440,1.19,0.56,R
1441,1.245,0.715,
1442,1.19,0.86,
1443,1.015,0.955,
1444,0.72,0.99,
1445,0.32,0.94,
1446,-0.1,0.9,
1447,-0.45,0.88,
1448,-0.615,0.915,
1449,-0.64,0.995,
1450,-0.585,1.105,
1451,-0.56,1.2,
1452,-0.59,1.255,
1453,-0.635,1.295,
1454,-0.67,1.335,
1455,-0.7,1.385,
1456,-0.72,1.445,
1457,-0.735,1.505,
1458,-0.725,1.555,
1459,-0.75,1.58,
1460,-0.75,1.595,
1461,-0.75,1.55,
1462,-0.745,1.42,
1463,-0.73,1.23,
1464,-0.735,1.01,
1465,-0.705,0.81,
1466,-0.66,0.65,
1467,-0.61,0.51,
1468,-0.565,0.405,
1469,-0.51,0.295,
1470,-0.465,0.205,
1471,-0.44,0.145,
1472,-0.375,0.1,
1473,-0.315,0.09,
1474,-0.26,0.055,
1475,-0.225,0.025,
1476,-0.195,-0.015,
1477,-0.19,-0.025,
1478,-0.19,-0.04,
1479,-0.17,-0.03,
1480,-0.15,-0.03,
1481,-0.13,-0.04,
1482,-0.13,-0.075,
1483,-0.125,-0.12,
1484,-0.115,-0.13,
1485,-0.1,-0.125,
1486,-0.085,-0.11,
1487,-0.09,-0.11,
1488,-0.09,-0.135,
1489,-0.105,-0.16,
1490,-0.095,-0.155,
1491,-0.08,-0.16,
1492,-0.06,-0.16,
1493,-0.06,-0.18,
1494,-0.05,-0.215,
1495,-0.045,-0.215,
1496,-0.04,-0.21,
1497,-0.035,-0.21,
1498,-0.01,-0.2,
1499,0.005,-0.22,
1500,0.005,-0.255,
1501,-0.015,-0.285,
1502,0.0,-0.305,
1503,0.02,-0.29,
1504,0.035,-0.295,
1505,0.045,-0.32,
1506,0.03,-0.33,
1507,0.025,-0.345,
1508,0.03,-0.37,
1509,0.06,-0.345,
1510,0.085,-0.37,
1511,0.095,-0.395,
1512,0.1,-0.425,
1513,0.115,-0.46,
1514,0.125,-0.48,
1515,0.13,-0.475,
1516,0.16,-0.48,
1517,0.17,-0.475,
1518,0.175,-0.505,
1519,0.18,-0.53,
1520,0.18,-0.53,
1521,0.21,-0.545,
1522,0.25,-0.54,
1523,0.26,-0.575,
1524,0.26,-0.59,
1525,0.25,-0.585,
1526,0.265,-0.545,
1527,0.275,-0.525,
1528,0.305,-0.485,
1529,0.33,-0.47,
1530,0.315,-0.475,
1531,0.29,-0.455,
1532,0.28,-0.435,
1533,0.265,-0.38,
1534,0.25,-0.345,
1535,0.24,-0.3,
1536,0.21,-0.305,
1537,0.18,-0.275,
1538,0.165,-0.245,
1539,0.14,-0.21,
1540,0.145,-0.175,
1541,0.13,-0.17,
1542,0.08,-0.145,
1543,0.055,-0.135,
1544,0.03,-0.095,
1545,0.02,-0.06,
1546,0.015,-0.015,
1547,0.01,0.005,
1548,-0.025,0.01,
1549,-0.055,0.02,
1550,-0.08,0.02,
1551,-0.08,0.04,
1552,-0.075,0.07,
1553,-0.095,0.075,
1554,-0.125,0.075,
1555,-0.15,0.075,
1556,-0.18,0.125,
1557,-0.175,0.135,
1558,-0.165,0.14,
1559,-0.17,0.12,
1560,-0.19,0.1,
1561,-0.215,0.12,
1562,-0.235,0.125,
1563,-0.23,0.14,
1564,-0.205,0.16,
1565,-0.21,0.175,
1566,-0.21,0.15,
1567,-0.225,0.13,
1568,-0.225,0.13,
1569,-0.215,0.14,
1570,-0.185,0.145,
1571,-0.195,0.15,
1572,-0.225,0.125,
1573,-0.25,0.12,
1574,-0.245,0.14,
1575,-0.235,0.16,
1576,-0.22,0.175,
1577,-0.2,0.175,
1578,-0.195,0.15,
1579,-0.21,0.13,
1580,-0.205,0.115,
1581,-0.2,0.135,
1582,-0.195,0.14,
1583,-0.2,0.145,
1584,-0.215,0.145,
1585,-0.225,0.14,
1586,-0.23,0.16,
1587,-0.215,0.155,
1588,-0.205,0.17,
1589,-0.205,0.14,
1590,-0.19,0.105,
1591,-0.19,0.1,
1592,-0.21,0.12,
1593,-0.205,0.145,
1594,-0.19,0.175,
1595,-0.19,0.17,
1596,-0.175,0.135,
1597,-0.195,0.12,
1598,-0.2,0.12,
1599,-0.195,0.12,
1600,-0.175,0.13,
1601,-0.175,0.14,
1602,-0.195,0.145,
1603,-0.215,0.14,
1604,-0.225,0.14,
1605,-0.22,0.155,
1606,-0.195,0.16,
1607,-0.195,0.135,
1608,-0.195,0.13,
1609,-0.2,0.11,
1610,-0.23,0.12,
1611,-0.21,0.14,
1612,-0.2,0.145,
1613,-0.205,0.155,
1614,-0.215,0.15,
1615,-0.235,0.155,
1616,-0.24,0.15,
1617,-0.205,0.16,
1618,-0.205,0.18,
1619,-0.2,0.16,
1620,-0.21,0.13,
1621,-0.225,0.125,
1622,-0.22,0.125,
1623,-0.225,0.145,
1624,-0.22,0.16,
1625,-0.22,0.16,
1626,-0.225,0.175,
1627,-0.24,0.155,
1628,-0.235,0.17,
1629,-0.215,0.18,
1630,-0.195,0.185,
1631,-0.19,0.195,
1632,-0.2,0.17,
1633,-0.21,0.19,
1634,-0.185,0.19,
1635,-0.16,0.235,
1636,-0.13,0.255,
1637,-0.11,0.23,
1638,-0.105,0.195,
1639,-0.11,0.165,
1640,-0.085,0.155,
1641,-0.065,0.155,
1642,-0.04,0.15,
1643,-0.025,0.125,
1644,-0.025,0.115,
1645,-0.035,0.11,
1646,-0.02,0.12,
1647,0.015,0.13,
1648,0.03,0.155,
1649,0.05,0.14,
1650,0.035,0.12,
1651,0.035,0.105,
1652,0.03,0.125,
1653,0.04,0.14,
1654,0.05,0.15,
1655,0.055,0.14,
1656,0.045,0.135,
1657,0.025,0.125,
1658,0.01,0.145,
1659,0.01,0.15,
1660,-0.005,0.175,
1661,-0.025,0.165,
1662,-0.05,0.15,
1663,-0.09,0.14,
1664,-0.125,0.145,
1665,-0.145,0.135,
1666,-0.17,0.145,
1667,-0.19,0.13,
1668,-0.23,0.125,
1669,-0.245,0.13,
1670,-0.255,0.13,
1671,-0.27,0.15,
1672,-0.27,0.155,
1673,-0.27,0.12,
1674,-0.295,0.105,
1675,-0.315,0.105,
1676,-0.325,0.135,
1677,-0.325,0.165,
1678,-0.3,0.155,
1679,-0.31,0.135,
1680,-0.315,0.13,
1681,-0.325,0.12,
1682,-0.33,0.135,
1683,-0.33,0.15,
1684,-0.31,0.18,
1685,-0.29,0.17,
1686,-0.305,0.17,
1687,-0.31,0.15,
1688,-0.3,0.145,
1689,-0.29,0.175,
1690,-0.255,0.17,
1691,-0.255,0.18,
1692,-0.25,0.18,
1693,-0.26,0.17,
1694,-0.255,0.155,
1695,-0.24,0.135,
1696,-0.21,0.13,
1697,-0.18,0.105,
1698,-0.14,0.055,
1699,-0.115,0.035,
1700,-0.035,0.035,
1701,0.095,0.07,
1702,0.255,0.09,
1703,0.41,0.105,
1704,0.605,0.19,
1705,0.805,0.325,
1706,0.98,0.53,
1707,1.135,0.745,R
1708,1.155,0.94,
1709,0.945,1.005,
1710,0.525,0.975,
1711,0.035,0.905,
1712,-0.35,0.9,
1713,-0.555,0.95,
1714,-0.555,1.035,
1715,-0.5,1.14,
1716,-0.515,1.225,
1717,-0.585,1.285,
1718,-0.635,1.345,
1719,-0.655,1.39,
1720,-0.665,1.41,
1721,-0.68,1.435,
1722,-0.7,1.465,
1723,-0.715,1.5,
1724,-0.71,1.55,
1725,-0.72,1.615,
1726,-0.725,1.65,
1727,-0.73,1.63,
1728,-0.72,1.62,
1729,-0.74,1.59,
1730,-0.75,1.54,
1731,-0.75,1.485,
1732,-0.745,1.435,
1733,-0.755,1.33,
1734,-0.74,1.2,
1735,-0.745,1.08,
1736,-0.72,0.975,
1737,-0.68,0.88,
1738,-0.645,0.775,
1739,-0.61,0.645,
1740,-0.59,0.5,
1741,-0.56,0.375,
1742,-0.51,0.29,
1743,-0.475,0.24,
1744,-0.375,0.2,
1745,-0.32,0.16,
1746,-0.275,0.07,
1747,-0.24,0.035,
1748,-0.215,0.02,
1749,-0.2,0.02,
1750,-0.185,0.02,
1751,-0.165,0.0,
1752,-0.15,-0.035,
1753,-0.16,-0.07,
1754,-0.14,-0.09,
1755,-0.13,-0.075,
1756,-0.125,-0.075,
1757,-0.12,-0.09,
1758,-0.125,-0.1,
1759,-0.125,-0.12,
1760,-0.12,-0.11,
1761,-0.12,-0.12,
1762,-0.085,-0.11,
1763,-0.07,-0.115,
1764,-0.095,-0.15,
1765,-0.115,-0.175,
1766,-0.105,-0.18,
1767,-0.085,-0.175,
1768,-0.07,-0.165,
1769,-0.05,-0.165,
1770,-0.075,-0.19,
1771,-0.08,-0.195,
1772,-0.07,-0.19,
1773,-0.055,-0.175,
1774,-0.04,-0.19,
1775,-0.02,-0.21,
1776,-0.035,-0.225,
1777,-0.04,-0.275,
1778,-0.03,-0.285,
1779,-0.02,-0.285,
1780,0.0,-0.3,
1781,0.015,-0.32,
1782,0.01,-0.35,
1783,0.01,-0.375,
1784,0.02,-0.405,
1785,0.055,-0.41,
1786,0.085,-0.425,
1787,0.1,-0.465,
1788,0.1,-0.49,
1789,0.08,-0.515,
1790,0.1,-0.505,
1791,0.135,-0.51,
1792,0.16,-0.51,
1793,0.18,-0.535,
1794,0.19,-0.55,
1795,0.175,-0.565,
1796,0.175,-0.56,
1797,0.19,-0.53,
1798,0.215,-0.505,
1799,0.21,-0.48,
1800,0.21,-0.49,
1801,0.2,-0.495,
1802,0.195,-0.455,
1803,0.215,-0.445,
1804,0.215,-0.42,
1805,0.215,-0.42,
1806,0.215,-0.415,
1807,0.19,-0.41,
1808,0.175,-0.375,
1809,0.165,-0.325,
1810,0.165,-0.275,
1811,0.14,-0.235,
1812,0.115,-0.235,
1813,0.085,-0.22,
1814,0.06,-0.185,
1815,0.05,-0.15,
1816,0.045,-0.115,
1817,0.0,-0.09,
1818,-0.025,-0.065,
1819,-0.055,-0.05,
1820,-0.07,0.005,
1821,-0.095,0.04,
1822,-0.09,0.05,
1823,-0.09,0.055,
1824,-0.115,0.05,
1825,-0.14,0.06,
1826,-0.18,0.07,
1827,-0.18,0.12,
1828,-0.18,0.145,
1829,-0.2,0.155,
1830,-0.22,0.15,
1831,-0.24,0.135,
1832,-0.245,0.13,
1833,-0.265,0.14,
1834,-0.24,0.145,
1835,-0.235,0.15,
1836,-0.26,0.15,
1837,-0.265,0.14,
1838,-0.28,0.17,
1839,-0.28,0.19,
1840,-0.255,0.2,
1841,-0.255,0.19,
1842,-0.25,0.16,
1843,-0.27,0.14,
1844,-0.27,0.15,
1845,-0.26,0.155,
1846,-0.25,0.165,
1847,-0.25,0.175,
1848,-0.275,0.165,
1849,-0.275,0.165,
1850,-0.29,0.165,
1851,-0.275,0.175,
1852,-0.25,0.2,
1853,-0.25,0.18,
1854,-0.25,0.165,
1855,-0.26,0.14,
1856,-0.265,0.135,
1857,-0.265,0.155,
1858,-0.265,0.17,
1859,-0.265,0.155,
1860,-0.285,0.155,
1861,-0.29,0.145,
1862,-0.28,0.15,
1863,-0.26,0.155,
1864,-0.24,0.165,
1865,-0.24,0.15,
1866,-0.245,0.135,
1867,-0.28,0.125,
1868,-0.295,0.145,
1869,-0.28,0.17,
1870,-0.255,0.185,
1871,-0.25,0.17,
1872,-0.255,0.15,
1873,-0.275,0.13,
1874,-0.275,0.135,
1875,-0.28,0.145,
1876,-0.275,0.155,
1877,-0.275,0.165,
1878,-0.28,0.15,
1879,-0.3,0.16,
1880,-0.31,0.17,
1881,-0.315,0.18,
1882,-0.29,0.195,
1883,-0.265,0.18,
1884,-0.285,0.145,
1885,-0.295,0.115,
1886,-0.3,0.13,
1887,-0.3,0.155,
1888,-0.305,0.17,
1889,-0.295,0.195,
1890,-0.3,0.19,
1891,-0.31,0.205,
1892,-0.305,0.195,
1893,-0.27,0.2,
1894,-0.25,0.205,
1895,-0.235,0.19,
1896,-0.225,0.19,
1897,-0.215,0.19,
1898,-0.215,0.185,
1899,-0.185,0.2,
1900,-0.16,0.185,
1901,-0.14,0.165,
1902,-0.125,0.1,
1903,-0.105,0.09,
1904,-0.095,0.09,
1905,-0.075,0.135,
1906,-0.055,0.16,
1907,-0.045,0.17,
1908,-0.055,0.155,
1909,-0.075,0.145,
1910,-0.1,0.135,
1911,-0.1,0.14,
1912,-0.125,0.165,
1913,-0.155,0.16,
1914,-0.235,0.16,
1915,-0.275,0.145,
1916,-0.295,0.15,
1917,-0.31,0.15,
1918,-0.305,0.12,
1919,-0.315,0.125,
1920,-0.345,0.105,
1921,-0.37,0.1,
1922,-0.385,0.115,
1923,-0.39,0.145,
1924,-0.385,0.16,
1925,-0.385,0.165,
1926,-0.4,0.13,
1927,-0.415,0.115,
1928,-0.42,0.11,
1929,-0.415,0.135,
1930,-0.43,0.13,
1931,-0.415,0.13,
1932,-0.44,0.13,
1933,-0.465,0.14,
1934,-0.46,0.14,
1935,-0.45,0.14,
1936,-0.43,0.15,
1937,-0.43,0.14,
1938,-0.425,0.115,
1939,-0.46,0.1,
1940,-0.465,0.105,
1941,-0.435,0.15,
1942,-0.41,0.2,
1943,-0.38,0.22,
1944,-0.375,0.155,
1945,-0.35,0.065,
1946,-0.285,-0.01,
1947,-0.18,0.0,
1948,-0.01,0.02,
1949,0.18,0.075,
1950,0.415,0.155,
1951,0.65,0.315,
1952,0.845,0.505,
1953,0.955,0.68,R
1954,0.935,0.825,
1955,0.695,0.89,
1956,0.32,0.865,
1957,-0.09,0.835,
1958,-0.425,0.85,
1959,-0.615,0.875,
1960,-0.675,0.92,
1961,-0.645,0.965,
1962,-0.65,1.015,
1963,-0.67,1.045,
1964,-0.71,1.095,
1965,-0.75,1.16,
1966,-0.775,1.25,
1967,-0.81,1.3,
1968,-0.86,1.33,
1969,-0.89,1.355,
1970,-0.88,1.425,
1971,-0.86,1.5,
1972,-0.845,1.535,
1973,-0.865,1.53,
1974,-0.905,1.47,
1975,-0.93,1.35,
1976,-0.945,1.235,
1977,-0.915,1.1,
1978,-0.865,0.92,
1979,-0.81,0.705,
1980,-0.77,0.505,
1981,-0.75,0.335,
1982,-0.73,0.215,
1983,-0.635,0.175,
1984,-0.59,0.145,
1985,-0.52,0.12,
1986,-0.47,0.075,
1987,-0.43,0.025,
1988,-0.41,-0.01,
1989,-0.385,-0.035,
1990,-0.37,-0.04,
1991,-0.37,-0.04,
1992,-0.375,-0.07,
1993,-0.39,-0.085,
1994,-0.38,-0.065,
1995,-0.355,-0.055,
1996,-0.35,-0.06,
1997,-0.335,-0.105,
1998,-0.345,-0.135,
1999,-0.33,-0.165,
2000,-0.32,-0.15,
2001,-0.33,-0.14,
2002,-0.31,-0.135,
2003,-0.29,-0.145,
2004,-0.305,-0.15,
2005,-0.295,-0.165,
2006,-0.3,-0.17,
2007,-0.275,-0.185,
2008,-0.265,-0.205,
2009,-0.26,-0.225,
2010,-0.275,-0.245,
2011,-0.295,-0.26,
2012,-0.29,-0.265,
2013,-0.275,-0.25,
2014,-0.25,-0.245,
2015,-0.235,-0.285,
2016,-0.215,-0.335,
2017,-0.22,-0.36,
2018,-0.215,-0.38,
2019,-0.2,-0.395,
2020,-0.195,-0.4,
2021,-0.195,-0.425,
2022,-0.18,-0.43,
2023,-0.18,-0.475,
2024,-0.155,-0.485,
2025,-0.135,-0.485,
2026,-0.11,-0.505,
2027,-0.08,-0.52,
2028,-0.085,-0.55,
2029,-0.105,-0.57,
2030,-0.09,-0.555,
2031,-0.065,-0.56,
2032,-0.04,-0.53,
2033,-0.02,-0.52,
2034,-0.01,-0.54,
2035,-0.005,-0.545,
2036,-0.01,-0.54,
2037,0.005,-0.525,
2038,0.015,-0.485,
2039,0.01,-0.47,
2040,0.005,-0.445,
2041,-0.02,-0.435,
2042,-0.03,-0.395,
2043,-0.03,-0.355,
2044,-0.015,-0.335,
2045,-0.05,-0.32,
2046,-0.095,-0.315,
2047,-0.105,-0.29,
2048,-0.145,-0.26,
2049,-0.15,-0.205,
2050,-0.16,-0.165,
2051,-0.17,-0.12,
2052,-0.205,-0.13,
2053,-0.235,-0.125,
2054,-0.275,-0.1,
2055,-0.26,-0.06,
2056,-0.25,-0.025,
2057,-0.27,-0.03,
2058,-0.305,-0.005,
2059,-0.355,0.005,
2060,-0.36,0.025,
2061,-0.35,0.05,
2062,-0.34,0.07,
2063,-0.355,0.075,
2064,-0.375,0.07,
2065,-0.4,0.06,
2066,-0.41,0.075,
2067,-0.415,0.08,
2068,-0.42,0.105,
2069,-0.43,0.12,
2070,-0.445,0.11,
2071,-0.47,0.11,
2072,-0.48,0.11,
2073,-0.47,0.12,
2074,-0.43,0.135,
2075,-0.435,0.105,
2076,-0.45,0.095,
2077,-0.47,0.09,
2078,-0.485,0.105,
2079,-0.485,0.135,
2080,-0.465,0.135,
2081,-0.46,0.135,
2082,-0.455,0.12,
2083,-0.475,0.1,
2084,-0.47,0.1,
2085,-0.455,0.105,
2086,-0.44,0.115,
2087,-0.445,0.095,
2088,-0.465,0.08,
2089,-0.485,0.085,
2090,-0.475,0.105,
2091,-0.475,0.14,
2092,-0.44,0.145,
2093,-0.43,0.12,
2094,-0.45,0.095,
2095,-0.44,0.075,
2096,-0.445,0.085,
2097,-0.425,0.08,
2098,-0.415,0.115,
2099,-0.435,0.12,
2100,-0.43,0.115,
2101,-0.445,0.11,
2102,-0.46,0.095,
2103,-0.44,0.105,
2104,-0.425,0.105,
2105,-0.415,0.075,
2106,-0.425,0.065,
2107,-0.435,0.05,
2108,-0.44,0.09,
2109,-0.445,0.1,
2110,-0.425,0.14,
2111,-0.425,0.115,
2112,-0.44,0.085,
2113,-0.435,0.07,
2114,-0.435,0.06,
2115,-0.42,0.075,
2116,-0.42,0.105,
2117,-0.41,0.11,
2118,-0.425,0.12,
2119,-0.44,0.135,
2120,-0.43,0.125,
2121,-0.405,0.145,
2122,-0.38,0.145,
2123,-0.35,0.13,
2124,-0.34,0.1,
2125,-0.34,0.1,
2126,-0.34,0.12,
2127,-0.33,0.13,
2128,-0.325,0.14,
2129,-0.305,0.125,
2130,-0.305,0.105,
2131,-0.3,0.08,
2132,-0.27,0.06,
2133,-0.23,0.06,
2134,-0.175,0.05,
2135,-0.145,0.07,
2136,-0.15,0.06,
2137,-0.155,0.045,
2138,-0.185,0.08,
2139,-0.17,0.1,
2140,-0.15,0.125,
2141,-0.15,0.13,
2142,-0.17,0.1,
2143,-0.2,0.07,
2144,-0.23,0.08,
2145,-0.25,0.085,
2146,-0.285,0.11,
2147,-0.32,0.095,
2148,-0.37,0.085,
2149,-0.41,0.09,
2150,-0.425,0.07,
2151,-0.42,0.07,
2152,-0.415,0.065,
2153,-0.415,0.07,
2154,-0.425,0.05,
2155,-0.435,0.03,
2156,-0.44,0.05,
2157,-0.45,0.065,
2158,-0.445,0.085,
2159,-0.455,0.105,
2160,-0.455,0.085,
2161,-0.47,0.075,
2162,-0.48,0.07,
2163,-0.465,0.06,
2164,-0.455,0.075,
2165,-0.445,0.055,
2166,-0.455,0.055,
2167,-0.465,0.04,
2168,-0.47,0.06,
2169,-0.45,0.07,
2170,-0.465,0.095,
2171,-0.445,0.095,
2172,-0.44,0.065,
2173,-0.435,0.045,
2174,-0.43,0.045,
2175,-0.42,0.075,
2176,-0.405,0.09,
2177,-0.41,0.095,
2178,-0.42,0.12,
2179,-0.41,0.125,
2180,-0.405,0.12,
2181,-0.35,0.065,
2182,-0.295,0.02,
2183,-0.24,-0.045,
2184,-0.165,-0.06,
2185,-0.065,-0.08,
2186,0.095,-0.05,
2187,0.325,0.01,
2188,0.58,0.13,
2189,0.805,0.285,
2190,1.0,0.415,
2191,1.11,0.53,R
2192,1.095,0.645,
2193,0.945,0.765,
2194,0.62,0.79,
2195,0.22,0.76,
2196,-0.23,0.73,
2197,-0.54,0.73,
2198,-0.7,0.8,
2199,-0.685,0.895,
2200,-0.63,0.985,
2201,-0.62,1.01,
2202,-0.645,1.035,
2203,-0.705,1.06,
2204,-0.775,1.145,
2205,-0.79,1.19,
2206,-0.785,1.24,
2207,-0.815,1.305,
2208,-0.82,1.355,
2209,-0.82,1.41,
2210,-0.815,1.44,
2211,-0.8,1.45,
2212,-0.805,1.43,
2213,-0.815,1.335,
2214,-0.81,1.205,
2215,-0.84,1.075,
2216,-0.815,0.93,
2217,-0.775,0.815,
2218,-0.71,0.695,
2219,-0.67,0.53,
2220,-0.625,0.37,
2221,-0.59,0.235,
2222,-0.555,0.13,
2223,-0.485,0.09,
2224,-0.41,0.055,
2225,-0.37,0.04,
2226,-0.33,0.02,
2227,-0.295,0.005,
2228,-0.275,-0.01,
2229,-0.235,-0.03,
2230,-0.21,-0.045,
2231,-0.195,-0.09,
2232,-0.185,-0.125,
2233,-0.18,-0.14,
2234,-0.17,-0.14,
2235,-0.175,-0.12,
2236,-0.135,-0.11,
2237,-0.11,-0.135,
2238,-0.105,-0.155,
2239,-0.115,-0.185,
2240,-0.105,-0.19,
2241,-0.085,-0.2,
2242,-0.06,-0.195,
2243,-0.065,-0.205,
2244,-0.065,-0.2,
2245,-0.075,-0.22,
2246,-0.06,-0.22,
2247,-0.035,-0.215,
2248,-0.01,-0.24,
2249,0.025,-0.285,
2250,0.02,-0.325,
2251,0.01,-0.34,
2252,0.01,-0.33,
2253,0.02,-0.31,
2254,0.06,-0.335,
2255,0.07,-0.36,
2256,0.075,-0.4,
2257,0.11,-0.455,
2258,0.13,-0.47,
2259,0.15,-0.465,
2260,0.175,-0.475,
2261,0.185,-0.49,
2262,0.185,-0.525,
2263,0.21,-0.575,
2264,0.24,-0.595,
2265,0.265,-0.59,
2266,0.295,-0.575,
2267,0.29,-0.585,
2268,0.29,-0.595,
2269,0.3,-0.6,
2270,0.305,-0.58,
2271,0.34,-0.54,
2272,0.35,-0.545,
2273,0.37,-0.535,
2274,0.37,-0.565,
2275,0.36,-0.545,
2276,0.35,-0.49,
2277,0.34,-0.43,
2278,0.35,-0.38,
2279,0.335,-0.37,
2280,0.31,-0.355,
2281,0.285,-0.34,
2282,0.265,-0.305,
2283,0.255,-0.265,
2284,0.235,-0.22,
2285,0.205,-0.2,
2286,0.16,-0.165,
2287,0.145,-0.125,
2288,0.125,-0.055,
2289,0.12,-0.015,
2290,0.095,0.0,
2291,0.075,-0.005,
2292,0.04,0.015,
2293,0.005,0.035,
2294,-0.015,0.065,
2295,-0.015,0.1,
2296,-0.015,0.105,
2297,-0.015,0.09,
2298,-0.03,0.065,
2299,-0.04,0.065,
2300,-0.05,0.075,
2301,-0.045,0.105,
2302,-0.045,0.14,
2303,-0.045,0.145,
2304,-0.055,0.135,
2305,-0.07,0.105,
2306,-0.075,0.1,
2307,-0.07,0.125,
2308,-0.065,0.135,
2309,-0.055,0.135,
2310,-0.065,0.135,
2311,-0.065,0.12,
2312,-0.055,0.115,
2313,-0.055,0.12,
2314,-0.035,0.105,
2315,-0.035,0.1,
2316,-0.03,0.115,
2317,-0.04,0.12,
2318,-0.045,0.115,
2319,-0.025,0.09,
2320,-0.01,0.115,
2321,0.0,0.115,
2322,-0.005,0.095,
2323,-0.025,0.11,
2324,-0.035,0.105,
2325,-0.035,0.135,
2326,0.015,0.145,
2327,0.02,0.115,
2328,0.015,0.08,
2329,-0.02,0.08,
2330,-0.02,0.075,
2331,-0.02,0.095,
2332,-0.005,0.13,
2333,-0.005,0.145,
2334,-0.005,0.135,
2335,-0.01,0.135,
2336,-0.005,0.14,
2337,0.035,0.165,
2338,0.045,0.165,
2339,0.055,0.16,
2340,0.075,0.17,
2341,0.08,0.145,
2342,0.1,0.13,
2343,0.115,0.125,
2344,0.155,0.105,
2345,0.17,0.075,
2346,0.175,0.045,
2347,0.185,0.05,
2348,0.2,0.07,
2349,0.21,0.1,
2350,0.23,0.125,
2351,0.25,0.12,
2352,0.23,0.105,
2353,0.215,0.095,
2354,0.21,0.09,
2355,0.19,0.12,
2356,0.15,0.145,
2357,0.145,0.14,
2358,0.085,0.135,
2359,0.05,0.115,
2360,0.01,0.11,
2361,-0.005,0.09,
2362,-0.015,0.085,
2363,-0.025,0.09,
2364,-0.055,0.09,
2365,-0.075,0.09,
2366,-0.095,0.105,
2367,-0.09,0.13,
2368,-0.08,0.135,
2369,-0.07,0.11,
2370,-0.085,0.08,
2371,-0.125,0.075,
2372,-0.12,0.08,
2373,-0.13,0.11,
2374,-0.115,0.125,
2375,-0.125,0.13,
2376,-0.135,0.1,
2377,-0.14,0.095,
2378,-0.13,0.075,
2379,-0.115,0.095,
2380,-0.11,0.11,
2381,-0.115,0.11,
2382,-0.13,0.125,
2383,-0.13,0.12,
2384,-0.13,0.14,
2385,-0.1,0.17,
2386,-0.065,0.2,
2387,-0.04,0.165,
2388,-0.02,0.1,
2389,-0.015,0.02,
2390,0.035,-0.005,
2391,0.125,-0.005,
2392,0.295,0.035,
2393,0.48,0.065,
2394,0.71,0.12,
2395,0.94,0.27,
2396,1.155,0.46,
2397,1.33,0.66,R
2398,1.35,0.82,
2399,1.14,0.935,
2400,0.735,0.94,
2401,0.265,0.9,
2402,-0.13,0.905,
2403,-0.36,0.94,
2404,-0.395,1.0,
2405,-0.35,1.055,
2406,-0.345,1.105,
2407,-0.4,1.17,
2408,-0.47,1.245,
2409,-0.505,1.315,
2410,-0.515,1.365,
2411,-0.53,1.41,
2412,-0.565,1.44,
2413,-0.57,1.495,
2414,-0.565,1.555,
2415,-0.55,1.615,
2416,-0.54,1.645,
2417,-0.565,1.61,
2418,-0.59,1.5,
2419,-0.62,1.355,
2420,-0.605,1.195,
2421,-0.55,1.015,
2422,-0.48,0.82,
2423,-0.435,0.62,
2424,-0.39,0.435,
2425,-0.355,0.305,
2426,-0.295,0.23,
2427,-0.235,0.19,
2428,-0.15,0.17,
2429,-0.08,0.12,
2430,-0.045,0.07,
2431,-0.045,0.025,
2432,-0.02,0.02,
2433,-0.005,0.02,
2434,0.015,0.015,
2435,0.02,0.0,
2436,0.03,-0.01,
2437,0.03,-0.03,
2438,0.03,-0.045,
2439,0.05,-0.055,
2440,0.085,-0.065,
2441,0.095,-0.07,
2442,0.085,-0.105,
2443,0.07,-0.115,
2444,0.065,-0.105,
2445,0.08,-0.09,
2446,0.1,-0.095,
2447,0.1,-0.125,
2448,0.115,-0.145,
2449,0.1,-0.175,
2450,0.115,-0.185,
2451,0.13,-0.195,
2452,0.14,-0.2,
2453,0.14,-0.2,
2454,0.13,-0.22,
2455,0.135,-0.24,
2456,0.15,-0.265,
2457,0.175,-0.27,
2458,0.2,-0.305,
2459,0.21,-0.32,
2460,0.21,-0.355,
2461,0.185,-0.37,
2462,0.215,-0.375,
2463,0.225,-0.375,
2464,0.245,-0.375,
2465,0.275,-0.4,
2466,0.28,-0.455,
2467,0.28,-0.495,
2468,0.295,-0.51,
2469,0.32,-0.515,
2470,0.335,-0.515,
2471,0.365,-0.515,
2472,0.36,-0.525,
2473,0.36,-0.55,
2474,0.385,-0.545,
2475,0.405,-0.535,
2476,0.43,-0.52,
2477,0.415,-0.525,
2478,0.41,-0.505,
2479,0.395,-0.495,
2480,0.38,-0.46,
2481,0.39,-0.42,
2482,0.395,-0.395,
2483,0.4,-0.37,
2484,0.385,-0.355,
2485,0.345,-0.345,
2486,0.315,-0.3,
2487,0.29,-0.27,
2488,0.285,-0.185,
2489,0.255,-0.165,
2490,0.235,-0.13,
2491,0.195,-0.13,
2492,0.18,-0.08,
2493,0.15,-0.05,
2494,0.13,-0.03,
2495,0.115,0.0,
2496,0.085,0.02,
2497,0.055,0.05,
2498,0.035,0.065,
2499,0.025,0.12,
2500,0.015,0.12,
2501,0.01,0.11,
2502,-0.015,0.115,
2503,-0.06,0.105,
2504,-0.08,0.135,
2505,-0.085,0.175,
2506,-0.075,0.195,
2507,-0.08,0.185,
2508,-0.09,0.165,
2509,-0.105,0.145,
2510,-0.11,0.16,
2511,-0.085,0.17,
2512,-0.085,0.185,
2513,-0.09,0.185,
2514,-0.105,0.195,
2515,-0.13,0.195,
2516,-0.115,0.19,
2517,-0.105,0.195,
2518,-0.085,0.195,
2519,-0.1,0.165,
2520,-0.11,0.175,
2521,-0.13,0.195,
2522,-0.125,0.22,
2523,-0.11,0.225,
2524,-0.085,0.21,
2525,-0.1,0.19,
2526,-0.085,0.175,
2527,-0.1,0.145,
2528,-0.09,0.165,
2529,-0.085,0.195,
2530,-0.09,0.22,
2531,-0.11,0.22,
2532,-0.12,0.2,
2533,-0.105,0.18,
2534,-0.09,0.15,
2535,-0.075,0.175,
2536,-0.065,0.185,
2537,-0.07,0.19,
2538,-0.085,0.19,
2539,-0.1,0.19,
2540,-0.11,0.17,
2541,-0.08,0.185,
2542,-0.065,0.185,
2543,-0.05,0.175,
2544,-0.07,0.155,
2545,-0.105,0.15,
2546,-0.09,0.195,
2547,-0.075,0.235,
2548,-0.04,0.245,
2549,-0.005,0.22,
2550,0.005,0.195,
2551,-0.015,0.205,
2552,-0.005,0.22,
2553,0.025,0.2,
2554,0.06,0.2,
2555,0.085,0.185,
2556,0.095,0.155,
2557,0.11,0.135,
2558,0.135,0.115,
2559,0.16,0.135,
2560,0.165,0.18,
2561,0.155,0.175,
2562,0.145,0.175,
2563,0.13,0.17,
2564,0.13,0.17,
2565,0.11,0.17,
2566,0.085,0.175,
2567,0.05,0.18,
2568,-0.02,0.155,
2569,-0.075,0.16,
2570,-0.105,0.165,
2571,-0.11,0.17,
2572,-0.11,0.175,
2573,-0.125,0.16,
2574,-0.15,0.14,
2575,-0.175,0.14,
2576,-0.205,0.145,
2577,-0.2,0.16,
2578,-0.195,0.17,
2579,-0.195,0.18,
2580,-0.195,0.14,
2581,-0.205,0.135,
2582,-0.23,0.135,
2583,-0.235,0.16,
2584,-0.225,0.17,
2585,-0.225,0.165,
2586,-0.22,0.15,
2587,-0.24,0.13,
2588,-0.23,0.135,
2589,-0.23,0.135,
2590,-0.195,0.15,
2591,-0.185,0.135,
2592,-0.2,0.135,
2593,-0.205,0.165,
2594,-0.215,0.195,
2595,-0.18,0.21,
2596,-0.14,0.16,
2597,-0.1,0.07,
2598,-0.025,0.015,
2599,0.09,0.005,
2600,0.275,0.035,
2601,0.51,0.12,
2602,0.795,0.315,
2603,1.05,0.525,
2604,1.225,0.71,R
2605,1.265,0.855,
2606,1.09,0.935,
2607,0.745,0.955,
2608,0.305,0.94,
2609,-0.12,0.925,
2610,-0.415,0.945,
2611,-0.535,0.99,
2612,-0.5,1.075,
2613,-0.455,1.16,
2614,-0.455,1.22,
2615,-0.515,1.27,
2616,-0.58,1.31,
2617,-0.625,1.37,
2618,-0.675,1.435,
2619,-0.665,1.54,
2620,-0.645,1.61,
2621,-0.635,1.635,
2622,-0.655,1.65,
2623,-0.68,1.59,
2624,-0.695,1.495,
2625,-0.715,1.365,
2626,-0.705,1.215,
2627,-0.67,1.025,
2628,-0.63,0.82,
2629,-0.58,0.62,
2630,-0.53,0.455,
2631,-0.46,0.325,
2632,-0.415,0.23,
2633,-0.34,0.19,
2634,-0.29,0.155,
2635,-0.265,0.11,
2636,-0.21,0.105,
2637,-0.18,0.08,
2638,-0.15,0.075,
2639,-0.135,0.02,
2640,-0.125,-0.005,
2641,-0.13,-0.04,
2642,-0.125,-0.04,
2643,-0.13,-0.035,
2644,-0.11,-0.015,
2645,-0.095,-0.03,
2646,-0.095,-0.065,
2647,-0.105,-0.08,
2648,-0.095,-0.1,
2649,-0.08,-0.1,
2650,-0.06,-0.095,
2651,-0.065,-0.12,
2652,-0.055,-0.145,
2653,-0.07,-0.14,
2654,-0.08,-0.145,
2655,-0.055,-0.135,
2656,-0.03,-0.15,
2657,-0.015,-0.16,
2658,-0.01,-0.22,
2659,-0.03,-0.225,
2660,-0.03,-0.245,
2661,-0.02,-0.225,
2662,0.01,-0.22,
2663,0.015,-0.25,
2664,0.02,-0.275,
2665,0.02,-0.32,
2666,0.025,-0.34,
2667,0.04,-0.375,
2668,0.065,-0.385,
2669,0.09,-0.405,
2670,0.1,-0.425,
2671,0.095,-0.45,
2672,0.105,-0.465,
2673,0.12,-0.465,
2674,0.15,-0.465,
2675,0.165,-0.495,
2676,0.17,-0.525,
2677,0.165,-0.56,
2678,0.17,-0.555,
2679,0.2,-0.535,
2680,0.21,-0.525,
2681,0.215,-0.52,
2682,0.22,-0.535,
2683,0.225,-0.53,
2684,0.225,-0.51,
2685,0.235,-0.505,
2686,0.26,-0.465,
2687,0.25,-0.44,
2688,0.21,-0.425,
2689,0.19,-0.395,
2690,0.16,-0.345,
2691,0.155,-0.285,
2692,0.165,-0.245,
2693,0.14,-0.245,
2694,0.11,-0.235,
2695,0.065,-0.195,
2696,0.035,-0.17,
2697,0.015,-0.12,
2698,0.0,-0.07,
2699,-0.02,-0.03,
2700,-0.03,-0.035,
2701,-0.055,-0.02,
2702,-0.08,0.0,
2703,-0.105,0.025,
2704,-0.1,0.04,
2705,-0.13,0.075,
2706,-0.16,0.085,
2707,-0.185,0.095,
2708,-0.195,0.115,
2709,-0.205,0.125,
2710,-0.19,0.13,
2711,-0.195,0.13,
2712,-0.225,0.11,
2713,-0.255,0.105,
2714,-0.265,0.13,
2715,-0.265,0.155,
2716,-0.25,0.165,
2717,-0.25,0.15,
2718,-0.26,0.15,
2719,-0.275,0.14,
2720,-0.29,0.14,
2721,-0.27,0.155,
2722,-0.26,0.16,
2723,-0.27,0.175,
2724,-0.27,0.17,
2725,-0.285,0.16,
2726,-0.305,0.15,
2727,-0.28,0.16,
2728,-0.28,0.165,
2729,-0.265,0.155,
2730,-0.28,0.14,
2731,-0.295,0.14,
2732,-0.305,0.155,
2733,-0.285,0.19,
2734,-0.28,0.2,
2735,-0.275,0.17,
2736,-0.28,0.15,
2737,-0.29,0.135,
2738,-0.28,0.13,
2739,-0.275,0.15,
2740,-0.29,0.155,
2741,-0.3,0.16,
2742,-0.295,0.155,
2743,-0.3,0.15,
2744,-0.3,0.125,
2745,-0.265,0.13,
2746,-0.255,0.115,
2747,-0.255,0.125,
2748,-0.27,0.095,
2749,-0.285,0.105,
2750,-0.295,0.13,
2751,-0.295,0.14,
2752,-0.28,0.15,
2753,-0.275,0.13,
2754,-0.28,0.11,
2755,-0.305,0.1,
2756,-0.29,0.11,
2757,-0.29,0.12,
2758,-0.3,0.16,
2759,-0.3,0.16,
2760,-0.31,0.15,
2761,-0.32,0.15,
2762,-0.325,0.16,
2763,-0.295,0.18,
2764,-0.275,0.19,
2765,-0.255,0.165,
2766,-0.25,0.155,
2767,-0.255,0.17,
2768,-0.235,0.195,
2769,-0.21,0.21,
2770,-0.19,0.205,
2771,-0.175,0.15,
2772,-0.17,0.12,
2773,-0.16,0.09,
2774,-0.15,0.085,
2775,-0.115,0.075,
2776,-0.09,0.11,
2777,-0.08,0.11,
2778,-0.065,0.12,
2779,-0.075,0.1,
2780,-0.07,0.1,
2781,-0.07,0.115,
2782,-0.075,0.135,
2783,-0.075,0.11,
2784,-0.11,0.105,
2785,-0.16,0.095,
2786,-0.19,0.12,
2787,-0.23,0.14,
2788,-0.26,0.14,
2789,-0.29,0.12,
2790,-0.325,0.095,
2791,-0.36,0.06,
2792,-0.375,0.075,
2793,-0.405,0.1,
2794,-0.39,0.115,
2795,-0.405,0.11,
2796,-0.43,0.11,
2797,-0.445,0.095,
2798,-0.45,0.07,
2799,-0.445,0.07,
2800,-0.445,0.09,
2801,-0.45,0.09,
2802,-0.47,0.08,
2803,-0.495,0.075,
2804,-0.5,0.095,
2805,-0.5,0.095,
2806,-0.475,0.11,
2807,-0.48,0.075,
2808,-0.485,0.065,
2809,-0.505,0.04,
2810,-0.505,0.05,
2811,-0.51,0.085,
2812,-0.485,0.1,
2813,-0.495,0.095,
2814,-0.495,0.1,
2815,-0.495,0.105,
2816,-0.47,0.1,
2817,-0.45,0.075,
2818,-0.405,0.025,
2819,-0.375,-0.04,
2820,-0.295,-0.075,
2821,-0.195,-0.06,
2822,-0.03,-0.01,
2823,0.205,0.035,
2824,0.445,0.15,
2825,0.675,0.31,
2826,0.86,0.48,R
2827,0.97,0.635,
2828,0.93,0.775,
2829,0.665,0.865,
2830,0.27,0.895,
2831,-0.2,0.855,
2832,-0.615,0.83,
2833,-0.845,0.825,
2834,-0.865,0.905,
2835,-0.8,0.995,
2836,-0.785,1.09,
2837,-0.83,1.15,
2838,-0.885,1.19,
2839,-0.945,1.24,
2840,-0.98,1.285,
2841,-0.995,1.34,
2842,-1.005,1.405,
2843,-0.995,1.455,
2844,-0.99,1.49,
2845,-1.015,1.505,
2846,-1.04,1.505,
2847,-1.06,1.43,
2848,-1.06,1.325,
2849,-1.06,1.155,
2850,-1.05,0.97,
2851,-1.035,0.775,
2852,-0.97,0.6,
2853,-0.925,0.455,
2854,-0.885,0.315,
2855,-0.84,0.225,
2856,-0.795,0.165,
2857,-0.75,0.12,
2858,-0.685,0.075,
2859,-0.64,0.05,
2860,-0.605,0.03,
2861,-0.575,0.005,
2862,-0.575,-0.04,
2863,-0.575,-0.055,
2864,-0.585,-0.06,
2865,-0.565,-0.05,
2866,-0.535,-0.06,
2867,-0.52,-0.075,
2868,-0.515,-0.12,
2869,-0.515,-0.14,
2870,-0.52,-0.16,
2871,-0.51,-0.145,
2872,-0.51,-0.145,
2873,-0.515,-0.145,
2874,-0.49,-0.165,
2875,-0.5,-0.17,
2876,-0.485,-0.175,
2877,-0.465,-0.18,
2878,-0.46,-0.19,
2879,-0.46,-0.2,
2880,-0.47,-0.24,
2881,-0.475,-0.245,
2882,-0.48,-0.26,
2883,-0.465,-0.255,
2884,-0.46,-0.255,
2885,-0.425,-0.295,
2886,-0.425,-0.315,
2887,-0.445,-0.355,
2888,-0.43,-0.365,
2889,-0.42,-0.385,
2890,-0.4,-0.38,
2891,-0.39,-0.385,
2892,-0.385,-0.435,
2893,-0.38,-0.465,
2894,-0.37,-0.49,
2895,-0.345,-0.5,
2896,-0.32,-0.515,
2897,-0.295,-0.525,
2898,-0.295,-0.565,
2899,-0.3,-0.58,
2900,-0.3,-0.575,
2901,-0.285,-0.56,
2902,-0.255,-0.56,
2903,-0.225,-0.565,
2904,-0.23,-0.605,
2905,-0.22,-0.605,
2906,-0.215,-0.595,
2907,-0.2,-0.565,
2908,-0.185,-0.525,
2909,-0.17,-0.505,
2910,-0.175,-0.495,
2911,-0.2,-0.48,
2912,-0.21,-0.45,
2913,-0.205,-0.42,
2914,-0.215,-0.39,
2915,-0.23,-0.375,
2916,-0.275,-0.33,
2917,-0.305,-0.33,
2918,-0.34,-0.265,
2919,-0.36,-0.23,
2920,-0.36,-0.17,
2921,-0.365,-0.17,
2922,-0.42,-0.17,
2923,-0.455,-0.145,
2924,-0.475,-0.13,
2925,-0.48,-0.09,
2926,-0.49,-0.035,
2927,-0.51,-0.015,
2928,-0.525,-0.01,
2929,-0.555,0.0,
2930,-0.575,0.015,
2931,-0.57,0.015,
2932,-0.575,0.045,
2933,-0.58,0.035,
2934,-0.615,0.025,
2935,-0.655,0.04,
2936,-0.665,0.045,
2937,-0.665,0.09,
2938,-0.64,0.11,
2939,-0.635,0.095,
2940,-0.645,0.055,
2941,-0.665,0.055,
2942,-0.685,0.07,
2943,-0.675,0.1,
2944,-0.675,0.115,
2945,-0.67,0.11,
2946,-0.685,0.1,
2947,-0.705,0.09,
2948,-0.7,0.07,
2949,-0.675,0.08,
2950,-0.655,0.085,
2951,-0.66,0.095,
2952,-0.675,0.075,
2953,-0.68,0.07,
2954,-0.685,0.09,
2955,-0.67,0.11,
2956,-0.645,0.11,
2957,-0.64,0.075,
2958,-0.65,0.045,
2959,-0.665,0.05,
2960,-0.66,0.06,
2961,-0.635,0.085,
2962,-0.63,0.095,
2963,-0.635,0.095,
2964,-0.64,0.09,
2965,-0.65,0.06,
2966,-0.64,0.07,
2967,-0.625,0.075,
2968,-0.595,0.08,
2969,-0.605,0.075,
2970,-0.625,0.045,
2971,-0.625,0.05,
2972,-0.645,0.075,
2973,-0.635,0.09,
2974,-0.605,0.105,
2975,-0.6,0.085,
2976,-0.6,0.06,
2977,-0.615,0.04,
2978,-0.625,0.065,
2979,-0.61,0.085,
2980,-0.6,0.11,
2981,-0.595,0.095,
2982,-0.61,0.115,
2983,-0.615,0.1,
2984,-0.61,0.1,
2985,-0.585,0.11,
2986,-0.545,0.12,
2987,-0.53,0.105,
2988,-0.54,0.12,
2989,-0.54,0.105,
2990,-0.55,0.11,
2991,-0.51,0.12,
2992,-0.475,0.11,
2993,-0.465,0.075,
2994,-0.455,0.035,
2995,-0.435,0.0,
2996,-0.415,0.005,
2997,-0.39,0.04,
2998,-0.37,0.045,
2999,-0.37,0.06,
3000,-0.375,0.055,
3001,-0.38,0.04,
3002,-0.38,0.06,
3003,-0.365,0.055,
3004,-0.35,0.06,
3005,-0.37,0.04,
3006,-0.395,0.04,
3007,-0.43,0.065,
3008,-0.455,0.06,
3009,-0.505,0.085,
3010,-0.53,0.09,
3011,-0.555,0.065,
3012,-0.575,0.04,
3013,-0.59,0.01,
3014,-0.61,0.005,
3015,-0.63,0.03,
3016,-0.63,0.04,
3017,-0.64,0.05,
3018,-0.65,0.05,
3019,-0.655,0.045,
3020,-0.65,0.055,
3021,-0.64,0.06,
3022,-0.635,0.05,
3023,-0.64,0.025,
3024,-0.665,0.015,
3025,-0.68,0.025,
3026,-0.69,0.05,
3027,-0.675,0.07,
3028,-0.665,0.075,
3029,-0.665,0.06,
3030,-0.665,0.02,
3031,-0.665,0.02,
3032,-0.645,0.035,
3033,-0.645,0.045,
3034,-0.63,0.05,
3035,-0.65,0.065,
3036,-0.64,0.06,
3037,-0.64,0.065,
3038,-0.62,0.085,
3039,-0.605,0.08,
3040,-0.565,0.03,
3041,-0.545,-0.02,
3042,-0.485,-0.08,
3043,-0.4,-0.085,
3044,-0.275,-0.065,
3045,-0.08,-0.015,
3046,0.175,0.075,
3047,0.43,0.185,
3048,0.66,0.3,
3049,0.835,0.425,R
3050,0.915,0.555,
3051,0.825,0.705,
3052,0.56,0.785,
3053,0.14,0.775,
3054,-0.305,0.75,
3055,-0.675,0.725,
3056,-0.88,0.75,
3057,-0.885,0.815,
3058,-0.845,0.875,
3059,-0.83,0.925,
3060,-0.87,0.965,
3061,-0.925,1.005,
3062,-0.955,1.085,
3063,-0.98,1.15,
3064,-0.995,1.19,
3065,-1.02,1.22,
3066,-1.02,1.255,
3067,-1.02,1.295,
3068,-1.005,1.355,
3069,-1.0,1.405,
3070,-1.005,1.435,
3071,-1.025,1.4,
3072,-1.06,1.32,
3073,-1.085,1.175,
3074,-1.075,1.045,
3075,-1.025,0.9,
3076,-0.96,0.735,
3077,-0.925,0.55,
3078,-0.895,0.39,
3079,-0.855,0.245,
3080,-0.825,0.165,
3081,-0.75,0.125,
3082,-0.68,0.1,
3083,-0.615,0.05,
3084,-0.565,0.02,
3085,-0.53,-0.02,
3086,-0.505,-0.045,
3087,-0.485,-0.065,
3088,-0.46,-0.07,
3089,-0.455,-0.09,
3090,-0.465,-0.105,
3091,-0.46,-0.12,
3092,-0.445,-0.11,
3093,-0.425,-0.105,
3094,-0.39,-0.12,
3095,-0.38,-0.145,
3096,-0.395,-0.18,
3097,-0.39,-0.205,
3098,-0.39,-0.19,
3099,-0.385,-0.19,
3100,-0.37,-0.18,
3101,-0.365,-0.185,
3102,-0.345,-0.215,
3103,-0.345,-0.23,
3104,-0.33,-0.25,
3105,-0.32,-0.255,
3106,-0.3,-0.26,
3107,-0.29,-0.275,
3108,-0.285,-0.295,
3109,-0.29,-0.315,
3110,-0.295,-0.3,
3111,-0.28,-0.305,
3112,-0.25,-0.31,
3113,-0.235,-0.355,
3114,-0.23,-0.385,
3115,-0.225,-0.425,
3116,-0.21,-0.43,
3117,-0.19,-0.44,
3118,-0.175,-0.43,
3119,-0.16,-0.46,
3120,-0.165,-0.495,
3121,-0.145,-0.51,
3122,-0.14,-0.52,
3123,-0.095,-0.53,
3124,-0.06,-0.54,
3125,-0.035,-0.58,
3126,-0.035,-0.615,
3127,-0.04,-0.62,
3128,-0.035,-0.61,
3129,0.0,-0.595,
3130,0.02,-0.585,
3131,0.05,-0.58,
3132,0.055,-0.595,
3133,0.06,-0.64,
3134,0.065,-0.635,
3135,0.09,-0.6,
3136,0.11,-0.575,
3137,0.11,-0.565,
3138,0.1,-0.535,
3139,0.07,-0.525,
3140,0.075,-0.49,
3141,0.085,-0.45,
3142,0.095,-0.43,
3143,0.075,-0.42,
3144,0.04,-0.395,
3145,-0.005,-0.37,
3146,-0.02,-0.315,
3147,-0.03,-0.275,
3148,-0.04,-0.22,
3149,-0.065,-0.21,
3150,-0.085,-0.21,
3151,-0.115,-0.185,
3152,-0.13,-0.155,
3153,-0.145,-0.12,
3154,-0.155,-0.08,
3155,-0.175,-0.07,
3156,-0.205,-0.065,
3157,-0.235,-0.035,
3158,-0.25,-0.01,
3159,-0.27,0.0,
3160,-0.24,0.03,
3161,-0.26,0.025,
3162,-0.27,0.015,
3163,-0.305,0.03,
3164,-0.33,0.035,
3165,-0.33,0.065,
3166,-0.34,0.085,
3167,-0.335,0.075,
3168,-0.335,0.07,
3169,-0.34,0.055,
3170,-0.35,0.055,
3171,-0.34,0.065,
3172,-0.34,0.08,
3173,-0.34,0.085,
3174,-0.37,0.06,
3175,-0.385,0.07,
3176,-0.37,0.095,
3177,-0.335,0.105,
3178,-0.32,0.115,
3179,-0.315,0.09,
3180,-0.325,0.065,
3181,-0.335,0.06,
3182,-0.34,0.075,
3183,-0.315,0.09,
3184,-0.3,0.105,
3185,-0.29,0.1,
3186,-0.29,0.09,
3187,-0.305,0.08,
3188,-0.295,0.075,
3189,-0.285,0.08,
3190,-0.26,0.09,
3191,-0.265,0.09,
3192,-0.28,0.07,
3193,-0.295,0.065,
3194,-0.29,0.085,
3195,-0.285,0.085,
3196,-0.25,0.1,
3197,-0.25,0.105,
3198,-0.25,0.06,
3199,-0.26,0.055,
3200,-0.26,0.045,
3201,-0.255,0.055,
3202,-0.23,0.08,
3203,-0.23,0.08,
3204,-0.235,0.07,
3205,-0.265,0.06,
3206,-0.27,0.07,
3207,-0.265,0.09,
3208,-0.225,0.105,
3209,-0.21,0.07,
3210,-0.205,0.06,
3211,-0.225,0.035,
3212,-0.245,0.04,
3213,-0.235,0.065,
3214,-0.22,0.105,
3215,-0.225,0.115,
3216,-0.22,0.1,
3217,-0.22,0.105,
3218,-0.205,0.12,
3219,-0.185,0.095,
3220,-0.135,0.115,
3221,-0.125,0.105,
3222,-0.125,0.085,
3223,-0.11,0.09,
3224,-0.13,0.105,
3225,-0.1,0.1,
3226,-0.07,0.11,
3227,-0.03,0.08,
3228,-0.02,0.045,
3229,0.0,0.02,
3230,0.01,0.01,
3231,0.035,0.015,
3232,0.065,0.05,
3233,0.07,0.045,
3234,0.055,0.055,
3235,0.055,0.05,
3236,0.055,0.045,
3237,0.06,0.085,
3238,0.07,0.085,
3239,0.07,0.065,
3240,0.045,0.055,
3241,0.015,0.035,
3242,-0.035,0.06,
3243,-0.065,0.09,
3244,-0.1,0.095,
3245,-0.13,0.09,
3246,-0.14,0.065,
3247,-0.165,0.04,
3248,-0.185,0.045,
3249,-0.19,0.06,
3250,-0.19,0.075,
3251,-0.21,0.085,
3252,-0.215,0.085,
3253,-0.24,0.055,
3254,-0.25,0.06,
3255,-0.245,0.06,
3256,-0.24,0.065,
3257,-0.22,0.065,
3258,-0.26,0.055,
3259,-0.265,0.05,
3260,-0.285,0.055,
3261,-0.27,0.09,
3262,-0.25,0.1,
3263,-0.235,0.085,
3264,-0.225,0.05,
3265,-0.24,0.035,
3266,-0.245,0.065,
3267,-0.23,0.08,
3268,-0.215,0.11,
3269,-0.215,0.115,
3270,-0.205,0.13,
3271,-0.195,0.105,
3272,-0.155,0.08,
3273,-0.11,0.03,
3274,-0.005,-0.015,
3275,0.12,-0.02,
3276,0.3,-0.005,
3277,0.525,0.05,
3278,0.81,0.175,
3279,1.085,0.39,
3280,1.31,0.59,R
3281,1.38,0.75,
3282,1.265,0.85,
3283,0.915,0.895,
3284,0.415,0.905,
3285,-0.05,0.905,
3286,-0.395,0.925,
3287,-0.545,0.96,
3288,-0.56,1.01,
3289,-0.535,1.04,
3290,-0.51,1.12,
3291,-0.515,1.185,
3292,-0.55,1.255,
3293,-0.585,1.3,
3294,-0.63,1.33,
3295,-0.645,1.375,
3296,-0.68,1.43,
3297,-0.65,1.49,
3298,-0.62,1.535,
3299,-0.625,1.55,
3300,-0.635,1.515,
3301,-0.65,1.475,
3302,-0.675,1.375,
3303,-0.68,1.27,
3304,-0.665,1.13,
3305,-0.615,0.96,
3306,-0.58,0.765,
3307,-0.56,0.58,
3308,-0.5,0.42,
3309,-0.45,0.295,
3310,-0.365,0.225,
3311,-0.33,0.175,
3312,-0.275,0.105,
3313,-0.23,0.085,
3314,-0.185,0.06,
3315,-0.14,0.045,
3316,-0.09,0.02,
3317,-0.07,-0.01,
3318,-0.065,-0.075,
3319,-0.065,-0.095,
3320,-0.065,-0.1,
3321,-0.055,-0.075,
3322,-0.05,-0.075,
3323,-0.045,-0.085,
3324,-0.03,-0.12,
3325,-0.02,-0.14,
3326,-0.02,-0.15,
3327,0.005,-0.15,
3328,0.025,-0.145,
3329,0.02,-0.18,
3330,0.01,-0.19,
3331,0.0,-0.195,
3332,0.005,-0.195,
3333,0.0,-0.18,
3334,0.03,-0.18,
3335,0.06,-0.195,
3336,0.06,-0.22,
3337,0.05,-0.26,
3338,0.045,-0.265,
3339,0.065,-0.265,
3340,0.08,-0.27,
3341,0.09,-0.275,
3342,0.085,-0.305,
3343,0.085,-0.325,
3344,0.095,-0.345,
3345,0.125,-0.335,
3346,0.15,-0.365,
3347,0.16,-0.385,
3348,0.165,-0.435,
3349,0.16,-0.45,
3350,0.16,-0.47,
3351,0.19,-0.475,
3352,0.22,-0.465,
3353,0.255,-0.505,
3354,0.26,-0.54,
3355,0.27,-0.59,
3356,0.29,-0.59,
3357,0.3,-0.585,
3358,0.32,-0.595,
3359,0.335,-0.6,
3360,0.33,-0.615,
3361,0.335,-0.62,
3362,0.36,-0.605,
3363,0.38,-0.59,
3364,0.41,-0.575,
3365,0.405,-0.59,
3366,0.415,-0.595,
3367,0.4,-0.59,
3368,0.4,-0.57,
3369,0.405,-0.54,
3370,0.405,-0.48,
3371,0.405,-0.47,
3372,0.39,-0.45,
3373,0.365,-0.45,
3374,0.355,-0.425,
3375,0.33,-0.39,
3376,0.35,-0.355,
3377,0.325,-0.335,
3378,0.3,-0.325,
3379,0.25,-0.28,
3380,0.225,-0.24,
3381,0.215,-0.19,
3382,0.195,-0.135,
3383,0.165,-0.125,
3384,0.155,-0.13,
3385,0.1,-0.11,
3386,0.095,-0.1,
3387,0.095,-0.05,
3388,0.085,-0.015,
3389,0.065,0.005,
3390,0.035,0.01,
3391,0.005,0.02,
3392,-0.02,0.035,
3393,-0.03,0.065,
3394,-0.005,0.085,
3395,-0.015,0.085,
3396,-0.03,0.065,
3397,-0.05,0.055,
3398,-0.065,0.07,
3399,-0.06,0.085,
3400,-0.055,0.11,
3401,-0.09,0.105,
3402,-0.095,0.1,
3403,-0.125,0.105,
3404,-0.135,0.105,
3405,-0.13,0.135,
3406,-0.105,0.145,
3407,-0.105,0.125,
3408,-0.115,0.11,
3409,-0.16,0.09,
3410,-0.15,0.095,
3411,-0.15,0.12,
3412,-0.135,0.135,
3413,-0.14,0.13,
3414,-0.15,0.125,
3415,-0.165,0.12,
3416,-0.17,0.135,
3417,-0.155,0.16,
3418,-0.135,0.155,
3419,-0.135,0.16,
3420,-0.145,0.12,
3421,-0.15,0.115,
3422,-0.145,0.125,
3423,-0.15,0.125,
3424,-0.14,0.145,
3425,-0.145,0.14,
3426,-0.15,0.135,
3427,-0.165,0.125,
3428,-0.155,0.145,
3429,-0.16,0.16,
3430,-0.145,0.18,
3431,-0.125,0.155,
3432,-0.14,0.135,
3433,-0.155,0.11,
3434,-0.145,0.115,
3435,-0.14,0.135,
3436,-0.12,0.14,
3437,-0.12,0.155,
3438,-0.145,0.145,
3439,-0.145,0.135,
3440,-0.145,0.145,
3441,-0.12,0.155,
3442,-0.105,0.15,
3443,-0.105,0.125,
3444,-0.115,0.12,
3445,-0.13,0.12,
3446,-0.145,0.105,
3447,-0.12,0.105,
3448,-0.125,0.145,
3449,-0.13,0.14,
3450,-0.145,0.135,
3451,-0.145,0.125,
3452,-0.13,0.125,
3453,-0.115,0.15,
3454,-0.095,0.135,
3455,-0.09,0.13,
3456,-0.11,0.1,
3457,-0.12,0.095,
3458,-0.135,0.1,
3459,-0.14,0.13,
3460,-0.135,0.15,
3461,-0.13,0.145,
3462,-0.125,0.15,
3463,-0.145,0.125,
3464,-0.135,0.135,
3465,-0.125,0.135,
3466,-0.115,0.15,
3467,-0.105,0.14,
3468,-0.125,0.125,
3469,-0.135,0.125,
3470,-0.15,0.16,
3471,-0.14,0.19,
3472,-0.125,0.205,
3473,-0.12,0.19,
3474,-0.11,0.19,
3475,-0.095,0.18,
3476,-0.08,0.19,
3477,-0.05,0.19,
3478,-0.03,0.19,
3479,-0.035,0.16,
3480,-0.03,0.15,
3481,-0.03,0.13,
3482,-0.03,0.135,
3483,-0.01,0.155,
3484,0.015,0.17,
3485,0.03,0.15,
3486,0.045,0.115,
3487,0.04,0.085,
3488,0.07,0.065,
3489,0.1,0.085,
3490,0.135,0.095,
3491,0.12,0.075,
3492,0.12,0.06,
3493,0.105,0.075,
3494,0.105,0.09,
3495,0.1,0.125,
3496,0.12,0.155,
3497,0.125,0.15,
3498,0.115,0.13,
3499,0.09,0.12,
3500,0.05,0.095,
3501,0.035,0.105,
3502,0.02,0.12,
3503,-0.015,0.1,
3504,-0.085,0.1,
3505,-0.12,0.095,
3506,-0.15,0.105,
3507,-0.15,0.115,
3508,-0.14,0.125,
3509,-0.155,0.105,
3510,-0.165,0.085,
3511,-0.175,0.07,
3512,-0.205,0.075,
3513,-0.195,0.085,
3514,-0.2,0.1,
3515,-0.22,0.11,
3516,-0.235,0.105,
3517,-0.25,0.1,
3518,-0.23,0.1,
3519,-0.23,0.11,
3520,-0.21,0.125,
3521,-0.22,0.11,
3522,-0.23,0.1,
3523,-0.26,0.07,
3524,-0.26,0.095,
3525,-0.255,0.115,
3526,-0.26,0.135,
3527,-0.265,0.155,
3528,-0.26,0.115,
3529,-0.26,0.115,
3530,-0.26,0.115,
3531,-0.225,0.135,
3532,-0.22,0.15,
3533,-0.21,0.125,
3534,-0.22,0.13,
3535,-0.24,0.14,
3536,-0.24,0.195,
3537,-0.205,0.22,
3538,-0.165,0.19,
3539,-0.135,0.11,
3540,-0.065,0.02,
3541,0.025,-0.02,
3542,0.135,-0.005,
3543,0.325,0.015,
3544,0.55,0.065,
3545,0.765,0.165,
3546,0.99,0.32,
3547,1.2,0.515,
3548,1.365,0.71,R
3549,1.42,0.87,
3550,1.365,0.985,
3551,1.145,1.02,
3552,0.755,1.0,
3553,0.335,0.96,
3554,-0.065,0.96,
3555,-0.37,0.975,
3556,-0.53,1.01,
3557,-0.565,1.07,
3558,-0.53,1.115,
3559,-0.495,1.175,
3560,-0.495,1.235,
3561,-0.5,1.29,
3562,-0.515,1.335,
3563,-0.54,1.365,
3564,-0.575,1.405,
3565,-0.63,1.45,
3566,-0.665,1.5,
3567,-0.67,1.585,
3568,-0.65,1.66,
3569,-0.64,1.69,
3570,-0.635,1.7,
3571,-0.65,1.66,
3572,-0.655,1.575,
3573,-0.665,1.445,
3574,-0.675,1.295,
3575,-0.67,1.115,
3576,-0.64,0.91,
3577,-0.605,0.71,
3578,-0.55,0.52,
3579,-0.47,0.365,
3580,-0.405,0.25,
3581,-0.34,0.17,
3582,-0.275,0.13,
3583,-0.215,0.085,
3584,-0.18,0.065,
3585,-0.15,0.065,
3586,-0.14,0.06,
3587,-0.1,0.035,
3588,-0.1,-0.02,
3589,-0.085,-0.05,
3590,-0.1,-0.07,
3591,-0.085,-0.075,
3592,-0.05,-0.055,
3593,-0.045,-0.06,
3594,-0.07,-0.07,
3595,-0.07,-0.1,
3596,-0.07,-0.095,
3597,-0.05,-0.115,
3598,-0.015,-0.11,
3599,0.0,-0.145,
3600,-0.01,-0.155,
3601,-0.03,-0.18,
3602,-0.04,-0.175,
3603,-0.03,-0.145,
3604,0.0,-0.155,
3605,0.005,-0.185,
3606,0.02,-0.225,
3607,0.015,-0.26,
3608,0.025,-0.275,
3609,0.03,-0.265,
3610,0.045,-0.245,
3611,0.055,-0.265,
3612,0.055,-0.3,
3613,0.075,-0.35,
3614,0.085,-0.355,
3615,0.115,-0.37,
3616,0.145,-0.375,
3617,0.145,-0.415,
3618,0.135,-0.445,
3619,0.14,-0.485,
3620,0.14,-0.475,
3621,0.17,-0.47,
3622,0.205,-0.47,
3623,0.21,-0.5,
3624,0.225,-0.54,
3625,0.225,-0.575,
3626,0.225,-0.59,
3627,0.24,-0.57,
3628,0.27,-0.555,
3629,0.28,-0.565,
3630,0.28,-0.565,
3631,0.29,-0.58,
3632,0.295,-0.555,
3633,0.295,-0.535,
3634,0.32,-0.535,
3635,0.33,-0.52,
3636,0.345,-0.515,
3637,0.325,-0.495,
3638,0.31,-0.46,
3639,0.31,-0.42,
3640,0.305,-0.35,
3641,0.295,-0.335,
3642,0.255,-0.32,
3643,0.23,-0.3,
3644,0.175,-0.26,
3645,0.185,-0.21,
3646,0.15,-0.155,
3647,0.12,-0.115,
3648,0.09,-0.075,
3649,0.035,-0.055,
3650,0.025,-0.04,
3651,0.02,-0.01,
3652,0.005,0.025,
3653,-0.02,0.055,
3654,-0.07,0.055,
3655,-0.095,0.085,
3656,-0.125,0.1,
3657,-0.105,0.12,
3658,-0.1,0.115,
3659,-0.115,0.11,
3660,-0.135,0.1,
3661,-0.155,0.09,
3662,-0.16,0.12,
3663,-0.175,0.125,
3664,-0.175,0.155,
3665,-0.17,0.17,
3666,-0.18,0.165,
3667,-0.19,0.15,
3668,-0.195,0.155,
3669,-0.18,0.145,
3670,-0.185,0.165,
3671,-0.185,0.145,
3672,-0.2,0.135,
3673,-0.225,0.13,
3674,-0.235,0.155,
3675,-0.225,0.18,
3676,-0.21,0.19,
3677,-0.21,0.18,
3678,-0.2,0.165,
3679,-0.22,0.135,
3680,-0.2,0.135,
3681,-0.19,0.145,
3682,-0.19,0.16,
3683,-0.195,0.18,
3684,-0.2,0.165,
3685,-0.205,0.155,
3686,-0.195,0.165,
3687,-0.195,0.175,
3688,-0.16,0.175,
3689,-0.15,0.165,
3690,-0.18,0.175,
3691,-0.205,0.165,
3692,-0.22,0.185,
3693,-0.2,0.19,
3694,-0.175,0.2,
3695,-0.165,0.17,
3696,-0.165,0.15,
3697,-0.185,0.13,
3698,-0.2,0.145,
3699,-0.195,0.18,
3700,-0.185,0.2,
3701,-0.175,0.205,
3702,-0.19,0.19,
3703,-0.2,0.18,
3704,-0.2,0.16,
3705,-0.19,0.175,
3706,-0.18,0.19,
3707,-0.19,0.175,
3708,-0.21,0.16,
3709,-0.235,0.165,
3710,-0.245,0.18,
3711,-0.23,0.19,
3712,-0.225,0.195,
3713,-0.21,0.18,
3714,-0.22,0.16,
3715,-0.235,0.165,
3716,-0.24,0.155,
3717,-0.245,0.19,
3718,-0.24,0.215,
3719,-0.245,0.22,
3720,-0.25,0.215,
3721,-0.245,0.215,
3722,-0.245,0.215,
3723,-0.235,0.23,
3724,-0.19,0.24,
3725,-0.16,0.24,
3726,-0.16,0.225,
3727,-0.16,0.24,
3728,-0.15,0.26,
3729,-0.14,0.265,
3730,-0.13,0.25,
3731,-0.1,0.215,
3732,-0.095,0.185,
3733,-0.08,0.15,
3734,-0.055,0.145,
3735,-0.02,0.14,
3736,0.0,0.135,
3737,0.025,0.145,
3738,0.025,0.15,
3739,0.01,0.135,
3740,0.02,0.155,
3741,0.025,0.15,
3742,0.03,0.16,
3743,0.005,0.17,
3744,-0.01,0.15,
3745,-0.05,0.145,
3746,-0.09,0.145,
3747,-0.14,0.17,
3748,-0.19,0.185,
3749,-0.2,0.155,
3750,-0.225,0.125,
3751,-0.26,0.1,
3752,-0.28,0.095,
3753,-0.28,0.12,
3754,-0.295,0.14,
3755,-0.3,0.15,
3756,-0.32,0.14,
3757,-0.34,0.145,
3758,-0.345,0.13,
3759,-0.34,0.13,
3760,-0.33,0.135,
3761,-0.345,0.13,
3762,-0.36,0.125,
3763,-0.375,0.14,
3764,-0.385,0.165,
3765,-0.385,0.18,
3766,-0.375,0.195,
3767,-0.365,0.17,
3768,-0.365,0.155,
3769,-0.385,0.135,
3770,-0.385,0.14,
3771,-0.375,0.15,
3772,-0.365,0.17,
3773,-0.38,0.17,
3774,-0.39,0.18,
3775,-0.395,0.185,
3776,-0.39,0.175,
3777,-0.385,0.21,
3778,-0.34,0.23,
3779,-0.315,0.205,
3780,-0.325,0.135,
3781,-0.3,0.075,
3782,-0.245,0.045,
3783,-0.145,0.04,
3784,0.02,0.065,
3785,0.235,0.1,
3786,0.48,0.15,
3787,0.75,0.28,
3788,1.0,0.47,
3789,1.205,0.68,R
3790,1.275,0.84,
3791,1.105,0.945,
3792,0.705,0.98,
3793,0.16,0.945,
3794,-0.31,0.935,
3795,-0.625,0.945,
3796,-0.71,0.99,
3797,-0.66,1.045,
3798,-0.605,1.1,
3799,-0.615,1.155,
3800,-0.66,1.235,
3801,-0.7,1.31,
3802,-0.74,1.37,
3803,-0.755,1.405,
3804,-0.8,1.42,
3805,-0.825,1.45,
3806,-0.83,1.5,
3807,-0.815,1.565,
3808,-0.78,1.61,
3809,-0.8,1.635,
3810,-0.815,1.615,
3811,-0.86,1.575,
3812,-0.87,1.485,
3813,-0.865,1.375,
3814,-0.845,1.215,
3815,-0.79,1.03,
3816,-0.755,0.835,
3817,-0.73,0.615,
3818,-0.69,0.455,
3819,-0.635,0.335,
3820,-0.57,0.26,
3821,-0.52,0.215,
3822,-0.455,0.15,
3823,-0.4,0.125,
3824,-0.365,0.1,
3825,-0.33,0.06,
3826,-0.3,0.03,
3827,-0.295,-0.005,
3828,-0.29,-0.02,
3829,-0.285,-0.035,
3830,-0.29,-0.02,
3831,-0.27,-0.005,
3832,-0.25,-0.015,
3833,-0.24,-0.04,
3834,-0.26,-0.085,
3835,-0.245,-0.1,
3836,-0.25,-0.11,
3837,-0.25,-0.1,
3838,-0.225,-0.1,
3839,-0.225,-0.11,
3840,-0.23,-0.125,
3841,-0.255,-0.15,
3842,-0.25,-0.15,
3843,-0.215,-0.15,
3844,-0.18,-0.145,
3845,-0.16,-0.175,
3846,-0.17,-0.19,
3847,-0.175,-0.23,
3848,-0.18,-0.22,
3849,-0.165,-0.215,
3850,-0.145,-0.19,
3851,-0.13,-0.205,
3852,-0.135,-0.245,
3853,-0.155,-0.285,
3854,-0.125,-0.295,
3855,-0.11,-0.315,
3856,-0.085,-0.32,
3857,-0.075,-0.335,
3858,-0.1,-0.385,
3859,-0.095,-0.4,
3860,-0.085,-0.41,
3861,-0.05,-0.405,
3862,-0.035,-0.41,
3863,-0.01,-0.435,
3864,0.005,-0.49,
3865,-0.005,-0.525,
3866,0.01,-0.54,
3867,0.035,-0.505,
3868,0.06,-0.485,
3869,0.09,-0.51,
3870,0.09,-0.515,
3871,0.085,-0.555,
3872,0.11,-0.54,
3873,0.135,-0.545,
3874,0.16,-0.52,
3875,0.165,-0.51,
3876,0.16,-0.51,
3877,0.14,-0.49,
3878,0.135,-0.46,
3879,0.135,-0.425,
3880,0.15,-0.375,
3881,0.145,-0.38,
3882,0.125,-0.37,
3883,0.09,-0.36,
3884,0.07,-0.315,
3885,0.05,-0.26,
3886,0.045,-0.215,
3887,0.015,-0.19,
3888,-0.015,-0.155,
3889,-0.055,-0.145,
3890,-0.07,-0.125,
3891,-0.08,-0.09,
3892,-0.09,-0.055,
3893,-0.11,-0.035,
3894,-0.13,-0.02,
3895,-0.185,0.005,
3896,-0.215,0.035,
3897,-0.245,0.075,
3898,-0.235,0.09,
3899,-0.235,0.085,
3900,-0.25,0.075,
3901,-0.275,0.075,
3902,-0.3,0.085,
3903,-0.315,0.1,
3904,-0.315,0.135,
3905,-0.325,0.145,
3906,-0.335,0.145,
3907,-0.365,0.145,
3908,-0.37,0.135,
3909,-0.365,0.16,
3910,-0.36,0.165,
3911,-0.37,0.155,
3912,-0.38,0.135,
3913,-0.41,0.125,
3914,-0.425,0.12,
3915,-0.42,0.155,
3916,-0.41,0.18,
3917,-0.405,0.19,
3918,-0.41,0.175,
3919,-0.41,0.14,
3920,-0.415,0.155,
3921,-0.42,0.155,
3922,-0.385,0.165,
3923,-0.39,0.17,
3924,-0.395,0.155,
3925,-0.41,0.14,
3926,-0.41,0.145,
3927,-0.4,0.15,
3928,-0.38,0.155,
3929,-0.39,0.145,
3930,-0.385,0.125,
3931,-0.41,0.11,
3932,-0.415,0.115,
3933,-0.4,0.135,
3934,-0.385,0.16,
3935,-0.37,0.145,
3936,-0.35,0.13,
3937,-0.365,0.11,
3938,-0.37,0.12,
3939,-0.355,0.13,
3940,-0.365,0.13,
3941,-0.345,0.13,
3942,-0.37,0.135,
3943,-0.39,0.125,
3944,-0.395,0.13,
3945,-0.38,0.15,
3946,-0.355,0.18,
3947,-0.345,0.155,
3948,-0.345,0.13,
3949,-0.36,0.12,
3950,-0.38,0.105,
3951,-0.375,0.12,
3952,-0.38,0.145,
3953,-0.38,0.145,
3954,-0.385,0.135,
3955,-0.385,0.135,
3956,-0.38,0.16,
3957,-0.39,0.17,
3958,-0.365,0.155,
3959,-0.36,0.145,
3960,-0.375,0.14,
3961,-0.38,0.145,
3962,-0.385,0.17,
3963,-0.375,0.2,
3964,-0.375,0.225,
3965,-0.355,0.22,
3966,-0.335,0.195,
3967,-0.31,0.19,
3968,-0.29,0.195,
3969,-0.28,0.175,
3970,-0.27,0.175,
3971,-0.255,0.185,
3972,-0.245,0.175,
3973,-0.245,0.16,
3974,-0.22,0.14,
3975,-0.18,0.13,
3976,-0.14,0.13,
3977,-0.12,0.115,
3978,-0.115,0.1,
3979,-0.13,0.105,
3980,-0.135,0.13,
3981,-0.145,0.15,
3982,-0.145,0.165,
3983,-0.17,0.185,
3984,-0.165,0.15,
3985,-0.175,0.13,
3986,-0.195,0.12,
3987,-0.245,0.13,
3988,-0.29,0.145,
3989,-0.325,0.145,
3990,-0.365,0.13,
3991,-0.395,0.125,
3992,-0.415,0.135,
3993,-0.39,0.145,
3994,-0.39,0.13,
3995,-0.395,0.115,
3996,-0.4,0.095,
3997,-0.42,0.075,
3998,-0.44,0.095,
3999,-0.45,0.11,
4000,-0.47,0.13,
4001,-0.465,0.125,
4002,-0.47,0.12,
4003,-0.48,0.13,
4004,-0.48,0.105,
4005,-0.46,0.105,
4006,-0.45,0.115,
4007,-0.465,0.12,
4008,-0.485,0.12,
4009,-0.495,0.115,
4010,-0.5,0.13,
4011,-0.475,0.14,
4012,-0.45,0.16,
4013,-0.44,0.135,
4014,-0.445,0.115,
4015,-0.46,0.09,
4016,-0.45,0.105,
4017,-0.45,0.135,
4018,-0.425,0.195,
4019,-0.405,0.185,
4020,-0.395,0.145,
4021,-0.37,0.08,
4022,-0.325,0.035,
4023,-0.235,0.005,
4024,-0.115,0.01,
4025,0.065,0.025,
4026,0.26,0.05,
4027,0.485,0.115,
4028,0.73,0.26,
4029,0.965,0.45,
4030,1.12,0.585,R
4031,1.15,0.745,
4032,0.95,0.83,
4033,0.59,0.84,
4034,0.12,0.81,
4035,-0.305,0.795,
4036,-0.605,0.815,
4037,-0.72,0.875,
4038,-0.715,0.925,
4039,-0.66,0.995,
4040,-0.66,1.065,
4041,-0.685,1.105,
4042,-0.72,1.15,
4043,-0.76,1.19,
4044,-0.795,1.21,
4045,-0.825,1.235,
4046,-0.87,1.295,
4047,-0.85,1.37,
4048,-0.83,1.445,
4049,-0.815,1.49,
4050,-0.83,1.53,
4051,-0.845,1.525,
4052,-0.855,1.49,
4053,-0.855,1.445,
4054,-0.835,1.36,
4055,-0.85,1.245,
4056,-0.845,1.095,
4057,-0.835,0.945,
4058,-0.795,0.785,
4059,-0.735,0.65,
4060,-0.66,0.5,
4061,-0.61,0.36,
4062,-0.57,0.24,
4063,-0.515,0.17,
4064,-0.455,0.125,
4065,-0.395,0.11,
4066,-0.335,0.12,
4067,-0.31,0.09,
4068,-0.295,0.05,
4069,-0.285,0.035,
4070,-0.275,0.03,
4071,-0.245,0.01,
4072,-0.215,0.005,
4073,-0.2,-0.025,
4074,-0.19,-0.075,
4075,-0.215,-0.055,
4076,-0.205,-0.06,
4077,-0.19,-0.045,
4078,-0.175,-0.04,
4079,-0.15,-0.055,
4080,-0.155,-0.09,
4081,-0.155,-0.11,
4082,-0.175,-0.135,
4083,-0.14,-0.135,
4084,-0.12,-0.12,
4085,-0.12,-0.12,
4086,-0.12,-0.145,
4087,-0.115,-0.15,
4088,-0.105,-0.145,
4089,-0.09,-0.16,
4090,-0.065,-0.16,
4091,-0.04,-0.19,
4092,-0.045,-0.215,
4093,-0.06,-0.26,
4094,-0.06,-0.27,
4095,-0.035,-0.245,
4096,-0.005,-0.255,
4097,0.01,-0.265,
4098,0.02,-0.28,
4099,0.025,-0.32,
4100,0.04,-0.35,
4101,0.055,-0.365,
4102,0.08,-0.375,
4103,0.095,-0.39,
4104,0.095,-0.435,
4105,0.09,-0.46,
4106,0.115,-0.45,
4107,0.135,-0.45,
4108,0.18,-0.46,
4109,0.2,-0.465,
4110,0.22,-0.505,
4111,0.22,-0.53,
4112,0.21,-0.54,
4113,0.225,-0.53,
4114,0.25,-0.49,
4115,0.255,-0.51,
4116,0.25,-0.505,
4117,0.255,-0.49,
4118,0.285,-0.48,
4119,0.3,-0.455,
4120,0.32,-0.44,
4121,0.32,-0.425,
4122,0.305,-0.4,
4123,0.28,-0.4,
4124,0.26,-0.36,
4125,0.235,-0.31,
4126,0.23,-0.27,
4127,0.235,-0.22,
4128,0.215,-0.23,
4129,0.18,-0.215,
4130,0.155,-0.19,
4131,0.145,-0.135,
4132,0.135,-0.085,
4133,0.1,-0.06,
4134,0.07,-0.04,
4135,0.035,-0.03,
4136,0.01,0.025,
4137,0.01,0.05,
4138,0.01,0.09,
4139,-0.01,0.09,
4140,-0.015,0.09,
4141,-0.065,0.09,
4142,-0.085,0.13,
4143,-0.095,0.15,
4144,-0.095,0.18,
4145,-0.1,0.17,
4146,-0.11,0.18,
4147,-0.13,0.145,
4148,-0.145,0.17,
4149,-0.15,0.18,
4150,-0.14,0.195,
4151,-0.14,0.195,
4152,-0.15,0.195,
4153,-0.165,0.2,
4154,-0.17,0.215,
4155,-0.16,0.225,
4156,-0.14,0.23,
4157,-0.135,0.22,
4158,-0.15,0.195,
4159,-0.145,0.195,
4160,-0.175,0.18,
4161,-0.16,0.21,
4162,-0.16,0.225,
4163,-0.15,0.22,
4164,-0.17,0.21,
4165,-0.17,0.215,
4166,-0.155,0.19,
4167,-0.14,0.195,
4168,-0.12,0.2,
4169,-0.115,0.19,
4170,-0.145,0.18,
4171,-0.16,0.195,
4172,-0.15,0.19,
4173,-0.13,0.215,
4174,-0.115,0.22,
4175,-0.095,0.21,
4176,-0.11,0.185,
4177,-0.115,0.155,
4178,-0.11,0.165,
4179,-0.12,0.18,
4180,-0.1,0.205,
4181,-0.095,0.21,
4182,-0.095,0.205,
4183,-0.085,0.185,
4184,-0.085,0.185,
4185,-0.07,0.2,
4186,-0.055,0.185,
4187,-0.05,0.2,
4188,-0.07,0.175,
4189,-0.085,0.18,
4190,-0.105,0.2,
4191,-0.085,0.225,
4192,-0.07,0.235,
4193,-0.075,0.225,
4194,-0.06,0.19,
4195,-0.065,0.18,
4196,-0.065,0.18,
4197,-0.075,0.2,
4198,-0.055,0.215,
4199,-0.055,0.225,
4200,-0.075,0.21,
4201,-0.085,0.205,
4202,-0.095,0.205,
4203,-0.07,0.23,
4204,-0.06,0.235,
4205,-0.045,0.21,
4206,-0.05,0.2,
4207,-0.08,0.2,
4208,-0.075,0.225,
4209,-0.06,0.245,
4210,-0.04,0.28,
4211,-0.035,0.29,
4212,-0.03,0.28,
4213,-0.015,0.27,
4214,0.015,0.255,
4215,0.03,0.27,
4216,0.06,0.285,
4217,0.08,0.27,
4218,0.075,0.23,
4219,0.07,0.215,
4220,0.075,0.225,
4221,0.105,0.24,
4222,0.165,0.23,
4223,0.185,0.19,
4224,0.195,0.175,
4225,0.195,0.16,
4226,0.2,0.185,
4227,0.21,0.195,
4228,0.215,0.235,
4229,0.21,0.24,
4230,0.2,0.23,
4231,0.17,0.21,
4232,0.155,0.205,
4233,0.15,0.22,
4234,0.125,0.21,
4235,0.085,0.205,
4236,0.03,0.18,
4237,0.0,0.165,
4238,-0.035,0.19,
4239,-0.04,0.205,
4240,-0.045,0.23,
4241,-0.035,0.215,
4242,-0.06,0.18,
4243,-0.08,0.165,
4244,-0.095,0.17,
4245,-0.08,0.185,
4246,-0.1,0.19,
4247,-0.105,0.195,
4248,-0.125,0.18,
4249,-0.16,0.185,
4250,-0.16,0.195,
4251,-0.15,0.205,
4252,-0.125,0.2,
4253,-0.125,0.19,
4254,-0.12,0.155,
4255,-0.15,0.16,
4256,-0.16,0.175,
4257,-0.16,0.215,
4258,-0.12,0.235,
4259,-0.125,0.23,
4260,-0.12,0.205,
4261,-0.13,0.2,
4262,-0.13,0.195,
4263,-0.11,0.21,
4264,-0.09,0.21,
4265,-0.08,0.22,
4266,-0.1,0.245,
4267,-0.105,0.255,
4268,-0.1,0.25,
4269,-0.045,0.225,
4270,0.02,0.18,
4271,0.095,0.145,
4272,0.2,0.09,
4273,0.33,0.08,
4274,0.515,0.115,
4275,0.75,0.165,
4276,0.995,0.305,
4277,1.22,0.5,
4278,1.395,0.67,R
4279,1.48,0.82,
4280,1.42,0.955,
4281,1.23,1.065,
4282,0.885,1.08,
4283,0.44,1.035,
4284,0.02,1.025,
4285,-0.3,1.025,
4286,-0.47,1.06,
4287,-0.48,1.13,
4288,-0.43,1.215,
4289,-0.405,1.27,
4290,-0.405,1.315,
4291,-0.455,1.335,
4292,-0.495,1.38,
4293,-0.52,1.455,
4294,-0.535,1.5,
4295,-0.58,1.56,
4296,-0.595,1.625,
4297,-0.585,1.675,
4298,-0.585,1.71,
4299,-0.585,1.745,
4300,-0.565,1.705,
4301,-0.565,1.61,
4302,-0.57,1.445,
4303,-0.595,1.295,
4304,-0.575,1.125,
4305,-0.53,0.97,
4306,-0.48,0.795,
4307,-0.425,0.62,
4308,-0.39,0.46,
4309,-0.335,0.34,
4310,-0.295,0.28,
4311,-0.225,0.235,
4312,-0.15,0.2,
4313,-0.105,0.18,
4314,-0.085,0.135,
4315,-0.07,0.11,
4316,-0.065,0.1,
4317,-0.03,0.075,
4318,-0.005,0.07,
4319,0.02,0.045,
4320,0.025,0.02,
4321,0.025,-0.005,
4322,0.02,-0.025,
4323,0.025,-0.02,
4324,0.035,-0.005,
4325,0.05,-0.015,
4326,0.055,-0.025,
4327,0.055,-0.05,
4328,0.055,-0.055,
4329,0.08,-0.08,
4330,0.09,-0.08,
4331,0.095,-0.08,
4332,0.095,-0.1,
4333,0.075,-0.105,
4334,0.055,-0.12,
4335,0.09,-0.115,
4336,0.105,-0.11,
4337,0.13,-0.125,
4338,0.145,-0.165,
4339,0.14,-0.2,
4340,0.145,-0.215,
4341,0.155,-0.205,
4342,0.17,-0.205,
4343,0.175,-0.205,
4344,0.18,-0.24,
4345,0.185,-0.27,
4346,0.195,-0.285,
4347,0.225,-0.315,
4348,0.24,-0.33,
4349,0.265,-0.365,
4350,0.255,-0.39,
4351,0.255,-0.425,
4352,0.255,-0.42,
4353,0.285,-0.42,
4354,0.31,-0.41,
4355,0.335,-0.445,
4356,0.355,-0.465,
4357,0.355,-0.5,
4358,0.365,-0.51,
4359,0.385,-0.51,
4360,0.415,-0.495,
4361,0.425,-0.485,
4362,0.42,-0.48,
4363,0.42,-0.485,
4364,0.43,-0.47,
4365,0.44,-0.455,
4366,0.455,-0.425,
4367,0.46,-0.4,
4368,0.44,-0.39,
4369,0.41,-0.375,
4370,0.38,-0.335,
4371,0.37,-0.28,
4372,0.37,-0.245,
4373,0.36,-0.225,
4374,0.34,-0.2,
4375,0.305,-0.18,
4376,0.275,-0.15,
4377,0.235,-0.1,
4378,0.215,-0.04,
4379,0.18,0.0,
4380,0.145,0.025,
4381,0.11,0.04,
4382,0.09,0.06,
4383,0.07,0.085,
4384,0.075,0.12,
4385,0.04,0.13,
4386,0.01,0.125,
4387,-0.02,0.15,
4388,-0.04,0.16,
4389,-0.04,0.19,
4390,-0.03,0.205,
4391,-0.03,0.19,
4392,-0.055,0.18,
4393,-0.075,0.155,
4394,-0.09,0.16,
4395,-0.095,0.215,
4396,-0.11,0.22,
4397,-0.1,0.22,
4398,-0.105,0.21,
4399,-0.115,0.2,
4400,-0.11,0.195,
4401,-0.115,0.195,
4402,-0.1,0.23,
4403,-0.095,0.215,
4404,-0.115,0.21,
4405,-0.145,0.19,
4406,-0.155,0.215,
4407,-0.125,0.22,
4408,-0.115,0.23,
4409,-0.1,0.205,
4410,-0.095,0.195,
4411,-0.11,0.17,
4412,-0.12,0.185,
4413,-0.11,0.215,
4414,-0.115,0.25,
4415,-0.105,0.23,
4416,-0.1,0.21,
4417,-0.125,0.18,
4418,-0.12,0.195,
4419,-0.1,0.2,
4420,-0.095,0.22,
4421,-0.095,0.22,
4422,-0.115,0.21,
4423,-0.12,0.21,
4424,-0.105,0.195,
4425,-0.09,0.205,
4426,-0.075,0.2,
4427,-0.08,0.195,
4428,-0.08,0.185,
4429,-0.11,0.17,
4430,-0.115,0.19,
4431,-0.1,0.2,
4432,-0.095,0.22,
4433,-0.09,0.22,
4434,-0.085,0.2,
4435,-0.095,0.185,
4436,-0.1,0.195,
4437,-0.09,0.18,
4438,-0.085,0.195,
4439,-0.095,0.215,
4440,-0.12,0.205,
4441,-0.12,0.195,
4442,-0.115,0.21,
4443,-0.11,0.225,
4444,-0.095,0.215,
4445,-0.1,0.19,
4446,-0.105,0.2,
4447,-0.13,0.19,
4448,-0.14,0.205,
4449,-0.125,0.245,
4450,-0.11,0.26,
4451,-0.08,0.25,
4452,-0.09,0.255,
4453,-0.085,0.24,
4454,-0.08,0.245,
4455,-0.065,0.275,
4456,-0.03,0.29,
4457,-0.01,0.31,
4458,0.0,0.285,
4459,-0.01,0.255,
4460,0.015,0.255,
4461,0.035,0.26,
4462,0.065,0.24,
4463,0.09,0.2,
4464,0.09,0.185,
4465,0.1,0.175,
4466,0.12,0.175,
4467,0.125,0.225,
4468,0.16,0.23,
4469,0.175,0.215,
4470,0.16,0.2,
4471,0.135,0.19,
4472,0.115,0.185,
4473,0.105,0.215,
4474,0.085,0.23,
4475,0.06,0.245,
4476,0.0,0.23,
4477,-0.045,0.205,
4478,-0.08,0.185,
4479,-0.09,0.185,
4480,-0.09,0.2,
4481,-0.1,0.205,
4482,-0.145,0.185,
4483,-0.175,0.185,
4484,-0.19,0.19,
4485,-0.185,0.2,
4486,-0.18,0.2,
4487,-0.175,0.2,
4488,-0.19,0.17,
4489,-0.2,0.16,
4490,-0.22,0.155,
4491,-0.22,0.19,
4492,-0.22,0.22,
4493,-0.215,0.205,
4494,-0.24,0.2,
4495,-0.23,0.19,
4496,-0.24,0.185,
4497,-0.225,0.18,
4498,-0.215,0.205,
4499,-0.2,0.205,
4500,-0.23,0.19,
4501,-0.225,0.195,
4502,-0.23,0.215,
4503,-0.21,0.23,
4504,-0.18,0.25,
4505,-0.17,0.275,
4506,-0.165,0.225,
4507,-0.165,0.19,
4508,-0.14,0.125,
4509,-0.07,0.075,
4510,0.045,0.095,
4511,0.2,0.12,
4512,0.415,0.13,
4513,0.655,0.2,
4514,0.905,0.355,
4515,1.175,0.575,
4516,1.375,0.795,R
4517,1.39,0.97,
4518,1.145,1.05,
4519,0.655,1.05,
4520,0.11,1.025,
4521,-0.32,1.02,
4522,-0.535,1.06,
4523,-0.54,1.12,
4524,-0.485,1.19,
4525,-0.485,1.255,
4526,-0.52,1.33,
4527,-0.57,1.41,
4528,-0.605,1.485,
4529,-0.62,1.515,
4530,-0.68,1.55,
4531,-0.675,1.59,
4532,-0.66,1.655,
4533,-0.65,1.705,
4534,-0.635,1.735,
4535,-0.665,1.705,
4536,-0.71,1.6,
4537,-0.72,1.47,
4538,-0.71,1.315,
4539,-0.67,1.13,
4540,-0.61,0.94,
4541,-0.55,0.735,
4542,-0.52,0.54,
4543,-0.485,0.4,
4544,-0.435,0.325,
4545,-0.36,0.31,
4546,-0.28,0.275,
4547,-0.21,0.24,
4548,-0.17,0.18,
4549,-0.16,0.135,
4550,-0.16,0.115,
4551,-0.145,0.115,
4552,-0.115,0.11,
4553,-0.115,0.095,
4554,-0.115,0.07,
4555,-0.13,0.05,
4556,-0.11,0.05,
4557,-0.075,0.05,
4558,-0.06,0.045,
4559,-0.055,0.02,
4560,-0.065,-0.03,
4561,-0.07,-0.05,
4562,-0.07,-0.035,
4563,-0.055,-0.015,
4564,-0.045,0.005,
4565,-0.02,-0.02,
4566,-0.015,-0.055,
4567,-0.03,-0.085,
4568,-0.01,-0.105,
4569,0.0,-0.11,
4570,0.01,-0.105,
4571,0.015,-0.115,
4572,0.015,-0.13,
4573,0.01,-0.14,
4574,0.02,-0.165,
4575,0.04,-0.17,
4576,0.06,-0.195,
4577,0.08,-0.23,
4578,0.09,-0.27,
4579,0.085,-0.275,
4580,0.08,-0.27,
4581,0.085,-0.28,
4582,0.125,-0.275,
4583,0.13,-0.295,
4584,0.13,-0.335,
4585,0.145,-0.375,
4586,0.16,-0.39,
4587,0.19,-0.41,
4588,0.225,-0.415,
4589,0.225,-0.43,
4590,0.22,-0.445,
4591,0.215,-0.455,
4592,0.23,-0.46,
4593,0.255,-0.475,
4594,0.29,-0.465,
4595,0.31,-0.475,
4596,0.32,-0.485,
4597,0.315,-0.47,
4598,0.305,-0.435,
4599,0.295,-0.385,
4600,0.315,-0.35,
4601,0.31,-0.34,
4602,0.3,-0.325,
4603,0.285,-0.315,
4604,0.255,-0.28,
4605,0.225,-0.215,
4606,0.215,-0.16,
4607,0.19,-0.125,
4608,0.16,-0.1,
4609,0.125,-0.085,
4610,0.1,-0.065,
4611,0.085,-0.025,
4612,0.07,0.01,
4613,0.06,0.035,
4614,0.02,0.075,
4615,-0.005,0.09,
4616,-0.06,0.115,
4617,-0.04,0.135,
4618,-0.045,0.16,
4619,-0.06,0.16,
4620,-0.08,0.15,
4621,-0.1,0.155,
4622,-0.13,0.155,
4623,-0.14,0.195,
4624,-0.14,0.22,
4625,-0.16,0.225,
4626,-0.18,0.22,
4627,-0.19,0.205,
4628,-0.195,0.21,
4629,-0.19,0.22,
4630,-0.18,0.235,
4631,-0.175,0.225,
4632,-0.205,0.22,
4633,-0.22,0.225,
4634,-0.23,0.225,
4635,-0.235,0.24,
4636,-0.21,0.255,
4637,-0.22,0.23,
4638,-0.205,0.215,
4639,-0.215,0.185,
4640,-0.225,0.19,
4641,-0.225,0.21,
4642,-0.225,0.23,
4643,-0.205,0.245,
4644,-0.22,0.22,
4645,-0.225,0.205,
4646,-0.22,0.205,
4647,-0.19,0.205,
4648,-0.185,0.235,
4649,-0.185,0.215,
4650,-0.2,0.215,
4651,-0.235,0.205,
4652,-0.235,0.21,
4653,-0.215,0.215,
4654,-0.19,0.225,
4655,-0.18,0.2,
4656,-0.18,0.185,
4657,-0.2,0.165,
4658,-0.21,0.17,
4659,-0.215,0.21,
4660,-0.2,0.22,
4661,-0.2,0.255,
4662,-0.2,0.205,
4663,-0.21,0.195,
4664,-0.225,0.18,
4665,-0.21,0.18,
4666,-0.2,0.2,
4667,-0.2,0.19,
4668,-0.22,0.185,
4669,-0.245,0.195,
4670,-0.24,0.215,
4671,-0.235,0.215,
4672,-0.215,0.205,
4673,-0.205,0.21,
4674,-0.225,0.18,
4675,-0.235,0.165,
4676,-0.255,0.175,
4677,-0.255,0.205,
4678,-0.255,0.235,
4679,-0.235,0.23,
4680,-0.25,0.21,
4681,-0.265,0.195,
4682,-0.245,0.185,
4683,-0.235,0.19,
4684,-0.245,0.185,
4685,-0.24,0.215,
4686,-0.265,0.21,
4687,-0.265,0.23,
4688,-0.275,0.27,
4689,-0.255,0.29,
4690,-0.22,0.3,
4691,-0.19,0.265,
4692,-0.185,0.235,
4693,-0.18,0.24,
4694,-0.175,0.26,
4695,-0.16,0.285,
4696,-0.14,0.29,
4697,-0.12,0.27,
4698,-0.12,0.24,
4699,-0.105,0.21,
4700,-0.08,0.185,
4701,-0.05,0.18,
4702,-0.02,0.185,
4703,-0.01,0.19,
4704,0.0,0.185,
4705,-0.025,0.195,
4706,-0.02,0.21,
4707,-0.035,0.235,
4708,-0.01,0.245,
4709,-0.005,0.225,
4710,-0.035,0.2,
4711,-0.065,0.18,
4712,-0.11,0.2,
4713,-0.145,0.225,
4714,-0.185,0.245,
4715,-0.225,0.23,
4716,-0.24,0.195,
4717,-0.275,0.18,
4718,-0.275,0.175,
4719,-0.275,0.195,
4720,-0.28,0.205,
4721,-0.295,0.205,
4722,-0.34,0.195,
4723,-0.355,0.195,
4724,-0.36,0.195,
4725,-0.36,0.215,
4726,-0.33,0.2,
4727,-0.33,0.2,
4728,-0.34,0.19,
4729,-0.365,0.175,
4730,-0.385,0.185,
4731,-0.385,0.205,
4732,-0.375,0.23,
4733,-0.365,0.245,
4734,-0.37,0.21,
4735,-0.385,0.195,
4736,-0.39,0.21,
4737,-0.375,0.205,
4738,-0.355,0.21,
4739,-0.355,0.2,
4740,-0.385,0.185,
4741,-0.385,0.185,
4742,-0.39,0.21,
4743,-0.36,0.255,
4744,-0.33,0.27,
4745,-0.305,0.2,
4746,-0.27,0.11,
4747,-0.195,0.045,
4748,-0.1,0.04,
4749,0.07,0.065,
4750,0.29,0.13,
4751,0.555,0.24,
4752,0.82,0.4,
4753,1.04,0.56,
4754,1.2,0.755,R
4755,1.19,0.905,
4756,0.96,0.985,
4757,0.505,1.005,
4758,-0.02,0.975,
4759,-0.45,0.955,
4760,-0.685,0.97,
4761,-0.71,1.035,
4762,-0.645,1.1,
4763,-0.58,1.16,
4764,-0.605,1.2,
4765,-0.66,1.255,
4766,-0.71,1.31,
4767,-0.755,1.375,
4768,-0.8,1.425,
4769,-0.81,1.48,
4770,-0.81,1.535,
4771,-0.82,1.57,
4772,-0.8,1.62,
4773,-0.795,1.64,
4774,-0.81,1.635,
4775,-0.835,1.555,
4776,-0.87,1.435,
4777,-0.885,1.275,
4778,-0.87,1.085,
4779,-0.805,0.9,
4780,-0.735,0.725,
4781,-0.675,0.52,
4782,-0.615,0.35,
4783,-0.58,0.255,
4784,-0.53,0.22,
4785,-0.47,0.215,
4786,-0.42,0.205,
4787,-0.365,0.17,
4788,-0.34,0.12,
4789,-0.33,0.09,
4790,-0.32,0.07,
4791,-0.295,0.04,
4792,-0.295,0.055,
4793,-0.285,0.035,
4794,-0.285,0.025,
4795,-0.31,0.005,
4796,-0.29,-0.01,
4797,-0.275,0.0,
4798,-0.24,-0.015,
4799,-0.25,-0.035,
4800,-0.245,-0.055,
4801,-0.255,-0.08,
4802,-0.25,-0.08,
4803,-0.245,-0.05,
4804,-0.22,-0.055,
4805,-0.205,-0.07,
4806,-0.195,-0.1,
4807,-0.2,-0.12,
4808,-0.2,-0.125,
4809,-0.185,-0.14,
4810,-0.17,-0.15,
4811,-0.17,-0.16,
4812,-0.185,-0.17,
4813,-0.195,-0.205,
4814,-0.19,-0.22,
4815,-0.185,-0.23,
4816,-0.15,-0.255,
4817,-0.115,-0.295,
4818,-0.105,-0.345,
4819,-0.115,-0.365,
4820,-0.115,-0.38,
4821,-0.105,-0.36,
4822,-0.08,-0.355,
4823,-0.05,-0.39,
4824,-0.055,-0.445,
4825,-0.035,-0.465,
4826,-0.025,-0.49,
4827,-0.015,-0.485,
4828,0.025,-0.475,
4829,0.02,-0.485,
4830,0.035,-0.505,
4831,0.035,-0.52,
4832,0.045,-0.5,
4833,0.075,-0.475,
4834,0.11,-0.47,
4835,0.115,-0.475,
4836,0.1,-0.445,
4837,0.075,-0.415,
4838,0.065,-0.37,
4839,0.075,-0.335,
4840,0.08,-0.3,
4841,0.065,-0.28,
4842,0.025,-0.28,
4843,0.0,-0.275,
4844,-0.025,-0.235,
4845,-0.04,-0.175,
4846,-0.055,-0.12,
4847,-0.075,-0.085,
4848,-0.11,-0.06,
4849,-0.145,-0.045,
4850,-0.175,-0.035,
4851,-0.185,0.015,
4852,-0.2,0.03,
4853,-0.21,0.05,
4854,-0.255,0.06,
4855,-0.285,0.09,
4856,-0.315,0.105,
4857,-0.32,0.125,
4858,-0.3,0.15,
4859,-0.3,0.14,
4860,-0.315,0.135,
4861,-0.355,0.13,
4862,-0.375,0.14,
4863,-0.385,0.18,
4864,-0.4,0.2,
4865,-0.38,0.185,
4866,-0.385,0.165,
4867,-0.395,0.155,
4868,-0.385,0.16,
4869,-0.385,0.175,
4870,-0.375,0.18,
4871,-0.38,0.185,
4872,-0.4,0.185,
4873,-0.415,0.17,
4874,-0.425,0.18,
4875,-0.405,0.19,
4876,-0.385,0.195,
4877,-0.38,0.185,
4878,-0.385,0.17,
4879,-0.4,0.155,
4880,-0.395,0.165,
4881,-0.415,0.19,
4882,-0.405,0.215,
4883,-0.385,0.205,
4884,-0.375,0.18,
4885,-0.39,0.155,
4886,-0.395,0.135,
4887,-0.41,0.155,
4888,-0.385,0.2,
4889,-0.365,0.205,
4890,-0.37,0.19,
4891,-0.36,0.155,
4892,-0.37,0.14,
4893,-0.35,0.16,
4894,-0.345,0.16,
4895,-0.35,0.155,
4896,-0.36,0.15,
4897,-0.38,0.165,
4898,-0.385,0.175,
4899,-0.37,0.19,
4900,-0.36,0.2,
4901,-0.35,0.18,
4902,-0.365,0.155,
4903,-0.385,0.145,
4904,-0.405,0.145,
4905,-0.405,0.16,
4906,-0.38,0.195,
4907,-0.385,0.195,
4908,-0.385,0.185,
4909,-0.4,0.175,
4910,-0.395,0.19,
4911,-0.38,0.205,
4912,-0.36,0.22,
4913,-0.335,0.215,
4914,-0.355,0.205,
4915,-0.355,0.19,
4916,-0.355,0.235,
4917,-0.315,0.25,
4918,-0.285,0.26,
4919,-0.265,0.22,
4920,-0.26,0.185,
4921,-0.25,0.17,
4922,-0.24,0.15,
4923,-0.22,0.15,
4924,-0.175,0.155,
4925,-0.13,0.175,
4926,-0.125,0.15,
4927,-0.125,0.13,
4928,-0.13,0.15,
4929,-0.115,0.17,
4930,-0.105,0.195,
4931,-0.11,0.18,
4932,-0.145,0.165,
4933,-0.18,0.155,
4934,-0.21,0.17,
4935,-0.245,0.195,
4936,-0.26,0.195,
4937,-0.3,0.185,
4938,-0.335,0.135,
4939,-0.38,0.125,
4940,-0.375,0.135,
4941,-0.38,0.16,
4942,-0.385,0.19,
4943,-0.4,0.17,
4944,-0.42,0.155,
4945,-0.435,0.145,
4946,-0.44,0.135,
4947,-0.435,0.145,
4948,-0.435,0.155,
4949,-0.44,0.14,
4950,-0.455,0.14,
4951,-0.475,0.16,
4952,-0.475,0.165,
4953,-0.45,0.19,
4954,-0.435,0.19,
4955,-0.44,0.165,
4956,-0.455,0.145,
4957,-0.455,0.13,
4958,-0.465,0.155,
4959,-0.45,0.17,
4960,-0.445,0.2,
4961,-0.44,0.175,
4962,-0.44,0.165,
4963,-0.445,0.16,
4964,-0.43,0.155,
4965,-0.41,0.21,
4966,-0.39,0.21,
4967,-0.375,0.16,
4968,-0.36,0.085,
4969,-0.32,0.045,
4970,-0.22,0.06,
4971,-0.05,0.075,
4972,0.165,0.12,
4973,0.425,0.165,
4974,0.69,0.285,
4975,0.925,0.435,
4976,1.105,0.605,R
4977,1.165,0.765,
4978,1.035,0.9,
4979,0.69,0.915,
4980,0.2,0.88,
4981,-0.265,0.845,
4982,-0.585,0.84,
4983,-0.715,0.9,
4984,-0.67,0.965,
4985,-0.625,1.035,
4986,-0.625,1.105,
4987,-0.68,1.15,
4988,-0.735,1.2,
4989,-0.745,1.25,
4990,-0.775,1.305,
4991,-0.795,1.32,
4992,-0.805,1.345,
4993,-0.805,1.385,
4994,-0.805,1.47,
4995,-0.795,1.54,
4996,-0.785,1.59,
4997,-0.805,1.57,
4998,-0.825,1.5,
4999,-0.845,1.38,
5000,-0.84,1.265,
5001,-0.805,1.105,
5002,-0.75,0.93,
5003,-0.71,0.735,
5004,-0.675,0.56,
5005,-0.635,0.42,
5006,-0.585,0.315,
5007,-0.505,0.235,
5008,-0.44,0.21,
5009,-0.36,0.16,
5010,-0.315,0.1,
5011,-0.275,0.07,
5012,-0.255,0.05,
5013,-0.245,0.035,
5014,-0.225,0.035,
5015,-0.21,0.02,
5016,-0.2,0.005,
5017,-0.205,-0.01,
5018,-0.19,-0.03,
5019,-0.17,-0.045,
5020,-0.16,-0.055,
5021,-0.145,-0.065,
5022,-0.15,-0.08,
5023,-0.155,-0.095,
5024,-0.16,-0.095,
5025,-0.145,-0.085,
5026,-0.125,-0.085,
5027,-0.1,-0.115,
5028,-0.095,-0.145,
5029,-0.095,-0.165,
5030,-0.1,-0.165,
5031,-0.085,-0.17,
5032,-0.08,-0.155,
5033,-0.06,-0.17,
5034,-0.05,-0.19,
5035,-0.035,-0.225,
5036,-0.02,-0.26,
5037,0.0,-0.275,
5038,0.005,-0.275,
5039,0.035,-0.3,
5040,0.025,-0.34,
5041,0.02,-0.37,
5042,0.025,-0.38,
5043,0.08,-0.38,
5044,0.12,-0.4,
5045,0.15,-0.43,
5046,0.145,-0.47,
5047,0.15,-0.505,
5048,0.155,-0.505,
5049,0.18,-0.495,
5050,0.21,-0.48,
5051,0.24,-0.5,
5052,0.255,-0.535,
5053,0.26,-0.56,
5054,0.26,-0.555,
5055,0.28,-0.535,
5056,0.305,-0.495,
5057,0.315,-0.48,
5058,0.3,-0.455,
5059,0.29,-0.45,
5060,0.285,-0.425,
5061,0.305,-0.39,
5062,0.3,-0.355,
5063,0.275,-0.335,
5064,0.215,-0.31,
5065,0.18,-0.26,
5066,0.165,-0.205,
5067,0.15,-0.17,
5068,0.15,-0.125,
5069,0.14,-0.13,
5070,0.095,-0.115,
5071,0.07,-0.095,
5072,0.035,-0.05,
5073,0.02,0.005,
5074,0.01,0.03,
5075,0.0,0.06,
5076,-0.02,0.065,
5077,-0.04,0.065,
5078,-0.055,0.085,
5079,-0.07,0.11,
5080,-0.08,0.13,
5081,-0.1,0.14,
5082,-0.11,0.155,
5083,-0.135,0.155,
5084,-0.145,0.16,
5085,-0.12,0.16,
5086,-0.12,0.185,
5087,-0.13,0.17,
5088,-0.145,0.15,
5089,-0.165,0.165,
5090,-0.175,0.185,
5091,-0.17,0.2,
5092,-0.165,0.215,
5093,-0.14,0.205,
5094,-0.145,0.19,
5095,-0.15,0.165,
5096,-0.155,0.165,
5097,-0.17,0.18,
5098,-0.14,0.21,
5099,-0.14,0.225,
5100,-0.125,0.19,
5101,-0.15,0.175,
5102,-0.15,0.165,
5103,-0.115,0.175,
5104,-0.11,0.185,
5105,-0.1,0.185,
5106,-0.12,0.17,
5107,-0.115,0.165,
5108,-0.135,0.17,
5109,-0.12,0.195,
5110,-0.08,0.2,
5111,-0.075,0.18,
5112,-0.09,0.155,
5113,-0.095,0.14,
5114,-0.105,0.15,
5115,-0.1,0.175,
5116,-0.075,0.195,
5117,-0.085,0.19,
5118,-0.11,0.185,
5119,-0.1,0.17,
5120,-0.095,0.16,
5121,-0.08,0.155,
5122,-0.075,0.175,
5123,-0.07,0.16,
5124,-0.085,0.155,
5125,-0.12,0.17,
5126,-0.095,0.17,
5127,-0.085,0.18,
5128,-0.08,0.19,
5129,-0.07,0.17,
5130,-0.07,0.155,
5131,-0.105,0.16,
5132,-0.1,0.18,
5133,-0.095,0.205,
5134,-0.09,0.23,
5135,-0.085,0.22,
5136,-0.08,0.215,
5137,-0.075,0.215,
5138,-0.05,0.215,
5139,-0.04,0.225,
5140,-0.005,0.235,
5141,0.02,0.26,
5142,0.02,0.245,
5143,0.02,0.24,
5144,0.02,0.23,
5145,0.06,0.21,
5146,0.095,0.2,
5147,0.105,0.18,
5148,0.14,0.155,
5149,0.135,0.14,
5150,0.155,0.165,
5151,0.155,0.185,
5152,0.175,0.21,
5153,0.185,0.2,
5154,0.165,0.175,
5155,0.16,0.17,
5156,0.14,0.18,
5157,0.12,0.185,
5158,0.105,0.22,
5159,0.07,0.21,
5160,0.02,0.185,
5161,-0.04,0.185,
5162,-0.06,0.16,
5163,-0.075,0.17,
5164,-0.075,0.17,
5165,-0.09,0.17,
5166,-0.115,0.175,
5167,-0.15,0.165,
5168,-0.155,0.175,
5169,-0.155,0.185,
5170,-0.14,0.175,
5171,-0.135,0.175,
5172,-0.145,0.155,
5173,-0.15,0.155,
5174,-0.18,0.14,
5175,-0.17,0.17,
5176,-0.175,0.2,
5177,-0.18,0.2,
5178,-0.195,0.185,
5179,-0.185,0.18,
5180,-0.185,0.155,
5181,-0.18,0.165,
5182,-0.165,0.185,
5183,-0.16,0.195,
5184,-0.17,0.195,
5185,-0.18,0.2,
5186,-0.18,0.19,
5187,-0.165,0.22,
5188,-0.145,0.24,
5189,-0.125,0.25,
5190,-0.1,0.21,
5191,-0.1,0.145,
5192,-0.05,0.085,
5193,0.035,0.085,
5194,0.16,0.1,
5195,0.36,0.115,
5196,0.6,0.15,
5197,0.85,0.245,
5198,1.11,0.43,
5199,1.315,0.65,R
5200,1.445,0.84,
5201,1.37,0.99,
5202,1.075,1.05,
5203,0.62,1.05,
5204,0.15,1.02,
5205,-0.21,1.02,
5206,-0.415,1.03,
5207,-0.47,1.075,
5208,-0.46,1.1,
5209,-0.43,1.16,
5210,-0.455,1.23,
5211,-0.49,1.325,
5212,-0.51,1.375,
5213,-0.535,1.43,
5214,-0.565,1.465,
5215,-0.61,1.495,
5216,-0.625,1.545,
5217,-0.61,1.605,
5218,-0.58,1.675,
5219,-0.58,1.695,
5220,-0.595,1.695,
5221,-0.625,1.675,
5222,-0.655,1.62,
5223,-0.665,1.535,
5224,-0.65,1.43,
5225,-0.62,1.275,
5226,-0.605,1.075,
5227,-0.57,0.89,
5228,-0.515,0.7,
5229,-0.465,0.555,
5230,-0.425,0.44,
5231,-0.385,0.325,
5232,-0.305,0.265,
5233,-0.245,0.215,
5234,-0.185,0.185,
5235,-0.13,0.16,
5236,-0.095,0.14,
5237,-0.085,0.09,
5238,-0.075,0.075,
5239,-0.08,0.035,
5240,-0.07,0.02,
5241,-0.055,0.035,
5242,-0.04,0.04,
5243,-0.015,0.02,
5244,-0.015,-0.005,
5245,-0.015,-0.04,
5246,-0.01,-0.06,
5247,-0.005,-0.045,
5248,0.015,-0.035,
5249,0.025,-0.05,
5250,0.005,-0.06,
5251,0.005,-0.075,
5252,0.005,-0.09,
5253,0.02,-0.09,
5254,0.05,-0.1,
5255,0.065,-0.115,
5256,0.055,-0.14,
5257,0.045,-0.15,
5258,0.045,-0.17,
5259,0.04,-0.155,
5260,0.07,-0.16,
5261,0.105,-0.19,
5262,0.11,-0.225,
5263,0.105,-0.265,
5264,0.095,-0.27,
5265,0.12,-0.27,
5266,0.14,-0.28,
5267,0.15,-0.275,
5268,0.16,-0.315,
5269,0.165,-0.335,
5270,0.18,-0.34,
5271,0.21,-0.38,
5272,0.235,-0.39,
5273,0.26,-0.415,
5274,0.255,-0.44,
5275,0.255,-0.48,
5276,0.255,-0.465,
5277,0.28,-0.455,
5278,0.315,-0.44,
5279,0.355,-0.45,
5280,0.36,-0.49,
5281,0.36,-0.51,
5282,0.35,-0.515,
5283,0.365,-0.485,
5284,0.375,-0.44,
5285,0.385,-0.405,
5286,0.375,-0.395,
5287,0.35,-0.395,
5288,0.35,-0.37,
5289,0.35,-0.34,
5290,0.345,-0.315,
5291,0.355,-0.285,
5292,0.32,-0.27,
5293,0.28,-0.25,
5294,0.235,-0.205,
5295,0.22,-0.145,
5296,0.215,-0.1,
5297,0.2,-0.07,
5298,0.165,-0.06,
5299,0.125,-0.065,
5300,0.105,-0.03,
5301,0.085,0.0,
5302,0.06,0.05,
5303,0.065,0.065,
5304,0.02,0.085,
5305,-0.01,0.095,
5306,-0.02,0.115,
5307,-0.025,0.135,
5308,-0.04,0.155,
5309,-0.035,0.145,
5310,-0.06,0.135,
5311,-0.1,0.15,
5312,-0.12,0.165,
5313,-0.11,0.19,
5314,-0.11,0.225,
5315,-0.11,0.215,
5316,-0.135,0.195,
5317,-0.14,0.165,
5318,-0.15,0.165,
5319,-0.145,0.175,
5320,-0.13,0.195,
5321,-0.15,0.205,
5322,-0.155,0.19,
5323,-0.175,0.185,
5324,-0.19,0.18,
5325,-0.175,0.195,
5326,-0.16,0.195,
5327,-0.14,0.185,
5328,-0.15,0.17,
5329,-0.18,0.155,
5330,-0.195,0.19,
5331,-0.18,0.225,
5332,-0.16,0.23,
5333,-0.16,0.215,
5334,-0.16,0.185,
5335,-0.165,0.16,
5336,-0.17,0.16,
5337,-0.175,0.175,
5338,-0.165,0.18,
5339,-0.15,0.2,
5340,-0.17,0.185,
5341,-0.175,0.175,
5342,-0.175,0.185,
5343,-0.16,0.195,
5344,-0.14,0.175,
5345,-0.135,0.175,
5346,-0.155,0.14,
5347,-0.17,0.135,
5348,-0.185,0.16,
5349,-0.17,0.195,
5350,-0.155,0.215,
5351,-0.15,0.205,
5352,-0.15,0.16,
5353,-0.16,0.15,
5354,-0.175,0.14,
5355,-0.175,0.165,
5356,-0.155,0.195,
5357,-0.15,0.175,
5358,-0.175,0.185,
5359,-0.185,0.17,
5360,-0.165,0.18,
5361,-0.155,0.185,
5362,-0.135,0.185,
5363,-0.135,0.185,
5364,-0.15,0.16,
5365,-0.175,0.155,
5366,-0.195,0.17,
5367,-0.19,0.215,
5368,-0.175,0.225,
5369,-0.175,0.22,
5370,-0.17,0.19,
5371,-0.175,0.175,
5372,-0.165,0.185,
5373,-0.165,0.215,
5374,-0.145,0.26,
5375,-0.14,0.255,
5376,-0.145,0.265,
5377,-0.125,0.25,
5378,-0.11,0.245,
5379,-0.07,0.265,
5380,-0.035,0.275,
5381,-0.025,0.225,
5382,-0.035,0.205,
5383,-0.035,0.185,
5384,-0.025,0.19,
5385,0.01,0.185,
5386,0.045,0.18,
5387,0.075,0.175,
5388,0.1,0.155,
5389,0.085,0.135,
5390,0.085,0.15,
5391,0.085,0.17,
5392,0.095,0.185,
5393,0.09,0.18,
5394,0.075,0.18,
5395,0.04,0.17,
5396,0.04,0.17,
5397,0.01,0.195,
5398,-0.01,0.205,
5399,-0.06,0.18,
5400,-0.105,0.15,
5401,-0.145,0.13,
5402,-0.16,0.15,
5403,-0.17,0.165,
5404,-0.185,0.185,
5405,-0.18,0.18,
5406,-0.2,0.15,
5407,-0.215,0.15,
5408,-0.22,0.155,
5409,-0.23,0.165,
5410,-0.24,0.17,
5411,-0.235,0.17,
5412,-0.255,0.17,
5413,-0.275,0.18,
5414,-0.275,0.185,
5415,-0.255,0.2,
5416,-0.25,0.205,
5417,-0.255,0.18,
5418,-0.27,0.15,
5419,-0.295,0.155,
5420,-0.275,0.175,
5421,-0.275,0.2,
5422,-0.265,0.23,
5423,-0.27,0.22,
5424,-0.265,0.195,
5425,-0.28,0.185,
5426,-0.275,0.185,
5427,-0.255,0.22,
5428,-0.225,0.265,
5429,-0.225,0.245,
5430,-0.2,0.195,
5431,-0.18,0.135,
5432,-0.09,0.09,
5433,0.045,0.09,
5434,0.23,0.125,
5435,0.46,0.135,
5436,0.73,0.225,
5437,0.99,0.395,
5438,1.195,0.63,R
5439,1.325,0.845,
5440,1.26,1.02,
5441,0.965,1.065,
5442,0.52,1.04,
5443,0.025,0.995,
5444,-0.345,0.97,
5445,-0.535,1.005,
5446,-0.59,1.05,
5447,-0.545,1.13,
5448,-0.52,1.21,
5449,-0.535,1.265,
5450,-0.57,1.315,
5451,-0.59,1.37,
5452,-0.62,1.425,
5453,-0.64,1.45,
5454,-0.675,1.475,
5455,-0.7,1.52,
5456,-0.705,1.59,
5457,-0.695,1.68,
5458,-0.685,1.725,
5459,-0.68,1.72,
5460,-0.705,1.67,
5461,-0.725,1.565,
5462,-0.73,1.43,
5463,-0.715,1.305,
5464,-0.675,1.12,
5465,-0.66,0.94,
5466,-0.62,0.745,
5467,-0.58,0.555,
5468,-0.535,0.415,
5469,-0.455,0.325,
5470,-0.375,0.285,
5471,-0.295,0.23,
5472,-0.25,0.155,
5473,-0.21,0.13,
5474,-0.205,0.105,
5475,-0.2,0.1,
5476,-0.18,0.105,
5477,-0.16,0.09,
5478,-0.15,0.05,
5479,-0.14,0.025,
5480,-0.13,0.02,
5481,-0.1,-0.01,
5482,-0.09,-0.005,
5483,-0.08,-0.01,
5484,-0.1,-0.025,
5485,-0.11,-0.04,
5486,-0.13,-0.035,
5487,-0.1,-0.04,
5488,-0.085,-0.02,
5489,-0.06,-0.045,
5490,-0.065,-0.085,
5491,-0.07,-0.095,
5492,-0.08,-0.105,
5493,-0.09,-0.1,
5494,-0.075,-0.1,
5495,-0.05,-0.105,
5496,-0.05,-0.12,
5497,-0.055,-0.13,
5498,-0.045,-0.15,
5499,-0.035,-0.155,
5500,-0.01,-0.16,
5501,0.005,-0.2,
5502,0.01,-0.225,
5503,-0.02,-0.245,
5504,-0.01,-0.24,
5505,0.02,-0.245,
5506,0.04,-0.265,
5507,0.055,-0.29,
5508,0.075,-0.335,
5509,0.075,-0.36,
5510,0.08,-0.39,
5511,0.095,-0.395,
5512,0.115,-0.375,
5513,0.12,-0.4,
5514,0.115,-0.43,
5515,0.115,-0.445,
5516,0.13,-0.45,
5517,0.155,-0.46,
5518,0.19,-0.47,
5519,0.195,-0.5,
5520,0.205,-0.525,
5521,0.185,-0.535,
5522,0.185,-0.5,
5523,0.2,-0.46,
5524,0.225,-0.43,
5525,0.23,-0.43,
5526,0.23,-0.43,
5527,0.225,-0.425,
5528,0.22,-0.405,
5529,0.22,-0.375,
5530,0.215,-0.345,
5531,0.205,-0.34,
5532,0.165,-0.33,
5533,0.13,-0.295,
5534,0.11,-0.255,
5535,0.095,-0.2,
5536,0.085,-0.16,
5537,0.085,-0.17,
5538,0.055,-0.155,
5539,0.02,-0.125,
5540,-0.01,-0.095,
5541,-0.035,-0.03,
5542,-0.045,0.01,
5543,-0.065,0.04,
5544,-0.1,0.04,
5545,-0.125,0.05,
5546,-0.145,0.07,
5547,-0.165,0.09,
5548,-0.16,0.12,
5549,-0.185,0.14,
5550,-0.225,0.125,
5551,-0.26,0.145,
5552,-0.275,0.18,
5553,-0.28,0.19,
5554,-0.27,0.205,
5555,-0.285,0.2,
5556,-0.29,0.17,
5557,-0.315,0.165,
5558,-0.325,0.19,
5559,-0.345,0.2,
5560,-0.335,0.23,
5561,-0.34,0.235,
5562,-0.34,0.215,
5563,-0.355,0.2,
5564,-0.35,0.2,
5565,-0.34,0.21,
5566,-0.34,0.205,
5567,-0.345,0.205,
5568,-0.35,0.2,
5569,-0.385,0.19,
5570,-0.385,0.22,
5571,-0.36,0.235,
5572,-0.345,0.25,
5573,-0.32,0.215,
5574,-0.33,0.18,
5575,-0.355,0.175,
5576,-0.365,0.175,
5577,-0.355,0.195,
5578,-0.345,0.21,
5579,-0.345,0.215,
5580,-0.36,0.2,
5581,-0.375,0.2,
5582,-0.37,0.195,
5583,-0.355,0.205,
5584,-0.335,0.2,
5585,-0.35,0.195,
5586,-0.345,0.175,
5587,-0.355,0.165,
5588,-0.365,0.16,
5589,-0.36,0.195,
5590,-0.34,0.225,
5591,-0.33,0.21,
5592,-0.335,0.175,
5593,-0.345,0.165,
5594,-0.345,0.15,
5595,-0.345,0.165,
5596,-0.35,0.19,
5597,-0.34,0.18,
5598,-0.375,0.185,
5599,-0.38,0.195,
5600,-0.395,0.18,
5601,-0.385,0.195,
5602,-0.35,0.21,
5603,-0.34,0.195,
5604,-0.36,0.165,
5605,-0.395,0.15,
5606,-0.41,0.165,
5607,-0.4,0.185,
5608,-0.385,0.225,
5609,-0.365,0.24,
5610,-0.375,0.235,
5611,-0.38,0.225,
5612,-0.37,0.23,
5613,-0.33,0.23,
5614,-0.31,0.24,
5615,-0.295,0.25,
5616,-0.31,0.23,
5617,-0.3,0.24,
5618,-0.3,0.245,
5619,-0.285,0.235,
5620,-0.245,0.235,
5621,-0.215,0.21,
5622,-0.2,0.165,
5623,-0.185,0.12,
5624,-0.16,0.1,
5625,-0.14,0.13,
5626,-0.13,0.17,
5627,-0.135,0.185,
5628,-0.13,0.19,
5629,-0.15,0.19,
5630,-0.16,0.175,
5631,-0.175,0.19,
5632,-0.175,0.19,
5633,-0.175,0.17,
5634,-0.195,0.175,
5635,-0.245,0.175,
5636,-0.315,0.19,
5637,-0.345,0.18,
5638,-0.37,0.195,
5639,-0.365,0.2,
5640,-0.39,0.165,
5641,-0.41,0.15,
5642,-0.425,0.135,
5643,-0.435,0.145,
5644,-0.445,0.16,
5645,-0.45,0.17,
5646,-0.48,0.17,
5647,-0.5,0.16,
5648,-0.515,0.165,
5649,-0.51,0.185,
5650,-0.505,0.19,
5651,-0.5,0.18,
5652,-0.505,0.155,
5653,-0.525,0.14,
5654,-0.55,0.155,
5655,-0.53,0.165,
5656,-0.515,0.195,
5657,-0.5,0.2,
5658,-0.52,0.205,
5659,-0.545,0.18,
5660,-0.545,0.16,
5661,-0.525,0.185,
5662,-0.505,0.185,
5663,-0.53,0.175,
5664,-0.52,0.16,
5665,-0.54,0.165,
5666,-0.535,0.17,
5667,-0.53,0.195,
5668,-0.495,0.215,
5669,-0.48,0.235,
5670,-0.465,0.19,
5671,-0.46,0.13,
5672,-0.415,0.065,
5673,-0.35,0.02,
5674,-0.26,0.04,
5675,-0.1,0.055,
5676,0.075,0.08,
5677,0.3,0.14,
5678,0.57,0.255,
5679,0.82,0.425,
5680,0.99,0.575,R
5681,1.06,0.695,
5682,0.945,0.83,
5683,0.635,0.905,
5684,0.215,0.915,
5685,-0.215,0.895,
5686,-0.545,0.905,
5687,-0.745,0.885,
5688,-0.81,0.89,
5689,-0.785,0.94,
5690,-0.75,1.005,
5691,-0.745,1.055,
5692,-0.77,1.15,
5693,-0.81,1.175,
5694,-0.86,1.22,
5695,-0.915,1.27,
5696,-0.95,1.31,
5697,-0.935,1.365,
5698,-0.925,1.42,
5699,-0.89,1.455,
5700,-0.9,1.5,
5701,-0.92,1.525,
5702,-0.94,1.55,
5703,-0.945,1.56,
5704,-0.955,1.515,
5705,-0.97,1.395,
5706,-0.97,1.27,
5707,-0.965,1.13,
5708,-0.93,0.97,
5709,-0.87,0.815,
5710,-0.815,0.67,
5711,-0.775,0.51,
5712,-0.735,0.345,
5713,-0.71,0.23,
5714,-0.655,0.19,
5715,-0.59,0.195,
5716,-0.515,0.19,
5717,-0.465,0.15,
5718,-0.435,0.1,
5719,-0.435,0.05,
5720,-0.455,0.03,
5721,-0.43,0.025,
5722,-0.4,0.035,
5723,-0.39,0.03,
5724,-0.385,-0.01,
5725,-0.39,-0.005,
5726,-0.385,-0.01,
5727,-0.365,0.0,
5728,-0.355,-0.01,
5729,-0.33,-0.035,
5730,-0.325,-0.06,
5731,-0.34,-0.09,
5732,-0.345,-0.085,
5733,-0.335,-0.09,
5734,-0.31,-0.07,
5735,-0.31,-0.075,
5736,-0.305,-0.08,
5737,-0.32,-0.12,
5738,-0.295,-0.135,
5739,-0.285,-0.15,
5740,-0.265,-0.145,
5741,-0.255,-0.17,
5742,-0.265,-0.185,
5743,-0.285,-0.195,
5744,-0.275,-0.19,
5745,-0.27,-0.19,
5746,-0.245,-0.165,
5747,-0.225,-0.2,
5748,-0.22,-0.245,
5749,-0.23,-0.29,
5750,-0.22,-0.31,
5751,-0.2,-0.315,
5752,-0.18,-0.31,
5753,-0.17,-0.33,
5754,-0.17,-0.345,
5755,-0.155,-0.365,
5756,-0.15,-0.4,
5757,-0.12,-0.41,
5758,-0.085,-0.42,
5759,-0.06,-0.45,
5760,-0.055,-0.475,
5761,-0.055,-0.49,
5762,-0.05,-0.5,
5763,-0.045,-0.48,
5764,-0.02,-0.46,
5765,0.01,-0.46,
5766,0.03,-0.48,
5767,0.03,-0.495,
5768,0.035,-0.495,
5769,0.04,-0.465,
5770,0.045,-0.435,
5771,0.045,-0.42,
5772,0.015,-0.39,
5773,0.015,-0.37,
5774,0.0,-0.35,
5775,-0.005,-0.32,
5776,0.015,-0.29,
5777,0.0,-0.275,
5778,-0.02,-0.27,
5779,-0.065,-0.26,
5780,-0.1,-0.21,
5781,-0.115,-0.145,
5782,-0.14,-0.105,
5783,-0.15,-0.085,
5784,-0.175,-0.07,
5785,-0.195,-0.065,
5786,-0.22,-0.045,
5787,-0.23,-0.025,
5788,-0.24,0.015,
5789,-0.26,0.04,
5790,-0.305,0.05,
5791,-0.33,0.075,
5792,-0.34,0.1,
5793,-0.35,0.125,
5794,-0.35,0.145,
5795,-0.375,0.13,
5796,-0.39,0.13,
5797,-0.41,0.13,
5798,-0.425,0.15,
5799,-0.435,0.16,
5800,-0.44,0.19,
5801,-0.43,0.205,
5802,-0.455,0.195,
5803,-0.445,0.18,
5804,-0.455,0.18,
5805,-0.455,0.175,
5806,-0.45,0.195,
5807,-0.45,0.185,
5808,-0.46,0.195,
5809,-0.465,0.17,
5810,-0.485,0.195,
5811,-0.465,0.215,
5812,-0.455,0.21,
5813,-0.44,0.215,
5814,-0.445,0.195,
5815,-0.455,0.17,
5816,-0.47,0.165,
5817,-0.465,0.17,
5818,-0.445,0.2,
5819,-0.44,0.2,
5820,-0.45,0.205,
5821,-0.46,0.19,
5822,-0.465,0.18,
5823,-0.45,0.175,
5824,-0.43,0.185,
5825,-0.415,0.165,
5826,-0.43,0.145,
5827,-0.455,0.155,
5828,-0.46,0.175,
5829,-0.44,0.195,
5830,-0.44,0.205,
5831,-0.43,0.185,
5832,-0.43,0.17,
5833,-0.44,0.155,
5834,-0.435,0.13,
5835,-0.425,0.16,
5836,-0.415,0.195,
5837,-0.425,0.18,
5838,-0.435,0.195,
5839,-0.445,0.18,
5840,-0.445,0.2,
5841,-0.435,0.2,
5842,-0.42,0.195,
5843,-0.41,0.175,
5844,-0.425,0.175,
5845,-0.46,0.17,
5846,-0.46,0.185,
5847,-0.44,0.24,
5848,-0.435,0.25,
5849,-0.42,0.27,
5850,-0.4,0.23,
5851,-0.41,0.205,
5852,-0.385,0.205,
5853,-0.345,0.22,
5854,-0.33,0.23,
5855,-0.33,0.235,
5856,-0.325,0.22,
5857,-0.34,0.225,
5858,-0.31,0.205,
5859,-0.28,0.22,
5860,-0.245,0.205,
5861,-0.215,0.17,
5862,-0.2,0.14,
5863,-0.2,0.12,
5864,-0.185,0.135,
5865,-0.17,0.165,
5866,-0.16,0.2,
5867,-0.145,0.2,
5868,-0.165,0.19,
5869,-0.165,0.195,
5870,-0.17,0.185,
5871,-0.175,0.17,
5872,-0.175,0.19,
5873,-0.2,0.185,
5874,-0.24,0.18,
5875,-0.305,0.18,
5876,-0.35,0.185,
5877,-0.365,0.205,
5878,-0.365,0.205,
5879,-0.365,0.185,
5880,-0.38,0.14,
5881,-0.395,0.145,
5882,-0.415,0.145,
5883,-0.415,0.16,
5884,-0.42,0.175,
5885,-0.42,0.18,
5886,-0.44,0.175,
5887,-0.46,0.16,
5888,-0.47,0.175,
5889,-0.445,0.17,
5890,-0.425,0.175,
5891,-0.425,0.165,
5892,-0.45,0.16,
5893,-0.47,0.15,
5894,-0.485,0.17,
5895,-0.47,0.195,
5896,-0.455,0.225,
5897,-0.44,0.195,
5898,-0.45,0.17,
5899,-0.455,0.155,
5900,-0.45,0.15,
5901,-0.435,0.18,
5902,-0.42,0.18,
5903,-0.415,0.19,
5904,-0.42,0.185,
5905,-0.435,0.19,
5906,-0.415,0.23,
5907,-0.385,0.245,
5908,-0.345,0.215,
5909,-0.3,0.13,
5910,-0.26,0.07,
5911,-0.18,0.035,
5912,-0.04,0.06,
5913,0.18,0.105,
5914,0.445,0.18,
5915,0.705,0.3,
5916,0.945,0.455,
5917,1.13,0.59,R
5918,1.185,0.725,
5919,1.12,0.88,
5920,0.87,0.95,
5921,0.465,0.955,
5922,0.015,0.935,
5923,-0.375,0.9,
5924,-0.61,0.935,
5925,-0.71,0.96,
5926,-0.68,1.03,
5927,-0.63,1.085,
5928,-0.635,1.15,
5929,-0.685,1.165,
5930,-0.735,1.215,
5931,-0.765,1.285,
5932,-0.785,1.37,
5933,-0.8,1.41,
5934,-0.83,1.45,
5935,-0.855,1.48,
5936,-0.84,1.54,
5937,-0.825,1.58,
5938,-0.8,1.63,
5939,-0.805,1.645,
5940,-0.85,1.59,
5941,-0.865,1.5,
5942,-0.885,1.39,
5943,-0.88,1.275,
5944,-0.83,1.155,
5945,-0.77,0.96,
5946,-0.73,0.77,
5947,-0.7,0.57,
5948,-0.67,0.43,
5949,-0.615,0.335,
5950,-0.53,0.3,
5951,-0.465,0.255,
5952,-0.42,0.205,
5953,-0.38,0.175,
5954,-0.34,0.135,
5955,-0.295,0.12,
5956,-0.265,0.11,
5957,-0.245,0.07,
5958,-0.25,0.025,
5959,-0.255,0.01,
5960,-0.26,0.01,
5961,-0.23,0.025,
5962,-0.215,0.045,
5963,-0.205,0.035,
5964,-0.185,0.0,
5965,-0.195,-0.04,
5966,-0.185,-0.065,
5967,-0.175,-0.06,
5968,-0.175,-0.045,
5969,-0.17,-0.06,
5970,-0.16,-0.07,
5971,-0.17,-0.08,
5972,-0.175,-0.095,
5973,-0.15,-0.085,
5974,-0.115,-0.095,
5975,-0.105,-0.135,
5976,-0.1,-0.155,
5977,-0.12,-0.165,
5978,-0.11,-0.17,
5979,-0.105,-0.18,
5980,-0.08,-0.17,
5981,-0.075,-0.175,
5982,-0.055,-0.195,
5983,-0.065,-0.22,
5984,-0.045,-0.25,
5985,-0.025,-0.275,
5986,0.0,-0.275,
5987,0.0,-0.295,
5988,-0.005,-0.325,
5989,0.0,-0.34,
5990,-0.01,-0.35,
5991,0.03,-0.365,
5992,0.06,-0.36,
5993,0.08,-0.38,
5994,0.095,-0.415,
5995,0.1,-0.435,
5996,0.1,-0.47,
5997,0.12,-0.46,
5998,0.145,-0.44,
5999,0.16,-0.44,
6000,0.16,-0.455,
6001,0.165,-0.455,
6002,0.165,-0.455,
6003,0.175,-0.44,
6004,0.19,-0.435,
6005,0.205,-0.445,
6006,0.215,-0.425,
6007,0.21,-0.42,
6008,0.2,-0.39,
6009,0.19,-0.345,
6010,0.2,-0.315,
6011,0.195,-0.29,
6012,0.18,-0.275,
6013,0.16,-0.275,
6014,0.165,-0.25,
6015,0.15,-0.22,
6016,0.135,-0.195,
6017,0.12,-0.17,
6018,0.085,-0.145,
6019,0.05,-0.105,
6020,0.015,-0.07,
6021,0.015,-0.035,
6022,0.01,-0.005,
6023,0.01,0.01,
6024,-0.025,0.015,
6025,-0.04,0.035,
6026,-0.06,0.045,
6027,-0.09,0.08,
6028,-0.105,0.125,
6029,-0.12,0.14,
6030,-0.145,0.155,
6031,-0.155,0.165,
6032,-0.175,0.165,
6033,-0.15,0.17,
6034,-0.155,0.18,
6035,-0.155,0.17,
6036,-0.185,0.15,
6037,-0.215,0.16,
6038,-0.22,0.175,
6039,-0.225,0.22,
6040,-0.22,0.24,
6041,-0.21,0.21,
6042,-0.22,0.19,
6043,-0.255,0.175,
6044,-0.255,0.18,
6045,-0.235,0.19,
6046,-0.235,0.2,
6047,-0.24,0.21,
6048,-0.255,0.21,
6049,-0.275,0.205,
6050,-0.26,0.235,
6051,-0.245,0.23,
6052,-0.22,0.235,
6053,-0.205,0.215,
6054,-0.22,0.19,
6055,-0.245,0.185,
6056,-0.255,0.2,
6057,-0.24,0.235,
6058,-0.22,0.255,
6059,-0.21,0.25,
6060,-0.215,0.22,
6061,-0.23,0.205,
6062,-0.225,0.21,
6063,-0.215,0.215,
6064,-0.215,0.225,
6065,-0.205,0.215,
6066,-0.22,0.22,
6067,-0.24,0.205,
6068,-0.235,0.235,
6069,-0.225,0.24,
6070,-0.21,0.255,
6071,-0.195,0.235,
6072,-0.2,0.21,
6073,-0.21,0.185,
6074,-0.23,0.2,
6075,-0.215,0.23,
6076,-0.215,0.245,
6077,-0.21,0.255,
6078,-0.215,0.24,
6079,-0.225,0.23,
6080,-0.23,0.22,
6081,-0.215,0.22,
6082,-0.2,0.22,
6083,-0.205,0.225,
6084,-0.215,0.22,
6085,-0.235,0.215,
6086,-0.24,0.235,
6087,-0.235,0.255,
6088,-0.205,0.275,
6089,-0.205,0.27,
6090,-0.195,0.24,
6091,-0.21,0.22,
6092,-0.225,0.235,
6093,-0.21,0.245,
6094,-0.21,0.29,
6095,-0.185,0.3,
6096,-0.185,0.3,
6097,-0.18,0.28,
6098,-0.155,0.275,
6099,-0.13,0.305,
6100,-0.095,0.305,
6101,-0.07,0.29,
6102,-0.065,0.26,
6103,-0.07,0.215,
6104,-0.065,0.215,
6105,-0.045,0.23,
6106,-0.01,0.225,
6107,0.025,0.215,
6108,0.035,0.19,
6109,0.045,0.16,
6110,0.055,0.165,
6111,0.045,0.185,
6112,0.075,0.215,
6113,0.085,0.22,
6114,0.07,0.235,
6115,0.04,0.235,
6116,0.01,0.215,
6117,0.01,0.21,
6118,0.005,0.245,
6119,-0.01,0.235,
6120,-0.075,0.21,
6121,-0.125,0.175,
6122,-0.17,0.195,
6123,-0.18,0.185,
6124,-0.19,0.215,
6125,-0.195,0.225,
6126,-0.215,0.215,
6127,-0.23,0.185,
6128,-0.25,0.165,
6129,-0.25,0.18,
6130,-0.265,0.19,
6131,-0.265,0.2,
6132,-0.285,0.2,
6133,-0.305,0.19,
6134,-0.305,0.195,
6135,-0.31,0.21,
6136,-0.295,0.23,
6137,-0.285,0.215,
6138,-0.285,0.195,
6139,-0.305,0.175,
6140,-0.32,0.18,
6141,-0.33,0.215,
6142,-0.31,0.245,
6143,-0.3,0.24,
6144,-0.3,0.23,
6145,-0.31,0.195,
6146,-0.32,0.19,
6147,-0.29,0.205,
6148,-0.28,0.23,
6149,-0.27,0.25,
6150,-0.27,0.265,
6151,-0.28,0.255,
6152,-0.255,0.2,
6153,-0.18,0.155,
6154,-0.07,0.13,
6155,0.07,0.105,
6156,0.235,0.065,
6157,0.45,0.085,
6158,0.69,0.18,
6159,0.96,0.375,
6160,1.185,0.62,
6161,1.325,0.81,R
6162,1.305,0.96,
6163,1.06,1.01,
6164,0.625,1.035,
6165,0.13,1.005,
6166,-0.265,1.005,
6167,-0.54,1.025,
6168,-0.64,1.06,
6169,-0.635,1.125,
6170,-0.59,1.2,
6171,-0.57,1.285,
6172,-0.575,1.375,
6173,-0.595,1.395,
6174,-0.645,1.41,
6175,-0.7,1.415,
6176,-0.74,1.475,
6177,-0.74,1.57,
6178,-0.73,1.64,
6179,-0.7,1.685,
6180,-0.69,1.695,
6181,-0.705,1.66,
6182,-0.725,1.615,
6183,-0.725,1.52,
6184,-0.72,1.39,
6185,-0.71,1.23,
6186,-0.665,1.03,
6187,-0.65,0.875,
6188,-0.61,0.715,
6189,-0.57,0.565,
6190,-0.495,0.44,
6191,-0.42,0.34,
6192,-0.37,0.25,
6193,-0.33,0.18,
6194,-0.27,0.14,
6195,-0.225,0.135,
6196,-0.18,0.125,
6197,-0.18,0.105,
6198,-0.16,0.065,
6199,-0.16,0.02,
6200,-0.155,0.025,
6201,-0.125,0.015,
6202,-0.12,0.01,
6203,-0.11,-0.005,
6204,-0.105,-0.025,
6205,-0.12,-0.06,
6206,-0.115,-0.055,
6207,-0.095,-0.03,
6208,-0.075,-0.03,
6209,-0.06,-0.045,
6210,-0.06,-0.09,
6211,-0.07,-0.11,
6212,-0.085,-0.09,
6213,-0.07,-0.1,
6214,-0.045,-0.085,
6215,-0.055,-0.09,
6216,-0.055,-0.115,
6217,-0.055,-0.125,
6218,-0.055,-0.14,
6219,-0.02,-0.16,
6220,0.0,-0.16,
6221,0.005,-0.175,
6222,0.01,-0.2,
6223,-0.01,-0.245,
6224,-0.005,-0.255,
6225,0.01,-0.255,
6226,0.05,-0.24,
6227,0.065,-0.265,
6228,0.075,-0.32,
6229,0.07,-0.35,
6230,0.08,-0.385,
6231,0.105,-0.395,
6232,0.135,-0.41,
6233,0.15,-0.41,
6234,0.155,-0.43,
6235,0.165,-0.47,
6236,0.18,-0.48,
6237,0.21,-0.475,
6238,0.22,-0.495,
6239,0.245,-0.5,
6240,0.255,-0.53,
6241,0.245,-0.565,
6242,0.25,-0.54,
6243,0.255,-0.51,
6244,0.295,-0.49,
6245,0.3,-0.475,
6246,0.3,-0.485,
6247,0.295,-0.48,
6248,0.29,-0.485,
6249,0.295,-0.43,
6250,0.295,-0.39,
6251,0.285,-0.355,
6252,0.25,-0.345,
6253,0.22,-0.335,
6254,0.19,-0.295,
6255,0.195,-0.245,
6256,0.195,-0.21,
6257,0.185,-0.175,
6258,0.14,-0.17,
6259,0.1,-0.16,
6260,0.045,-0.125,
6261,0.04,-0.055,
6262,0.03,-0.01,
6263,0.015,0.015,
6264,-0.005,0.03,
6265,-0.04,0.025,
6266,-0.055,0.04,
6267,-0.07,0.065,
6268,-0.07,0.095,
6269,-0.09,0.135,
6270,-0.125,0.13,
6271,-0.165,0.13,
6272,-0.17,0.15,
6273,-0.17,0.18,
6274,-0.17,0.18,
6275,-0.175,0.18,
6276,-0.19,0.165,
6277,-0.22,0.17,
6278,-0.225,0.175,
6279,-0.24,0.2,
6280,-0.235,0.24,
6281,-0.235,0.235,
6282,-0.245,0.215,
6283,-0.26,0.17,
6284,-0.255,0.165,
6285,-0.255,0.195,
6286,-0.23,0.205,
6287,-0.245,0.21,
6288,-0.25,0.19,
6289,-0.265,0.2,
6290,-0.265,0.195,
6291,-0.25,0.215,
6292,-0.22,0.23,
6293,-0.22,0.205,
6294,-0.24,0.175,
6295,-0.255,0.15,
6296,-0.25,0.17,
6297,-0.26,0.185,
6298,-0.235,0.205,
6299,-0.225,0.215,
6300,-0.22,0.175,
6301,-0.225,0.155,
6302,-0.23,0.16,
6303,-0.21,0.17,
6304,-0.205,0.18,
6305,-0.2,0.18,
6306,-0.235,0.175,
6307,-0.23,0.175,
6308,-0.22,0.18,
6309,-0.215,0.2,
6310,-0.18,0.2,
6311,-0.17,0.17,
6312,-0.175,0.145,
6313,-0.205,0.14,
6314,-0.22,0.135,
6315,-0.205,0.17,
6316,-0.205,0.19,
6317,-0.18,0.195,
6318,-0.19,0.175,
6319,-0.205,0.15,
6320,-0.2,0.165,
6321,-0.205,0.16,
6322,-0.195,0.175,
6323,-0.19,0.17,
6324,-0.21,0.165,
6325,-0.23,0.155,
6326,-0.235,0.175,
6327,-0.21,0.21,
6328,-0.205,0.225,
6329,-0.195,0.205,
6330,-0.195,0.205,
6331,-0.2,0.205,
6332,-0.205,0.2,
6333,-0.2,0.23,
6334,-0.17,0.265,
6335,-0.135,0.275,
6336,-0.13,0.26,
6337,-0.115,0.26,
6338,-0.11,0.245,
6339,-0.085,0.24,
6340,-0.055,0.235,
6341,-0.03,0.2,
6342,-0.04,0.165,
6343,-0.05,0.155,
6344,-0.02,0.145,
6345,0.015,0.17,
6346,0.07,0.175,
6347,0.09,0.175,
6348,0.08,0.155,
6349,0.055,0.14,
6350,0.05,0.145,
6351,0.045,0.175,
6352,0.04,0.21,
6353,0.035,0.21,
6354,0.0,0.205,
6355,-0.04,0.17,
6356,-0.07,0.175,
6357,-0.105,0.185,
6358,-0.12,0.18,
6359,-0.14,0.155,
6360,-0.18,0.14,
6361,-0.22,0.145,
6362,-0.23,0.15,
6363,-0.235,0.165,
6364,-0.23,0.195,
6365,-0.23,0.19,
6366,-0.26,0.15,
6367,-0.26,0.12,
6368,-0.27,0.115,
6369,-0.265,0.135,
6370,-0.27,0.16,
6371,-0.28,0.165,
6372,-0.3,0.155,
6373,-0.325,0.15,
6374,-0.325,0.165,
6375,-0.315,0.165,
6376,-0.295,0.165,
6377,-0.29,0.16,
6378,-0.29,0.15,
6379,-0.31,0.125,
6380,-0.32,0.15,
6381,-0.325,0.18,
6382,-0.31,0.215,
6383,-0.295,0.2,
6384,-0.28,0.175,
6385,-0.285,0.15,
6386,-0.295,0.16,
6387,-0.26,0.18,
6388,-0.23,0.235,
6389,-0.22,0.22,
6390,-0.205,0.15,
6391,-0.16,0.09,
6392,-0.085,0.05,
6393,0.07,0.055,
6394,0.275,0.06,
6395,0.51,0.085,
6396,0.745,0.14,
6397,0.99,0.315,
6398,1.19,0.555,R
6399,1.3,0.775,
6400,1.24,0.95,
6401,0.955,1.02,
6402,0.48,1.0,
6403,-0.015,0.96,
6404,-0.395,0.93,
6405,-0.585,0.945,
6406,-0.605,1.025,
6407,-0.54,1.105,
6408,-0.53,1.17,
6409,-0.545,1.225,
6410,-0.6,1.275,
6411,-0.61,1.355,
6412,-0.63,1.395,
6413,-0.66,1.43,
6414,-0.705,1.47,
6415,-0.715,1.505,
6416,-0.705,1.575,
6417,-0.69,1.65,
6418,-0.69,1.695,
6419,-0.7,1.705,
6420,-0.715,1.625,
6421,-0.74,1.515,
6422,-0.735,1.355,
6423,-0.72,1.19,
6424,-0.68,1.025,
6425,-0.635,0.84,
6426,-0.6,0.65,
6427,-0.565,0.465,
6428,-0.515,0.34,
6429,-0.445,0.275,
6430,-0.345,0.25,
6431,-0.29,0.19,
6432,-0.24,0.14,
6433,-0.215,0.085,
6434,-0.21,0.06,
6435,-0.2,0.07,
6436,-0.17,0.085,
6437,-0.165,0.065,
6438,-0.145,0.035,
6439,-0.155,-0.015,
6440,-0.135,-0.025,
6441,-0.12,-0.025,
6442,-0.105,-0.015,
6443,-0.095,-0.045,
6444,-0.11,-0.07,
6445,-0.13,-0.08,
6446,-0.12,-0.08,
6447,-0.11,-0.07,
6448,-0.07,-0.05,
6449,-0.06,-0.085,
6450,-0.065,-0.135,
6451,-0.075,-0.165,
6452,-0.08,-0.155,
6453,-0.075,-0.15,
6454,-0.06,-0.125,
6455,-0.045,-0.145,
6456,-0.05,-0.18,
6457,-0.045,-0.21,
6458,-0.03,-0.235,
6459,-0.005,-0.225,
6460,0.015,-0.23,
6461,0.02,-0.265,
6462,0.015,-0.29,
6463,0.0,-0.31,
6464,0.0,-0.305,
6465,0.015,-0.305,
6466,0.045,-0.325,
6467,0.065,-0.36,
6468,0.07,-0.41,
6469,0.06,-0.45,
6470,0.065,-0.47,
6471,0.09,-0.46,
6472,0.115,-0.455,
6473,0.13,-0.465,
6474,0.13,-0.485,
6475,0.155,-0.525,
6476,0.16,-0.525,
6477,0.18,-0.53,
6478,0.21,-0.505,
6479,0.22,-0.525,
6480,0.21,-0.535,
6481,0.2,-0.54,
6482,0.2,-0.53,
6483,0.215,-0.495,
6484,0.23,-0.44,
6485,0.24,-0.445,
6486,0.235,-0.435,
6487,0.215,-0.435,
6488,0.185,-0.395,
6489,0.18,-0.335,
6490,0.165,-0.295,
6491,0.145,-0.265,
6492,0.115,-0.245,
6493,0.08,-0.235,
6494,0.065,-0.19,
6495,0.035,-0.16,
6496,0.035,-0.11,
6497,0.01,-0.095,
6498,-0.045,-0.065,
6499,-0.075,-0.045,
6500,-0.1,-0.005,
6501,-0.1,0.045,
6502,-0.1,0.07,
6503,-0.115,0.07,
6504,-0.14,0.07,
6505,-0.19,0.07,
6506,-0.205,0.08,
6507,-0.22,0.125,
6508,-0.22,0.175,
6509,-0.24,0.155,
6510,-0.255,0.155,
6511,-0.275,0.15,
6512,-0.28,0.16,
6513,-0.28,0.16,
6514,-0.275,0.17,
6515,-0.29,0.165,
6516,-0.32,0.16,
6517,-0.34,0.155,
6518,-0.34,0.18,
6519,-0.335,0.18,
6520,-0.31,0.19,
6521,-0.315,0.165,
6522,-0.32,0.15,
6523,-0.345,0.145,
6524,-0.355,0.17,
6525,-0.345,0.19,
6526,-0.32,0.205,
6527,-0.325,0.19,
6528,-0.315,0.185,
6529,-0.33,0.16,
6530,-0.335,0.155,
6531,-0.32,0.16,
6532,-0.31,0.16,
6533,-0.32,0.155,
6534,-0.33,0.16,
6535,-0.34,0.16,
6536,-0.335,0.17,
6537,-0.31,0.19,
6538,-0.3,0.18,
6539,-0.325,0.17,
6540,-0.32,0.14,
6541,-0.32,0.13,
6542,-0.32,0.14,
6543,-0.33,0.17,
6544,-0.305,0.18,
6545,-0.31,0.18,
6546,-0.315,0.15,
6547,-0.32,0.145,
6548,-0.32,0.145,
6549,-0.305,0.155,
6550,-0.305,0.135,
6551,-0.315,0.14,
6552,-0.335,0.16,
6553,-0.335,0.15,
6554,-0.33,0.16,
6555,-0.335,0.165,
6556,-0.305,0.165,
6557,-0.31,0.145,
6558,-0.33,0.135,
6559,-0.335,0.125,
6560,-0.35,0.14,
6561,-0.355,0.16,
6562,-0.36,0.185,
6563,-0.355,0.175,
6564,-0.365,0.18,
6565,-0.345,0.175,
6566,-0.345,0.18,
6567,-0.325,0.2,
6568,-0.315,0.215,
6569,-0.3,0.215,
6570,-0.285,0.215,
6571,-0.295,0.235,
6572,-0.265,0.225,
6573,-0.235,0.225,
6574,-0.21,0.22,
6575,-0.185,0.17,
6576,-0.195,0.16,
6577,-0.19,0.145,
6578,-0.185,0.145,
6579,-0.145,0.13,
6580,-0.105,0.155,
6581,-0.085,0.145,
6582,-0.075,0.145,
6583,-0.09,0.11,
6584,-0.1,0.115,
6585,-0.09,0.135,
6586,-0.09,0.16,
6587,-0.11,0.165,
6588,-0.145,0.155,
6589,-0.195,0.14,
6590,-0.24,0.135,
6591,-0.265,0.145,
6592,-0.29,0.145,
6593,-0.31,0.14,
6594,-0.335,0.12,
6595,-0.375,0.09,
6596,-0.405,0.115,
6597,-0.425,0.14,
6598,-0.4,0.155,
6599,-0.39,0.145,
6600,-0.4,0.125,
6601,-0.425,0.105,
6602,-0.47,0.095,
6603,-0.465,0.115,
6604,-0.455,0.14,
6605,-0.465,0.15,
6606,-0.47,0.13,
6607,-0.475,0.12,
6608,-0.48,0.12,
6609,-0.455,0.135,
6610,-0.45,0.145,
6611,-0.425,0.125,
6612,-0.455,0.115,
6613,-0.475,0.105,
6614,-0.485,0.12,
6615,-0.47,0.16,
6616,-0.455,0.175,
6617,-0.445,0.16,
6618,-0.445,0.13,
6619,-0.445,0.13,
6620,-0.435,0.16,
6621,-0.405,0.14,
6622,-0.365,0.11,
6623,-0.3,0.035,
6624,-0.215,-0.01,
6625,-0.075,0.01,
6626,0.145,0.03,
6627,0.44,0.11,
6628,0.725,0.265,
6629,0.965,0.455,
6630,1.105,0.615,R
6631,1.055,0.785,
6632,0.775,0.9,
6633,0.285,0.925,
6634,-0.245,0.88,
6635,-0.65,0.825,
6636,-0.79,0.82,
6637,-0.77,0.905,
6638,-0.71,1.02,
6639,-0.695,1.11,
6640,-0.73,1.185,
6641,-0.775,1.23,
6642,-0.825,1.255,
6643,-0.845,1.295,
6644,-0.895,1.305,
6645,-0.885,1.385,
6646,-0.86,1.455,
6647,-0.855,1.53,
6648,-0.88,1.565,
6649,-0.905,1.56,
6650,-0.915,1.495,
6651,-0.93,1.385,
6652,-0.925,1.255,
6653,-0.885,1.065,
6654,-0.84,0.88,
6655,-0.795,0.69,
6656,-0.78,0.53,
6657,-0.715,0.41,
6658,-0.665,0.3,
6659,-0.59,0.23,
6660,-0.525,0.165,
6661,-0.475,0.115,
6662,-0.43,0.085,
6663,-0.405,0.06,
6664,-0.385,0.065,
6665,-0.38,0.035,
6666,-0.375,0.035,
6667,-0.385,-0.005,
6668,-0.365,-0.01,
6669,-0.335,-0.03,
6670,-0.33,-0.03,
6671,-0.31,-0.04,
6672,-0.315,-0.085,
6673,-0.32,-0.095,
6674,-0.335,-0.09,
6675,-0.33,-0.07,
6676,-0.33,-0.05,
6677,-0.3,-0.08,
6678,-0.305,-0.125,
6679,-0.305,-0.14,
6680,-0.3,-0.155,
6681,-0.29,-0.15,
6682,-0.28,-0.145,
6683,-0.26,-0.145,
6684,-0.255,-0.175,
6685,-0.265,-0.195,
6686,-0.255,-0.215,
6687,-0.25,-0.24,
6688,-0.225,-0.225,
6689,-0.2,-0.26,
6690,-0.205,-0.28,
6691,-0.225,-0.31,
6692,-0.23,-0.32,
6693,-0.22,-0.335,
6694,-0.175,-0.32,
6695,-0.155,-0.365,
6696,-0.16,-0.425,
6697,-0.145,-0.46,
6698,-0.165,-0.475,
6699,-0.135,-0.465,
6700,-0.12,-0.455,
6701,-0.12,-0.465,
6702,-0.12,-0.495,
6703,-0.125,-0.52,
6704,-0.115,-0.525,
6705,-0.075,-0.525,
6706,-0.065,-0.51,
6707,-0.03,-0.52,
6708,-0.045,-0.52,
6709,-0.06,-0.525,
6710,-0.055,-0.48,
6711,-0.035,-0.445,
6712,-0.01,-0.405,
6713,-0.01,-0.415,
6714,-0.03,-0.405,
6715,-0.055,-0.395,
6716,-0.085,-0.34,
6717,-0.11,-0.305,
6718,-0.12,-0.26,
6719,-0.135,-0.22,
6720,-0.17,-0.215,
6721,-0.19,-0.185,
6722,-0.22,-0.17,
6723,-0.23,-0.125,
6724,-0.225,-0.09,
6725,-0.265,-0.07,
6726,-0.305,-0.055,
6727,-0.35,-0.035,
6728,-0.375,0.015,
6729,-0.375,0.04,
6730,-0.38,0.08,
6731,-0.39,0.07,
6732,-0.415,0.06,
6733,-0.455,0.04,
6734,-0.465,0.08,
6735,-0.47,0.12,
6736,-0.47,0.15,
6737,-0.48,0.15,
6738,-0.495,0.13,
6739,-0.515,0.125,
6740,-0.525,0.13,
6741,-0.525,0.135,
6742,-0.505,0.15,
6743,-0.51,0.15,
6744,-0.525,0.135,
6745,-0.56,0.16,
6746,-0.55,0.18,
