,MLII,V1,symbol
0,-0.695,-0.955,
1,-0.695,-0.955,
2,-0.695,-0.955,
3,-0.695,-0.955,
4,-0.695,-0.955,
5,-0.695,-0.955,
6,-0.695,-0.955,
7,-0.695,-0.925,
8,-0.695,-0.905,
9,-0.695,-0.86,
10,-0.7,-0.83,
11,-0.71,-0.81,
12,-0.7,-0.795,
13,-0.7,-0.78,
14,-0.685,-0.78,
15,-0.68,-0.765,
16,-0.67,-0.77,
17,-0.67,-0.75,
18,-0.665,-0.765,
19,-0.665,-0.78,
20,-0.67,-0.76,
21,-0.675,-0.765,
22,-0.68,-0.76,
23,-0.695,-0.745,
24,-0.695,-0.74,
25,-0.695,-0.74,
26,-0.69,-0.73,
27,-0.695,-0.735,
28,-0.705,-0.75,
29,-0.705,-0.75,
30,-0.73,-0.76,
31,-0.745,-0.765,
32,-0.75,-0.765,
33,-0.77,-0.79,
34,-0.765,-0.77,
35,-0.79,-0.775,
36,-0.77,-0.755,
37,-0.78,-0.765,
38,-0.785,-0.77,
39,-0.79,-0.78,
40,-0.8,-0.785,
41,-0.815,-0.795,
42,-0.84,-0.805,
43,-0.86,-0.81,
44,-0.875,-0.825,
45,-0.895,-0.825,
46,-0.905,-0.825,
47,-0.885,-0.82,
48,-0.885,-0.81,
49,-0.87,-0.795,
50,-0.86,-0.79,
51,-0.855,-0.795,
52,-0.865,-0.81,
53,-0.875,-0.815,
54,-0.89,-0.83,
55,-0.91,-0.84,
56,-0.925,-0.855,
57,-0.94,-0.86,
58,-0.94,-0.85,
59,-0.95,-0.855,
60,-0.955,-0.85,
61,-0.965,-0.85,
62,-0.98,-0.835,
63,-0.975,-0.845,
64,-0.985,-0.86,
65,-1.005,-0.86,
66,-1.025,-0.89,
67,-1.04,-0.9,
68,-1.045,-0.915,
69,-1.065,-0.94,
70,-1.08,-0.935,
71,-1.1,-0.95,
72,-1.105,-0.94,
73,-1.12,-0.96,
74,-1.115,-0.97,
75,-1.115,-0.975,
76,-1.135,-1.005,
77,-1.145,-1.015,
78,-1.165,-1.025,
79,-1.165,-1.045,
80,-1.17,-1.065,
81,-1.175,-1.08,
82,-1.14,-1.075,
83,-1.125,-1.07,
84,-1.09,-1.075,
85,-1.075,-1.06,
86,-1.04,-1.06,
87,-1.01,-1.055,
88,-1.0,-1.045,
89,-0.96,-1.035,
90,-0.935,-1.025,
91,-0.92,-1.015,
92,-0.895,-1.005,
93,-0.865,-1.0,
94,-0.84,-0.975,
95,-0.83,-0.965,
96,-0.8,-0.945,
97,-0.765,-0.92,
98,-0.735,-0.9,
99,-0.695,-0.885,
100,-0.68,-0.885,
101,-0.66,-0.86,
102,-0.65,-0.87,
103,-0.655,-0.87,
104,-0.625,-0.86,
105,-0.62,-0.865,
106,-0.615,-0.85,
107,-0.62,-0.84,
108,-0.61,-0.835,
109,-0.605,-0.83,
110,-0.595,-0.83,
111,-0.595,-0.825,
112,-0.59,-0.83,
113,-0.59,-0.84,
114,-0.615,-0.84,
115,-0.62,-0.86,
116,-0.625,-0.86,
117,-0.625,-0.85,
118,-0.615,-0.855,
119,-0.625,-0.86,
120,-0.62,-0.84,
121,-0.61,-0.835,
122,-0.615,-0.83,
123,-0.595,-0.82,
124,-0.6,-0.835,
125,-0.6,-0.825,
126,-0.61,-0.84,
127,-0.6,-0.84,
128,-0.605,-0.84,
129,-0.6,-0.845,
130,-0.605,-0.825,
131,-0.585,-0.83,
132,-0.575,-0.82,
133,-0.56,-0.795,
134,-0.56,-0.785,
135,-0.545,-0.78,
136,-0.555,-0.785,
137,-0.565,-0.775,
138,-0.57,-0.78,
139,-0.565,-0.795,
140,-0.555,-0.805,
141,-0.56,-0.795,
142,-0.555,-0.79,
143,-0.545,-0.795,
144,-0.55,-0.78,
145,-0.545,-0.77,
146,-0.54,-0.76,
147,-0.525,-0.755,
148,-0.53,-0.765,
149,-0.52,-0.765,
150,-0.505,-0.77,
151,-0.52,-0.78,
152,-0.535,-0.785,
153,-0.535,-0.775,
154,-0.525,-0.765,
155,-0.52,-0.76,
156,-0.505,-0.74,
157,-0.49,-0.73,
158,-0.48,-0.72,
159,-0.47,-0.72,
160,-0.47,-0.725,
161,-0.475,-0.725,
162,-0.485,-0.745,
163,-0.495,-0.755,
164,-0.505,-0.775,
165,-0.51,-0.77,
166,-0.51,-0.77,
167,-0.515,-0.76,
168,-0.52,-0.76,
169,-0.515,-0.76,
170,-0.515,-0.755,
171,-0.52,-0.755,
172,-0.53,-0.775,
173,-0.53,-0.765,
174,-0.54,-0.79,
175,-0.545,-0.8,
176,-0.55,-0.8,
177,-0.565,-0.81,
178,-0.565,-0.795,
179,-0.575,-0.795,
180,-0.57,-0.795,
181,-0.56,-0.785,
182,-0.565,-0.785,
183,-0.55,-0.78,
184,-0.555,-0.805,
185,-0.56,-0.795,
186,-0.575,-0.81,
187,-0.59,-0.81,
188,-0.585,-0.83,+
189,-0.595,-0.825,
190,-0.615,-0.815,
191,-0.615,-0.815,
192,-0.605,-0.81,
193,-0.595,-0.795,
194,-0.585,-0.785,
195,-0.57,-0.795,
196,-0.575,-0.805,
197,-0.57,-0.8,
198,-0.585,-0.815,
199,-0.59,-0.835,
200,-0.595,-0.835,
201,-0.595,-0.84,
202,-0.585,-0.83,
203,-0.575,-0.83,
204,-0.56,-0.83,
205,-0.56,-0.835,
206,-0.565,-0.825,
207,-0.555,-0.84,
208,-0.555,-0.835,
209,-0.56,-0.84,
210,-0.575,-0.85,
211,-0.585,-0.855,
212,-0.585,-0.865,
213,-0.6,-0.86,
214,-0.605,-0.855,
215,-0.59,-0.86,
216,-0.59,-0.85,
217,-0.585,-0.85,
218,-0.56,-0.84,
219,-0.56,-0.845,
220,-0.545,-0.84,
221,-0.545,-0.86,
222,-0.535,-0.86,
223,-0.53,-0.855,
224,-0.545,-0.87,
225,-0.55,-0.875,
226,-0.555,-0.88,
227,-0.555,-0.87,
228,-0.55,-0.865,
229,-0.555,-0.855,
230,-0.565,-0.85,
231,-0.55,-0.85,
232,-0.56,-0.855,
233,-0.56,-0.87,
234,-0.57,-0.86,
235,-0.575,-0.865,
236,-0.575,-0.875,
237,-0.585,-0.88,
238,-0.58,-0.87,
239,-0.6,-0.875,
240,-0.59,-0.87,
241,-0.595,-0.865,
242,-0.58,-0.86,
243,-0.585,-0.85,
244,-0.585,-0.86,
245,-0.585,-0.875,
246,-0.59,-0.875,
247,-0.595,-0.88,
248,-0.615,-0.89,
249,-0.605,-0.88,
250,-0.59,-0.875,
251,-0.595,-0.865,
252,-0.59,-0.85,
253,-0.575,-0.845,
254,-0.57,-0.85,
255,-0.56,-0.84,
256,-0.56,-0.84,
257,-0.56,-0.845,
258,-0.56,-0.845,
259,-0.565,-0.85,
260,-0.56,-0.85,
261,-0.555,-0.845,
262,-0.555,-0.845,
263,-0.54,-0.835,
264,-0.54,-0.815,
265,-0.52,-0.81,
266,-0.51,-0.805,
267,-0.51,-0.805,
268,-0.505,-0.81,
269,-0.51,-0.81,
270,-0.505,-0.815,
271,-0.505,-0.815,
272,-0.505,-0.825,
273,-0.505,-0.82,
274,-0.52,-0.815,
275,-0.525,-0.805,
276,-0.52,-0.8,
277,-0.525,-0.775,
278,-0.535,-0.765,
279,-0.525,-0.75,
280,-0.54,-0.77,
281,-0.54,-0.76,
282,-0.56,-0.765,
283,-0.585,-0.77,
284,-0.6,-0.77,
285,-0.625,-0.785,
286,-0.64,-0.78,
287,-0.645,-0.77,
288,-0.63,-0.77,
289,-0.575,-0.735,
290,-0.45,-0.695,
291,-0.275,-0.615,
292,-0.075,-0.54,
293,0.16,-0.45,
294,0.41,-0.365,
295,0.69,-0.295,
296,0.965,-0.23,
297,1.215,-0.15,
298,1.435,-0.06,
299,1.61,0.025,
300,1.69,0.145,N
301,1.695,0.255,
302,1.66,0.365,
303,1.54,0.375,
304,1.305,0.22,
305,0.9,-0.125,
306,0.37,-0.59,
307,-0.175,-1.105,
308,-0.585,-1.575,
309,-0.8,-1.87,
310,-0.86,-1.925,
311,-0.82,-1.795,
312,-0.745,-1.58,
313,-0.675,-1.35,
314,-0.63,-1.185,
315,-0.62,-1.095,
316,-0.64,-1.05,
317,-0.68,-1.03,
318,-0.71,-1.01,
319,-0.73,-1.01,
320,-0.74,-0.98,
321,-0.73,-0.96,
322,-0.73,-0.93,
323,-0.725,-0.9,
324,-0.715,-0.88,
325,-0.71,-0.875,
326,-0.72,-0.865,
327,-0.705,-0.86,
328,-0.71,-0.865,
329,-0.705,-0.855,
330,-0.72,-0.87,
331,-0.72,-0.87,
332,-0.745,-0.86,
333,-0.74,-0.87,
334,-0.755,-0.87,
335,-0.76,-0.85,
336,-0.75,-0.855,
337,-0.76,-0.835,
338,-0.765,-0.835,
339,-0.76,-0.83,
340,-0.775,-0.855,
341,-0.78,-0.855,
342,-0.805,-0.87,
343,-0.805,-0.88,
344,-0.815,-0.89,
345,-0.82,-0.885,
346,-0.81,-0.87,
347,-0.82,-0.875,
348,-0.825,-0.85,
349,-0.81,-0.86,
350,-0.81,-0.84,
351,-0.8,-0.825,
352,-0.785,-0.815,
353,-0.79,-0.805,
354,-0.795,-0.805,
355,-0.8,-0.81,
356,-0.81,-0.81,
357,-0.82,-0.835,
358,-0.83,-0.815,
359,-0.84,-0.815,
360,-0.84,-0.81,
361,-0.85,-0.8,
362,-0.85,-0.79,
363,-0.855,-0.795,
364,-0.865,-0.815,
365,-0.875,-0.82,
366,-0.88,-0.84,
367,-0.89,-0.835,
368,-0.89,-0.86,
369,-0.905,-0.855,
370,-0.91,-0.855,
371,-0.915,-0.855,
372,-0.91,-0.855,
373,-0.92,-0.86,
374,-0.915,-0.855,
375,-0.925,-0.845,
376,-0.94,-0.875,
377,-0.95,-0.875,
378,-0.975,-0.89,
379,-0.995,-0.9,
380,-1.02,-0.92,
381,-1.02,-0.93,
382,-1.035,-0.935,
383,-1.03,-0.94,
384,-1.04,-0.935,
385,-1.055,-0.94,
386,-1.065,-0.94,
387,-1.06,-0.96,
388,-1.085,-0.995,
389,-1.1,-1.005,
390,-1.1,-1.02,
391,-1.12,-1.04,
392,-1.15,-1.07,
393,-1.17,-1.075,
394,-1.175,-1.095,
395,-1.18,-1.11,
396,-1.195,-1.1,
397,-1.19,-1.11,
398,-1.195,-1.12,
399,-1.19,-1.12,
400,-1.195,-1.155,
401,-1.2,-1.165,
402,-1.205,-1.18,
403,-1.205,-1.195,
404,-1.205,-1.205,
405,-1.2,-1.21,
406,-1.165,-1.195,
407,-1.135,-1.19,
408,-1.085,-1.175,
409,-1.065,-1.165,
410,-1.015,-1.135,
411,-0.96,-1.115,
412,-0.93,-1.095,
413,-0.9,-1.095,
414,-0.865,-1.07,
415,-0.845,-1.06,
416,-0.815,-1.05,
417,-0.795,-1.03,
418,-0.775,-0.985,
419,-0.74,-0.955,
420,-0.71,-0.93,
421,-0.695,-0.9,
422,-0.68,-0.88,
423,-0.67,-0.85,
424,-0.665,-0.845,
425,-0.66,-0.83,
426,-0.675,-0.82,
427,-0.685,-0.825,
428,-0.69,-0.83,
429,-0.68,-0.835,
430,-0.675,-0.825,
431,-0.68,-0.815,
432,-0.66,-0.805,
433,-0.66,-0.805,
434,-0.64,-0.785,
435,-0.635,-0.785,
436,-0.625,-0.795,
437,-0.625,-0.795,
438,-0.62,-0.79,
439,-0.63,-0.805,
440,-0.625,-0.805,
441,-0.635,-0.815,
442,-0.64,-0.8,
443,-0.63,-0.8,
444,-0.625,-0.79,
445,-0.61,-0.78,
446,-0.6,-0.77,
447,-0.575,-0.765,
448,-0.58,-0.78,
449,-0.575,-0.775,
450,-0.565,-0.775,
451,-0.565,-0.78,
452,-0.575,-0.79,
453,-0.575,-0.79,
454,-0.575,-0.77,
455,-0.575,-0.77,
456,-0.59,-0.76,
457,-0.59,-0.755,
458,-0.605,-0.75,
459,-0.595,-0.745,
460,-0.595,-0.755,
461,-0.6,-0.765,
462,-0.61,-0.78,
463,-0.61,-0.785,
464,-0.61,-0.795,
465,-0.6,-0.79,
466,-0.595,-0.795,
467,-0.6,-0.785,
468,-0.59,-0.78,
469,-0.58,-0.765,
470,-0.565,-0.75,
471,-0.555,-0.735,
472,-0.545,-0.75,
473,-0.545,-0.735,
474,-0.55,-0.75,
475,-0.555,-0.755,
476,-0.54,-0.755,
477,-0.55,-0.75,
478,-0.545,-0.725,
479,-0.545,-0.735,
480,-0.53,-0.725,
481,-0.53,-0.71,
482,-0.535,-0.7,
483,-0.525,-0.695,
484,-0.525,-0.7,
485,-0.535,-0.7,
486,-0.55,-0.705,
487,-0.555,-0.71,
488,-0.575,-0.72,
489,-0.57,-0.72,
490,-0.57,-0.71,
491,-0.575,-0.715,
492,-0.56,-0.68,
493,-0.545,-0.685,
494,-0.54,-0.67,
495,-0.53,-0.67,
496,-0.525,-0.675,
497,-0.53,-0.665,
498,-0.53,-0.68,
499,-0.535,-0.695,
500,-0.55,-0.7,
501,-0.56,-0.69,
502,-0.56,-0.685,
503,-0.57,-0.685,
504,-0.56,-0.685,
505,-0.56,-0.68,
506,-0.555,-0.68,
507,-0.545,-0.675,
508,-0.545,-0.685,
509,-0.545,-0.695,
510,-0.545,-0.7,
511,-0.55,-0.71,
512,-0.56,-0.7,
513,-0.575,-0.715,
514,-0.58,-0.715,
515,-0.585,-0.72,
516,-0.6,-0.725,
517,-0.61,-0.71,
518,-0.62,-0.715,
519,-0.61,-0.715,
520,-0.63,-0.725,
521,-0.615,-0.725,
522,-0.615,-0.75,
523,-0.62,-0.755,
524,-0.62,-0.76,
525,-0.625,-0.78,
526,-0.63,-0.77,
527,-0.61,-0.765,
528,-0.605,-0.75,
529,-0.6,-0.745,
530,-0.59,-0.745,
531,-0.58,-0.74,
532,-0.565,-0.745,
533,-0.58,-0.75,
534,-0.575,-0.75,
535,-0.58,-0.745,
536,-0.585,-0.75,
537,-0.595,-0.745,
538,-0.6,-0.735,
539,-0.59,-0.735,
540,-0.585,-0.735,
541,-0.585,-0.74,
542,-0.58,-0.73,
543,-0.575,-0.73,
544,-0.57,-0.745,
545,-0.565,-0.74,
546,-0.57,-0.755,
547,-0.59,-0.76,
548,-0.595,-0.765,
549,-0.605,-0.77,
550,-0.595,-0.76,
551,-0.605,-0.755,
552,-0.59,-0.76,
553,-0.585,-0.75,
554,-0.585,-0.73,
555,-0.57,-0.735,
556,-0.565,-0.745,
557,-0.565,-0.74,
558,-0.565,-0.76,
559,-0.57,-0.78,
560,-0.575,-0.77,
561,-0.6,-0.765,
562,-0.61,-0.755,
563,-0.595,-0.75,
564,-0.59,-0.735,
565,-0.575,-0.73,
566,-0.57,-0.715,
567,-0.555,-0.705,
568,-0.555,-0.715,
569,-0.55,-0.715,
570,-0.545,-0.72,
571,-0.55,-0.715,
572,-0.56,-0.725,
573,-0.555,-0.73,
574,-0.55,-0.72,
575,-0.55,-0.715,
576,-0.545,-0.705,
577,-0.55,-0.7,
578,-0.535,-0.7,
579,-0.53,-0.69,
580,-0.55,-0.695,
581,-0.56,-0.7,
582,-0.56,-0.705,
583,-0.575,-0.705,
584,-0.575,-0.72,
585,-0.58,-0.73,
586,-0.585,-0.715,
587,-0.575,-0.715,
588,-0.575,-0.705,
589,-0.575,-0.7,
590,-0.57,-0.68,
591,-0.56,-0.685,
592,-0.56,-0.68,
593,-0.565,-0.68,
594,-0.575,-0.685,
595,-0.565,-0.705,
596,-0.575,-0.705,
597,-0.575,-0.7,
598,-0.58,-0.68,
599,-0.595,-0.68,
600,-0.61,-0.67,
601,-0.64,-0.66,
602,-0.62,-0.66,
603,-0.555,-0.635,
604,-0.455,-0.605,
605,-0.29,-0.535,
606,-0.085,-0.45,
607,0.135,-0.36,
608,0.4,-0.275,
609,0.705,-0.185,
610,1.005,-0.09,
611,1.285,-0.015,
612,1.525,0.065,
613,1.665,0.155,
614,1.735,0.265,N
615,1.73,0.36,
616,1.65,0.43,
617,1.49,0.395,
618,1.21,0.21,
619,0.795,-0.13,
620,0.27,-0.58,
621,-0.225,-1.045,
622,-0.595,-1.465,
623,-0.775,-1.71,
624,-0.81,-1.78,
625,-0.77,-1.66,
626,-0.675,-1.46,
627,-0.62,-1.245,
628,-0.575,-1.095,
629,-0.585,-1.005,
630,-0.605,-0.96,
631,-0.62,-0.935,
632,-0.64,-0.91,
633,-0.655,-0.87,
634,-0.66,-0.85,
635,-0.64,-0.81,
636,-0.635,-0.78,
637,-0.635,-0.75,
638,-0.635,-0.715,
639,-0.645,-0.705,
640,-0.655,-0.7,
641,-0.67,-0.685,
642,-0.685,-0.705,
643,-0.71,-0.705,
644,-0.715,-0.71,
645,-0.725,-0.705,
646,-0.72,-0.7,
647,-0.725,-0.695,
648,-0.715,-0.68,
649,-0.72,-0.67,
650,-0.715,-0.665,
651,-0.72,-0.665,
652,-0.715,-0.665,
653,-0.73,-0.67,
654,-0.74,-0.675,
655,-0.755,-0.68,
656,-0.765,-0.69,
657,-0.785,-0.685,
658,-0.8,-0.67,
659,-0.79,-0.675,
660,-0.785,-0.67,
661,-0.795,-0.655,
662,-0.78,-0.645,
663,-0.775,-0.65,
664,-0.775,-0.65,
665,-0.79,-0.655,
666,-0.8,-0.665,
667,-0.8,-0.675,
668,-0.8,-0.69,
669,-0.835,-0.69,
670,-0.83,-0.675,
671,-0.84,-0.685,
672,-0.855,-0.66,
673,-0.85,-0.675,
674,-0.85,-0.66,
675,-0.86,-0.655,
676,-0.87,-0.675,
677,-0.89,-0.67,
678,-0.89,-0.69,
679,-0.9,-0.685,
680,-0.9,-0.705,
681,-0.915,-0.705,
682,-0.915,-0.705,
683,-0.925,-0.71,
684,-0.925,-0.7,
685,-0.92,-0.7,
686,-0.925,-0.69,
687,-0.92,-0.695,
688,-0.93,-0.7,
689,-0.945,-0.71,
690,-0.96,-0.715,
691,-0.975,-0.725,
692,-0.98,-0.735,
693,-0.995,-0.745,
694,-1.0,-0.75,
695,-1.01,-0.75,
696,-1.01,-0.755,
697,-1.03,-0.765,
698,-1.04,-0.77,
699,-1.06,-0.78,
700,-1.09,-0.81,
701,-1.11,-0.84,
702,-1.125,-0.845,
703,-1.125,-0.88,
704,-1.14,-0.905,
705,-1.15,-0.93,
706,-1.17,-0.925,
707,-1.16,-0.94,
708,-1.175,-0.94,
709,-1.17,-0.935,
710,-1.18,-0.945,
711,-1.17,-0.935,
712,-1.155,-0.955,
713,-1.145,-0.955,
714,-1.14,-0.955,
715,-1.13,-0.96,
716,-1.1,-0.955,
717,-1.08,-0.955,
718,-1.045,-0.935,
719,-1.02,-0.925,
720,-0.97,-0.9,
721,-0.94,-0.88,
722,-0.895,-0.845,
723,-0.865,-0.835,
724,-0.835,-0.82,
725,-0.815,-0.795,
726,-0.795,-0.8,
727,-0.795,-0.795,
728,-0.78,-0.79,
729,-0.775,-0.775,
730,-0.75,-0.755,
731,-0.745,-0.75,
732,-0.725,-0.725,
733,-0.72,-0.71,
734,-0.68,-0.695,
735,-0.655,-0.695,
736,-0.65,-0.695,
737,-0.65,-0.68,
738,-0.655,-0.685,
739,-0.665,-0.685,
740,-0.66,-0.695,
741,-0.665,-0.7,
742,-0.665,-0.69,
743,-0.65,-0.69,
744,-0.65,-0.685,
745,-0.625,-0.665,
746,-0.61,-0.66,
747,-0.61,-0.66,
748,-0.6,-0.67,
749,-0.6,-0.665,
750,-0.595,-0.675,
751,-0.61,-0.685,
752,-0.6,-0.685,
753,-0.6,-0.67,
754,-0.595,-0.665,
755,-0.59,-0.675,
756,-0.585,-0.665,
757,-0.585,-0.655,
758,-0.57,-0.65,
759,-0.555,-0.635,
760,-0.545,-0.65,
761,-0.535,-0.655,
762,-0.53,-0.645,
763,-0.535,-0.64,
764,-0.53,-0.64,
765,-0.535,-0.63,
766,-0.53,-0.61,
767,-0.535,-0.59,
768,-0.515,-0.58,
769,-0.515,-0.58,
770,-0.505,-0.56,
771,-0.5,-0.56,
772,-0.5,-0.56,
773,-0.505,-0.56,
774,-0.51,-0.555,
775,-0.52,-0.56,
776,-0.54,-0.58,
777,-0.54,-0.575,
778,-0.545,-0.56,
779,-0.55,-0.555,
780,-0.55,-0.545,
781,-0.55,-0.55,
782,-0.55,-0.535,
783,-0.535,-0.54,
784,-0.54,-0.545,
785,-0.55,-0.545,
786,-0.555,-0.56,
787,-0.565,-0.56,
788,-0.59,-0.57,
789,-0.6,-0.58,
790,-0.595,-0.575,
791,-0.595,-0.57,
792,-0.6,-0.57,
793,-0.6,-0.555,
794,-0.6,-0.55,
795,-0.585,-0.54,
796,-0.59,-0.555,
797,-0.595,-0.55,
798,-0.615,-0.57,
799,-0.62,-0.585,
800,-0.64,-0.585,
801,-0.645,-0.6,
802,-0.655,-0.6,
803,-0.66,-0.605,
804,-0.65,-0.595,
805,-0.64,-0.605,
806,-0.625,-0.605,
807,-0.615,-0.605,
808,-0.595,-0.615,
809,-0.585,-0.62,
810,-0.59,-0.63,
811,-0.58,-0.635,
812,-0.59,-0.635,
813,-0.575,-0.645,
814,-0.575,-0.64,
815,-0.57,-0.63,
816,-0.565,-0.625,
817,-0.57,-0.62,
818,-0.565,-0.615,
819,-0.555,-0.6,
820,-0.55,-0.62,
821,-0.555,-0.62,
822,-0.55,-0.625,
823,-0.555,-0.64,
824,-0.57,-0.64,
825,-0.56,-0.635,
826,-0.56,-0.62,
827,-0.555,-0.605,
828,-0.535,-0.605,
829,-0.535,-0.585,
830,-0.52,-0.57,
831,-0.515,-0.56,
832,-0.52,-0.565,
833,-0.525,-0.56,
834,-0.535,-0.57,
835,-0.53,-0.57,
836,-0.54,-0.585,
837,-0.55,-0.58,
838,-0.555,-0.585,
839,-0.555,-0.575,
840,-0.545,-0.57,
841,-0.545,-0.545,
842,-0.535,-0.54,
843,-0.53,-0.54,
844,-0.53,-0.54,
845,-0.53,-0.545,
846,-0.545,-0.54,
847,-0.55,-0.54,
848,-0.555,-0.545,
849,-0.56,-0.55,
850,-0.575,-0.53,
851,-0.57,-0.54,
852,-0.55,-0.525,
853,-0.565,-0.525,
854,-0.565,-0.54,
855,-0.58,-0.535,
856,-0.58,-0.545,
857,-0.585,-0.535,
858,-0.595,-0.555,
859,-0.625,-0.555,
860,-0.635,-0.565,
861,-0.655,-0.575,
862,-0.645,-0.575,
863,-0.645,-0.575,
864,-0.63,-0.57,
865,-0.615,-0.56,
866,-0.595,-0.56,
867,-0.585,-0.555,
868,-0.575,-0.555,
869,-0.565,-0.555,
870,-0.56,-0.56,
871,-0.565,-0.57,
872,-0.565,-0.565,
873,-0.59,-0.565,
874,-0.605,-0.57,
875,-0.61,-0.55,
876,-0.57,-0.53,
877,-0.49,-0.49,
878,-0.34,-0.415,
879,-0.155,-0.335,
880,0.05,-0.245,
881,0.31,-0.15,
882,0.6,-0.055,
883,0.89,0.025,
884,1.15,0.1,
885,1.365,0.17,
886,1.535,0.255,
887,1.61,0.34,N
888,1.625,0.455,
889,1.59,0.535,
890,1.5,0.565,
891,1.33,0.47,
892,1.045,0.22,
893,0.615,-0.15,
894,0.1,-0.58,
895,-0.345,-1.025,
896,-0.635,-1.37,
897,-0.77,-1.55,
898,-0.765,-1.545,
899,-0.705,-1.4,
900,-0.62,-1.195,
901,-0.565,-1.02,
902,-0.535,-0.865,
903,-0.53,-0.785,
904,-0.555,-0.73,
905,-0.58,-0.695,
906,-0.615,-0.685,
907,-0.625,-0.66,
908,-0.645,-0.635,
909,-0.66,-0.595,
910,-0.665,-0.575,
911,-0.67,-0.565,
912,-0.675,-0.545,
913,-0.68,-0.535,
914,-0.68,-0.52,
915,-0.695,-0.515,
916,-0.7,-0.515,
917,-0.705,-0.51,
918,-0.735,-0.52,
919,-0.76,-0.51,
920,-0.765,-0.52,
921,-0.785,-0.525,
922,-0.805,-0.505,
923,-0.815,-0.505,
924,-0.82,-0.5,
925,-0.805,-0.49,
926,-0.8,-0.485,
927,-0.8,-0.485,
928,-0.8,-0.5,
929,-0.8,-0.5,
930,-0.805,-0.515,
931,-0.81,-0.515,
932,-0.81,-0.525,
933,-0.815,-0.515,
934,-0.805,-0.52,
935,-0.785,-0.53,
936,-0.79,-0.515,
937,-0.78,-0.52,
938,-0.765,-0.52,
939,-0.77,-0.525,
940,-0.76,-0.52,
941,-0.745,-0.525,
942,-0.76,-0.53,
943,-0.76,-0.535,
944,-0.775,-0.54,
945,-0.77,-0.54,
946,-0.775,-0.53,
947,-0.78,-0.53,
948,-0.78,-0.52,
949,-0.77,-0.515,
950,-0.765,-0.51,
951,-0.755,-0.505,
952,-0.775,-0.52,
953,-0.785,-0.51,
954,-0.795,-0.52,
955,-0.8,-0.525,
956,-0.815,-0.53,
957,-0.835,-0.54,
958,-0.835,-0.54,
959,-0.85,-0.53,
960,-0.855,-0.54,
961,-0.86,-0.535,
962,-0.87,-0.525,
963,-0.865,-0.53,
964,-0.88,-0.545,
965,-0.895,-0.555,
966,-0.905,-0.58,
967,-0.92,-0.585,
968,-0.955,-0.59,
969,-0.96,-0.61,
970,-0.98,-0.61,
971,-0.99,-0.615,
972,-1.0,-0.615,
973,-1.0,-0.62,
974,-1.01,-0.635,
975,-1.02,-0.64,
976,-1.03,-0.665,
977,-1.035,-0.68,
978,-1.065,-0.695,
979,-1.085,-0.72,
980,-1.115,-0.745,
981,-1.13,-0.76,
982,-1.135,-0.765,
983,-1.145,-0.775,
984,-1.145,-0.785,
985,-1.14,-0.8,
986,-1.12,-0.785,
987,-1.105,-0.785,
988,-1.1,-0.78,
989,-1.09,-0.78,
990,-1.065,-0.78,
991,-1.065,-0.775,
992,-1.05,-0.775,
993,-1.0,-0.775,
994,-0.97,-0.75,
995,-0.94,-0.73,
996,-0.905,-0.715,
997,-0.88,-0.685,
998,-0.835,-0.66,
999,-0.77,-0.625,
1000,-0.75,-0.605,
1001,-0.72,-0.59,
1002,-0.695,-0.585,
1003,-0.685,-0.585,
1004,-0.67,-0.575,
1005,-0.65,-0.56,
1006,-0.645,-0.545,
1007,-0.615,-0.53,
1008,-0.595,-0.525,
1009,-0.57,-0.51,
1010,-0.555,-0.5,
1011,-0.54,-0.495,
1012,-0.535,-0.505,
1013,-0.525,-0.51,
1014,-0.535,-0.505,
1015,-0.54,-0.52,
1016,-0.545,-0.51,
1017,-0.55,-0.515,
1018,-0.555,-0.505,
1019,-0.55,-0.49,
1020,-0.545,-0.49,
1021,-0.535,-0.485,
1022,-0.52,-0.47,
1023,-0.535,-0.47,
1024,-0.53,-0.47,
1025,-0.53,-0.48,
1026,-0.54,-0.49,
1027,-0.545,-0.49,
1028,-0.565,-0.495,
1029,-0.56,-0.475,
1030,-0.56,-0.48,
1031,-0.56,-0.47,
1032,-0.56,-0.465,
1033,-0.555,-0.465,
1034,-0.55,-0.455,
1035,-0.565,-0.45,
1036,-0.565,-0.45,
1037,-0.57,-0.46,
1038,-0.58,-0.465,
1039,-0.585,-0.48,
1040,-0.595,-0.47,
1041,-0.59,-0.47,
1042,-0.595,-0.455,
1043,-0.585,-0.45,
1044,-0.57,-0.43,
1045,-0.56,-0.425,
1046,-0.545,-0.42,
1047,-0.565,-0.42,
1048,-0.565,-0.42,
1049,-0.57,-0.43,
1050,-0.58,-0.44,
1051,-0.58,-0.43,
1052,-0.585,-0.43,
1053,-0.58,-0.425,
1054,-0.58,-0.42,
1055,-0.57,-0.405,
1056,-0.565,-0.415,
1057,-0.56,-0.405,
1058,-0.555,-0.41,
1059,-0.555,-0.425,
1060,-0.555,-0.44,
1061,-0.565,-0.435,
1062,-0.565,-0.44,
1063,-0.575,-0.46,
1064,-0.58,-0.455,
1065,-0.585,-0.46,
1066,-0.605,-0.46,
1067,-0.605,-0.45,
1068,-0.595,-0.45,
1069,-0.59,-0.445,
1070,-0.57,-0.445,
1071,-0.555,-0.46,
1072,-0.55,-0.45,
1073,-0.535,-0.455,
1074,-0.54,-0.465,
1075,-0.545,-0.48,
1076,-0.535,-0.465,
1077,-0.53,-0.455,
1078,-0.53,-0.445,
1079,-0.52,-0.425,
1080,-0.51,-0.42,
1081,-0.495,-0.405,
1082,-0.495,-0.4,
1083,-0.48,-0.4,
1084,-0.49,-0.395,
1085,-0.49,-0.405,
1086,-0.5,-0.405,
1087,-0.505,-0.415,
1088,-0.51,-0.41,
1089,-0.515,-0.41,
1090,-0.515,-0.4,
1091,-0.52,-0.385,
1092,-0.52,-0.37,
1093,-0.51,-0.35,
1094,-0.495,-0.34,
1095,-0.495,-0.35,
1096,-0.505,-0.35,
1097,-0.515,-0.35,
1098,-0.51,-0.36,
1099,-0.515,-0.355,
1100,-0.525,-0.365,
1101,-0.525,-0.36,
1102,-0.525,-0.35,
1103,-0.525,-0.34,
1104,-0.525,-0.335,
1105,-0.52,-0.325,
1106,-0.5,-0.31,
1107,-0.505,-0.315,
1108,-0.5,-0.315,
1109,-0.505,-0.335,
1110,-0.515,-0.34,
1111,-0.525,-0.345,
1112,-0.535,-0.35,
1113,-0.53,-0.35,
1114,-0.525,-0.355,
1115,-0.525,-0.35,
1116,-0.515,-0.35,
1117,-0.5,-0.34,
1118,-0.505,-0.33,
1119,-0.505,-0.345,
1120,-0.51,-0.345,
1121,-0.515,-0.355,
1122,-0.525,-0.37,
1123,-0.54,-0.395,
1124,-0.565,-0.4,
1125,-0.57,-0.39,
1126,-0.58,-0.395,
1127,-0.585,-0.395,
1128,-0.575,-0.39,
1129,-0.585,-0.385,
1130,-0.575,-0.38,
1131,-0.575,-0.4,
1132,-0.59,-0.405,
1133,-0.58,-0.42,
1134,-0.58,-0.43,
1135,-0.58,-0.44,
1136,-0.585,-0.445,
1137,-0.56,-0.43,
1138,-0.57,-0.425,
1139,-0.555,-0.41,
1140,-0.515,-0.4,
1141,-0.505,-0.385,
1142,-0.5,-0.395,
1143,-0.49,-0.385,
1144,-0.475,-0.39,
1145,-0.485,-0.39,
1146,-0.485,-0.4,
1147,-0.49,-0.395,
1148,-0.485,-0.4,
1149,-0.5,-0.395,
1150,-0.505,-0.38,
1151,-0.515,-0.38,
1152,-0.505,-0.38,
1153,-0.495,-0.375,
1154,-0.485,-0.365,
1155,-0.49,-0.38,
1156,-0.475,-0.37,
1157,-0.49,-0.37,
1158,-0.495,-0.375,
1159,-0.5,-0.385,
1160,-0.505,-0.38,
1161,-0.505,-0.37,
1162,-0.51,-0.365,
1163,-0.495,-0.36,
1164,-0.49,-0.36,
1165,-0.485,-0.335,
1166,-0.465,-0.34,
1167,-0.465,-0.345,
1168,-0.46,-0.335,
1169,-0.465,-0.34,
1170,-0.48,-0.365,
1171,-0.495,-0.36,
1172,-0.495,-0.365,
1173,-0.51,-0.37,
1174,-0.515,-0.365,
1175,-0.51,-0.355,
1176,-0.505,-0.35,
1177,-0.495,-0.335,
1178,-0.49,-0.34,
1179,-0.485,-0.35,
1180,-0.49,-0.355,
1181,-0.49,-0.36,
1182,-0.49,-0.365,
1183,-0.505,-0.38,
1184,-0.5,-0.375,
1185,-0.51,-0.37,
1186,-0.515,-0.365,
1187,-0.505,-0.35,
1188,-0.495,-0.345,
1189,-0.5,-0.34,
1190,-0.5,-0.34,
1191,-0.52,-0.345,
1192,-0.555,-0.345,
1193,-0.59,-0.36,
1194,-0.6,-0.37,
1195,-0.55,-0.35,
1196,-0.46,-0.32,
1197,-0.305,-0.245,
1198,-0.1,-0.145,
1199,0.155,-0.03,
1200,0.44,0.06,
1201,0.745,0.17,
1202,1.055,0.26,
1203,1.33,0.345,
1204,1.545,0.43,
1205,1.67,0.52,
1206,1.705,0.63,N
1207,1.69,0.725,
1208,1.65,0.81,
1209,1.55,0.825,
1210,1.36,0.705,
1211,1.055,0.43,
1212,0.605,0.02,
1213,0.1,-0.47,
1214,-0.325,-0.945,
1215,-0.605,-1.305,
1216,-0.7,-1.495,
1217,-0.7,-1.46,
1218,-0.66,-1.305,
1219,-0.6,-1.095,
1220,-0.56,-0.915,
1221,-0.545,-0.775,
1222,-0.54,-0.665,
1223,-0.555,-0.61,
1224,-0.575,-0.565,
1225,-0.585,-0.525,
1226,-0.585,-0.49,
1227,-0.595,-0.46,
1228,-0.595,-0.435,
1229,-0.595,-0.415,
1230,-0.62,-0.405,
1231,-0.63,-0.4,
1232,-0.64,-0.4,
1233,-0.655,-0.375,
1234,-0.66,-0.365,
1235,-0.68,-0.36,
1236,-0.675,-0.35,
1237,-0.675,-0.355,
1238,-0.68,-0.335,
1239,-0.675,-0.34,
1240,-0.685,-0.345,
1241,-0.68,-0.355,
1242,-0.7,-0.365,
1243,-0.715,-0.365,
1244,-0.725,-0.365,
1245,-0.74,-0.365,
1246,-0.725,-0.37,
1247,-0.74,-0.365,
1248,-0.73,-0.365,
1249,-0.73,-0.35,
1250,-0.73,-0.345,
1251,-0.735,-0.36,
1252,-0.735,-0.365,
1253,-0.745,-0.37,
1254,-0.75,-0.38,
1255,-0.77,-0.4,
1256,-0.77,-0.405,
1257,-0.775,-0.395,
1258,-0.785,-0.41,
1259,-0.815,-0.405,
1260,-0.82,-0.41,
1261,-0.825,-0.41,
1262,-0.82,-0.405,
1263,-0.82,-0.425,
1264,-0.825,-0.435,
1265,-0.825,-0.445,
1266,-0.825,-0.45,
1267,-0.835,-0.465,
1268,-0.835,-0.47,
1269,-0.84,-0.45,
1270,-0.835,-0.465,
1271,-0.84,-0.45,
1272,-0.845,-0.43,
1273,-0.86,-0.43,
1274,-0.875,-0.415,
1275,-0.86,-0.415,
1276,-0.88,-0.43,
1277,-0.875,-0.435,
1278,-0.89,-0.44,
1279,-0.915,-0.445,
1280,-0.92,-0.445,
1281,-0.935,-0.44,
1282,-0.945,-0.435,
1283,-0.955,-0.425,
1284,-0.955,-0.43,
1285,-0.975,-0.425,
1286,-0.985,-0.435,
1287,-1.005,-0.44,
1288,-1.03,-0.46,
1289,-1.045,-0.465,
1290,-1.06,-0.5,
1291,-1.075,-0.525,
1292,-1.09,-0.53,
1293,-1.1,-0.555,
1294,-1.105,-0.555,
1295,-1.125,-0.56,
1296,-1.125,-0.57,
1297,-1.13,-0.575,
1298,-1.13,-0.585,
1299,-1.135,-0.6,
1300,-1.15,-0.62,
1301,-1.16,-0.655,
1302,-1.175,-0.66,
1303,-1.175,-0.68,
1304,-1.17,-0.685,
1305,-1.165,-0.69,
1306,-1.16,-0.68,
1307,-1.125,-0.69,
1308,-1.1,-0.67,
1309,-1.07,-0.67,
1310,-1.045,-0.655,
1311,-1.015,-0.65,
1312,-0.98,-0.64,
1313,-0.93,-0.63,
1314,-0.915,-0.63,
1315,-0.895,-0.61,
1316,-0.88,-0.6,
1317,-0.86,-0.585,
1318,-0.83,-0.56,
1319,-0.8,-0.545,
1320,-0.76,-0.525,
1321,-0.74,-0.505,
1322,-0.7,-0.485,
1323,-0.675,-0.485,
1324,-0.65,-0.475,
1325,-0.64,-0.47,
1326,-0.63,-0.47,
1327,-0.625,-0.475,
1328,-0.605,-0.46,
1329,-0.595,-0.45,
1330,-0.6,-0.435,
1331,-0.565,-0.43,
1332,-0.55,-0.415,
1333,-0.545,-0.41,
1334,-0.525,-0.4,
1335,-0.525,-0.4,
1336,-0.525,-0.4,
1337,-0.525,-0.395,
1338,-0.535,-0.385,
1339,-0.55,-0.395,
1340,-0.555,-0.395,
1341,-0.555,-0.39,
1342,-0.555,-0.4,
1343,-0.555,-0.375,
1344,-0.55,-0.375,
1345,-0.56,-0.355,
1346,-0.55,-0.345,
1347,-0.55,-0.34,
1348,-0.565,-0.34,
1349,-0.565,-0.335,
1350,-0.57,-0.33,
1351,-0.575,-0.325,
1352,-0.58,-0.33,
1353,-0.58,-0.32,
1354,-0.585,-0.305,
1355,-0.575,-0.285,
1356,-0.555,-0.28,
1357,-0.55,-0.285,
1358,-0.535,-0.265,
1359,-0.545,-0.295,
1360,-0.535,-0.285,
1361,-0.54,-0.285,
1362,-0.535,-0.29,
1363,-0.54,-0.305,
1364,-0.535,-0.295,
1365,-0.525,-0.3,
1366,-0.525,-0.295,
1367,-0.52,-0.28,
1368,-0.51,-0.27,
1369,-0.51,-0.265,
1370,-0.505,-0.265,
1371,-0.5,-0.275,
1372,-0.51,-0.28,
1373,-0.52,-0.29,
1374,-0.525,-0.305,
1375,-0.545,-0.31,
1376,-0.54,-0.32,
1377,-0.54,-0.315,
1378,-0.525,-0.31,
1379,-0.505,-0.305,
1380,-0.48,-0.3,
1381,-0.475,-0.295,
1382,-0.465,-0.29,
1383,-0.45,-0.295,
1384,-0.445,-0.3,
1385,-0.445,-0.315,
1386,-0.43,-0.31,
1387,-0.435,-0.32,
1388,-0.455,-0.32,
1389,-0.435,-0.31,
1390,-0.435,-0.315,
1391,-0.43,-0.29,
1392,-0.42,-0.295,
1393,-0.415,-0.285,
1394,-0.415,-0.285,
1395,-0.41,-0.28,
1396,-0.405,-0.29,
1397,-0.405,-0.29,
1398,-0.415,-0.29,
1399,-0.42,-0.305,
1400,-0.43,-0.31,
1401,-0.445,-0.295,
1402,-0.465,-0.3,
1403,-0.485,-0.3,
1404,-0.505,-0.28,
1405,-0.53,-0.275,
1406,-0.485,-0.24,
1407,-0.375,-0.21,
1408,-0.215,-0.115,
1409,-0.01,-0.025,
1410,0.245,0.1,
1411,0.52,0.205,
1412,0.82,0.285,
1413,1.12,0.355,
1414,1.4,0.425,
1415,1.6,0.505,
1416,1.73,0.6,
1417,1.795,0.73,N
1418,1.785,0.845,
1419,1.69,0.905,
1420,1.535,0.855,
1421,1.265,0.64,
1422,0.825,0.27,
1423,0.305,-0.195,
1424,-0.2,-0.675,
1425,-0.57,-1.07,
1426,-0.755,-1.285,
1427,-0.82,-1.305,
1428,-0.8,-1.165,
1429,-0.75,-0.975,
1430,-0.69,-0.79,
1431,-0.665,-0.68,
1432,-0.655,-0.615,
1433,-0.655,-0.58,
1434,-0.665,-0.56,
1435,-0.7,-0.54,
1436,-0.715,-0.515,
1437,-0.715,-0.48,
1438,-0.715,-0.465,
1439,-0.705,-0.415,
1440,-0.705,-0.41,
1441,-0.68,-0.395,
1442,-0.67,-0.375,
1443,-0.665,-0.375,
1444,-0.67,-0.38,
1445,-0.675,-0.37,
1446,-0.67,-0.37,
1447,-0.67,-0.375,
1448,-0.685,-0.36,
1449,-0.69,-0.355,
1450,-0.68,-0.355,
1451,-0.68,-0.335,
1452,-0.66,-0.33,
1453,-0.66,-0.315,
1454,-0.645,-0.305,
1455,-0.655,-0.315,
1456,-0.665,-0.315,
1457,-0.68,-0.32,
1458,-0.69,-0.33,
1459,-0.685,-0.33,
1460,-0.685,-0.325,
1461,-0.685,-0.32,
1462,-0.69,-0.32,
1463,-0.69,-0.31,
1464,-0.685,-0.305,
1465,-0.69,-0.3,
1466,-0.695,-0.295,
1467,-0.7,-0.295,
1468,-0.71,-0.3,
1469,-0.715,-0.305,
1470,-0.72,-0.31,
1471,-0.735,-0.31,
1472,-0.75,-0.33,
1473,-0.755,-0.32,
1474,-0.765,-0.315,
1475,-0.765,-0.305,
1476,-0.765,-0.295,
1477,-0.77,-0.305,
1478,-0.77,-0.285,
1479,-0.78,-0.295,
1480,-0.795,-0.295,
1481,-0.815,-0.29,
1482,-0.83,-0.305,
1483,-0.84,-0.315,
1484,-0.87,-0.325,
1485,-0.885,-0.32,
1486,-0.905,-0.34,
1487,-0.92,-0.325,
1488,-0.925,-0.35,
1489,-0.925,-0.335,
1490,-0.94,-0.34,
1491,-0.94,-0.355,
1492,-0.975,-0.375,
1493,-0.97,-0.38,
1494,-0.98,-0.405,
1495,-0.985,-0.425,
1496,-0.995,-0.445,
1497,-1.01,-0.44,
1498,-1.02,-0.445,
1499,-1.025,-0.445,
1500,-1.02,-0.455,
1501,-1.035,-0.455,
1502,-1.03,-0.46,
1503,-1.025,-0.47,
1504,-1.03,-0.49,
1505,-1.035,-0.5,
1506,-1.035,-0.525,
1507,-1.035,-0.54,
1508,-1.04,-0.545,
1509,-1.06,-0.55,
1510,-1.055,-0.555,
1511,-1.065,-0.555,
1512,-1.045,-0.555,
1513,-1.045,-0.55,
1514,-1.025,-0.555,
1515,-1.0,-0.545,
1516,-0.99,-0.565,
1517,-0.97,-0.555,
1518,-0.955,-0.56,
1519,-0.94,-0.55,
1520,-0.915,-0.55,
1521,-0.88,-0.54,
1522,-0.845,-0.52,
1523,-0.81,-0.5,
1524,-0.77,-0.47,
1525,-0.74,-0.46,
1526,-0.73,-0.435,
1527,-0.7,-0.43,
1528,-0.68,-0.42,
1529,-0.68,-0.415,
1530,-0.67,-0.425,
1531,-0.66,-0.42,
1532,-0.655,-0.415,
1533,-0.64,-0.4,
1534,-0.625,-0.38,
1535,-0.615,-0.36,
1536,-0.605,-0.35,
1537,-0.595,-0.35,
1538,-0.595,-0.345,
1539,-0.575,-0.34,
1540,-0.575,-0.33,
1541,-0.585,-0.335,
1542,-0.58,-0.335,
1543,-0.59,-0.345,
1544,-0.595,-0.345,
1545,-0.595,-0.33,
1546,-0.61,-0.33,
1547,-0.605,-0.335,
1548,-0.6,-0.32,
1549,-0.605,-0.32,
1550,-0.585,-0.315,
1551,-0.58,-0.315,
1552,-0.585,-0.32,
1553,-0.595,-0.32,
1554,-0.595,-0.325,
1555,-0.585,-0.33,
1556,-0.59,-0.34,
1557,-0.615,-0.33,
1558,-0.61,-0.32,
1559,-0.615,-0.315,
1560,-0.61,-0.305,
1561,-0.605,-0.305,
1562,-0.595,-0.305,
1563,-0.59,-0.3,
1564,-0.58,-0.305,
1565,-0.58,-0.315,
1566,-0.565,-0.32,
1567,-0.56,-0.33,
1568,-0.56,-0.34,
1569,-0.555,-0.325,
1570,-0.535,-0.315,
1571,-0.53,-0.3,
1572,-0.505,-0.28,
1573,-0.495,-0.27,
1574,-0.505,-0.26,
1575,-0.495,-0.27,
1576,-0.53,-0.285,
1577,-0.525,-0.29,
1578,-0.54,-0.3,
1579,-0.55,-0.32,
1580,-0.555,-0.325,
1581,-0.565,-0.325,
1582,-0.575,-0.31,
1583,-0.565,-0.315,
1584,-0.565,-0.31,
1585,-0.565,-0.3,
1586,-0.555,-0.305,
1587,-0.54,-0.31,
1588,-0.545,-0.31,
1589,-0.54,-0.315,
1590,-0.55,-0.335,
1591,-0.56,-0.315,
1592,-0.565,-0.32,
1593,-0.565,-0.315,
1594,-0.565,-0.315,
1595,-0.565,-0.31,
1596,-0.56,-0.3,
1597,-0.57,-0.3,
1598,-0.565,-0.29,
1599,-0.565,-0.285,
1600,-0.575,-0.29,
1601,-0.57,-0.305,
1602,-0.58,-0.315,
1603,-0.58,-0.325,
1604,-0.605,-0.33,
1605,-0.605,-0.335,
1606,-0.6,-0.325,
1607,-0.6,-0.32,
1608,-0.6,-0.325,
1609,-0.59,-0.315,
1610,-0.585,-0.31,
1611,-0.575,-0.32,
1612,-0.59,-0.315,
1613,-0.585,-0.335,
1614,-0.61,-0.34,
1615,-0.62,-0.345,
1616,-0.62,-0.36,
1617,-0.625,-0.355,
1618,-0.63,-0.345,
1619,-0.63,-0.345,
1620,-0.63,-0.34,
1621,-0.635,-0.33,
1622,-0.645,-0.33,
1623,-0.645,-0.335,
1624,-0.65,-0.355,
1625,-0.66,-0.375,
1626,-0.67,-0.385,
1627,-0.67,-0.395,
1628,-0.665,-0.41,
1629,-0.655,-0.39,
1630,-0.64,-0.39,
1631,-0.625,-0.365,
1632,-0.59,-0.365,
1633,-0.57,-0.355,
1634,-0.56,-0.35,
1635,-0.545,-0.34,
1636,-0.54,-0.33,
1637,-0.545,-0.33,
1638,-0.535,-0.325,
1639,-0.545,-0.33,
1640,-0.535,-0.335,
1641,-0.54,-0.33,
1642,-0.545,-0.325,
1643,-0.54,-0.315,
1644,-0.535,-0.305,
1645,-0.53,-0.305,
1646,-0.52,-0.285,
1647,-0.525,-0.285,
1648,-0.52,-0.285,
1649,-0.525,-0.29,
1650,-0.54,-0.3,
1651,-0.54,-0.31,
1652,-0.55,-0.315,
1653,-0.55,-0.31,
1654,-0.565,-0.31,
1655,-0.56,-0.295,
1656,-0.565,-0.3,
1657,-0.565,-0.29,
1658,-0.58,-0.27,
1659,-0.595,-0.295,
1660,-0.6,-0.295,
1661,-0.61,-0.31,
1662,-0.625,-0.325,
1663,-0.625,-0.34,
1664,-0.63,-0.34,
1665,-0.64,-0.33,
1666,-0.635,-0.32,
1667,-0.625,-0.325,
1668,-0.61,-0.315,
1669,-0.6,-0.32,
1670,-0.595,-0.31,
1671,-0.6,-0.325,
1672,-0.6,-0.31,
1673,-0.605,-0.33,
1674,-0.615,-0.335,
1675,-0.615,-0.34,
1676,-0.635,-0.34,
1677,-0.645,-0.355,
1678,-0.64,-0.35,
1679,-0.64,-0.34,
1680,-0.64,-0.34,
1681,-0.645,-0.335,
1682,-0.635,-0.33,
1683,-0.635,-0.345,
1684,-0.65,-0.345,
1685,-0.66,-0.355,
1686,-0.655,-0.35,
1687,-0.655,-0.365,
1688,-0.635,-0.365,
1689,-0.625,-0.36,
1690,-0.605,-0.355,
1691,-0.59,-0.34,
1692,-0.58,-0.335,
1693,-0.585,-0.31,
1694,-0.58,-0.305,
1695,-0.605,-0.31,
1696,-0.62,-0.31,
1697,-0.61,-0.3,
1698,-0.555,-0.27,
1699,-0.42,-0.235,
1700,-0.24,-0.16,
1701,-0.02,-0.045,
1702,0.255,0.065,
1703,0.55,0.17,
1704,0.875,0.25,
1705,1.19,0.335,
1706,1.45,0.415,
1707,1.64,0.49,
1708,1.735,0.6,N
1709,1.76,0.7,
1710,1.705,0.79,
1711,1.6,0.815,
1712,1.42,0.715,
1713,1.1,0.465,
1714,0.64,0.08,
1715,0.105,-0.365,
1716,-0.36,-0.81,
1717,-0.66,-1.17,
1718,-0.77,-1.34,
1719,-0.77,-1.35,
1720,-0.71,-1.19,
1721,-0.66,-1.0,
1722,-0.605,-0.835,
1723,-0.595,-0.705,
1724,-0.61,-0.625,
1725,-0.645,-0.585,
1726,-0.675,-0.55,
1727,-0.695,-0.51,
1728,-0.7,-0.475,
1729,-0.715,-0.43,
1730,-0.71,-0.4,
1731,-0.71,-0.38,
1732,-0.72,-0.35,
1733,-0.74,-0.36,
1734,-0.77,-0.355,
1735,-0.795,-0.365,
1736,-0.81,-0.37,
1737,-0.82,-0.365,
1738,-0.83,-0.365,
1739,-0.825,-0.355,
1740,-0.82,-0.345,
1741,-0.815,-0.315,
1742,-0.805,-0.315,
1743,-0.805,-0.325,
1744,-0.815,-0.31,
1745,-0.795,-0.335,
1746,-0.81,-0.33,
1747,-0.815,-0.335,
1748,-0.82,-0.34,
1749,-0.825,-0.34,
1750,-0.835,-0.335,
1751,-0.83,-0.32,
1752,-0.835,-0.315,
1753,-0.835,-0.3,
1754,-0.83,-0.3,
1755,-0.82,-0.305,
1756,-0.82,-0.305,
1757,-0.82,-0.31,
1758,-0.81,-0.32,
1759,-0.82,-0.33,
1760,-0.815,-0.325,
1761,-0.84,-0.325,
1762,-0.83,-0.315,
1763,-0.845,-0.305,
1764,-0.835,-0.305,
1765,-0.835,-0.295,
1766,-0.835,-0.285,
1767,-0.83,-0.29,
1768,-0.835,-0.295,
1769,-0.845,-0.31,
1770,-0.86,-0.32,
1771,-0.865,-0.32,
1772,-0.88,-0.33,
1773,-0.885,-0.325,
1774,-0.885,-0.335,
1775,-0.9,-0.33,
1776,-0.895,-0.325,
1777,-0.905,-0.32,
1778,-0.91,-0.325,
1779,-0.915,-0.32,
1780,-0.925,-0.335,
1781,-0.95,-0.35,
1782,-0.965,-0.355,
1783,-0.975,-0.36,
1784,-0.995,-0.385,
1785,-1.0,-0.385,
1786,-1.01,-0.395,
1787,-1.03,-0.395,
1788,-1.04,-0.4,
1789,-1.055,-0.41,
1790,-1.065,-0.42,
1791,-1.085,-0.44,
1792,-1.11,-0.465,
1793,-1.13,-0.475,
1794,-1.145,-0.505,
1795,-1.165,-0.54,
1796,-1.185,-0.565,
1797,-1.21,-0.565,
1798,-1.205,-0.585,
1799,-1.21,-0.585,
1800,-1.225,-0.595,
1801,-1.225,-0.595,
1802,-1.21,-0.605,
1803,-1.21,-0.61,
1804,-1.215,-0.615,
1805,-1.215,-0.64,
1806,-1.225,-0.66,
1807,-1.235,-0.675,
1808,-1.23,-0.685,
1809,-1.24,-0.68,
1810,-1.24,-0.68,
1811,-1.225,-0.67,
1812,-1.205,-0.66,
1813,-1.195,-0.66,
1814,-1.165,-0.655,
1815,-1.135,-0.65,
1816,-1.125,-0.64,
1817,-1.095,-0.645,
1818,-1.06,-0.64,
1819,-1.02,-0.64,
1820,-1.0,-0.625,
1821,-0.975,-0.595,
1822,-0.935,-0.57,
1823,-0.895,-0.545,
1824,-0.855,-0.515,
1825,-0.825,-0.49,
1826,-0.78,-0.465,
1827,-0.755,-0.45,
1828,-0.735,-0.425,
1829,-0.72,-0.43,
1830,-0.71,-0.415,
1831,-0.7,-0.41,
1832,-0.69,-0.4,
1833,-0.675,-0.38,
1834,-0.665,-0.38,
1835,-0.65,-0.355,
1836,-0.63,-0.34,
1837,-0.62,-0.335,
1838,-0.595,-0.31,
1839,-0.59,-0.31,
1840,-0.58,-0.31,
1841,-0.59,-0.31,
1842,-0.595,-0.335,
1843,-0.61,-0.345,
1844,-0.61,-0.345,
1845,-0.615,-0.33,
1846,-0.615,-0.335,
1847,-0.615,-0.32,
1848,-0.615,-0.32,
1849,-0.62,-0.32,
1850,-0.6,-0.31,
1851,-0.585,-0.315,
1852,-0.585,-0.32,
1853,-0.58,-0.335,
1854,-0.595,-0.345,
1855,-0.595,-0.34,
1856,-0.6,-0.345,
1857,-0.61,-0.335,
1858,-0.6,-0.33,
1859,-0.59,-0.325,
1860,-0.58,-0.305,
1861,-0.575,-0.305,
1862,-0.56,-0.3,
1863,-0.54,-0.305,
1864,-0.535,-0.295,
1865,-0.535,-0.295,
1866,-0.535,-0.295,
1867,-0.54,-0.305,
1868,-0.54,-0.3,
1869,-0.55,-0.28,
1870,-0.55,-0.265,
1871,-0.545,-0.25,
1872,-0.535,-0.24,
1873,-0.54,-0.22,
1874,-0.52,-0.205,
1875,-0.51,-0.2,
1876,-0.52,-0.195,
1877,-0.52,-0.2,
1878,-0.535,-0.205,
1879,-0.525,-0.2,
1880,-0.54,-0.2,
1881,-0.53,-0.195,
1882,-0.525,-0.19,
1883,-0.53,-0.17,
1884,-0.52,-0.16,
1885,-0.525,-0.145,
1886,-0.52,-0.14,
1887,-0.505,-0.14,
1888,-0.51,-0.13,
1889,-0.52,-0.15,
1890,-0.51,-0.155,
1891,-0.525,-0.16,
1892,-0.545,-0.17,
1893,-0.555,-0.17,
1894,-0.565,-0.175,
1895,-0.56,-0.165,
1896,-0.55,-0.155,
1897,-0.545,-0.165,
1898,-0.55,-0.165,
1899,-0.545,-0.17,
1900,-0.56,-0.185,
1901,-0.57,-0.205,
1902,-0.595,-0.21,
1903,-0.6,-0.215,
1904,-0.625,-0.235,
1905,-0.63,-0.235,
1906,-0.615,-0.235,
1907,-0.625,-0.23,
1908,-0.605,-0.235,
1909,-0.605,-0.23,
1910,-0.62,-0.215,
1911,-0.615,-0.225,
1912,-0.625,-0.24,
1913,-0.6,-0.225,
1914,-0.51,-0.2,
1915,-0.36,-0.14,
1916,-0.16,-0.04,
1917,0.08,0.075,
1918,0.37,0.185,
1919,0.675,0.275,
1920,0.995,0.355,
1921,1.3,0.425,
1922,1.55,0.485,
1923,1.7,0.56,
1924,1.745,0.655,N
1925,1.725,0.73,
1926,1.64,0.765,
1927,1.455,0.67,
1928,1.13,0.41,
1929,0.65,0.005,
1930,0.095,-0.48,
1931,-0.385,-0.93,
1932,-0.685,-1.255,
1933,-0.81,-1.365,
1934,-0.795,-1.29,
1935,-0.71,-1.1,
1936,-0.635,-0.875,
1937,-0.58,-0.695,
1938,-0.58,-0.57,
1939,-0.595,-0.51,
1940,-0.635,-0.47,
1941,-0.675,-0.435,
1942,-0.695,-0.405,
1943,-0.695,-0.365,
1944,-0.68,-0.315,
1945,-0.675,-0.29,
1946,-0.67,-0.265,
1947,-0.665,-0.255,
1948,-0.675,-0.245,
1949,-0.7,-0.25,
1950,-0.695,-0.265,
1951,-0.715,-0.255,
1952,-0.73,-0.25,
1953,-0.73,-0.255,
1954,-0.745,-0.245,
1955,-0.75,-0.245,
1956,-0.745,-0.23,
1957,-0.765,-0.22,
1958,-0.765,-0.22,
1959,-0.77,-0.225,
1960,-0.775,-0.225,
1961,-0.79,-0.23,
1962,-0.81,-0.25,
1963,-0.825,-0.235,
1964,-0.845,-0.255,
1965,-0.85,-0.265,
1966,-0.855,-0.26,
1967,-0.865,-0.265,
1968,-0.865,-0.26,
1969,-0.855,-0.255,
1970,-0.85,-0.24,
1971,-0.845,-0.26,
1972,-0.85,-0.26,
1973,-0.85,-0.26,
1974,-0.855,-0.26,
1975,-0.86,-0.265,
1976,-0.86,-0.28,
1977,-0.86,-0.265,
1978,-0.85,-0.265,
1979,-0.845,-0.26,
1980,-0.84,-0.26,
1981,-0.825,-0.255,
1982,-0.83,-0.245,
1983,-0.825,-0.24,
1984,-0.83,-0.24,
1985,-0.82,-0.24,
1986,-0.825,-0.255,
1987,-0.84,-0.25,
1988,-0.845,-0.255,
1989,-0.86,-0.26,
1990,-0.88,-0.26,
1991,-0.88,-0.25,
1992,-0.87,-0.25,
1993,-0.87,-0.235,
1994,-0.875,-0.245,
1995,-0.88,-0.245,
1996,-0.88,-0.26,
1997,-0.89,-0.28,
1998,-0.9,-0.28,
1999,-0.915,-0.3,
2000,-0.935,-0.31,
2001,-0.95,-0.31,
2002,-0.965,-0.31,
2003,-0.98,-0.315,
2004,-0.985,-0.32,
2005,-0.995,-0.32,
2006,-1.0,-0.315,
2007,-1.0,-0.33,
2008,-1.015,-0.335,
2009,-1.02,-0.355,
2010,-1.045,-0.365,
2011,-1.065,-0.375,
2012,-1.09,-0.4,
2013,-1.1,-0.41,
2014,-1.125,-0.415,
2015,-1.135,-0.415,
2016,-1.15,-0.42,
2017,-1.14,-0.43,
2018,-1.14,-0.42,
2019,-1.14,-0.44,
2020,-1.135,-0.455,
2021,-1.125,-0.46,
2022,-1.125,-0.485,
2023,-1.12,-0.49,
2024,-1.105,-0.5,
2025,-1.1,-0.485,
2026,-1.07,-0.49,
2027,-1.025,-0.465,
2028,-0.975,-0.45,
2029,-0.955,-0.435,
2030,-0.91,-0.415,
2031,-0.865,-0.405,
2032,-0.84,-0.4,
2033,-0.82,-0.405,
2034,-0.815,-0.4,
2035,-0.8,-0.395,
2036,-0.785,-0.405,
2037,-0.785,-0.38,
2038,-0.745,-0.365,
2039,-0.72,-0.36,
2040,-0.7,-0.335,
2041,-0.675,-0.325,
2042,-0.635,-0.31,
2043,-0.62,-0.3,
2044,-0.615,-0.3,
2045,-0.6,-0.3,
2046,-0.595,-0.29,
2047,-0.61,-0.3,
2048,-0.605,-0.31,
2049,-0.605,-0.315,
2050,-0.605,-0.295,
2051,-0.605,-0.3,
2052,-0.605,-0.29,
2053,-0.6,-0.265,
2054,-0.595,-0.265,
2055,-0.58,-0.265,
2056,-0.585,-0.26,
2057,-0.59,-0.26,
2058,-0.575,-0.27,
2059,-0.595,-0.275,
2060,-0.61,-0.28,
2061,-0.61,-0.275,
2062,-0.62,-0.275,
2063,-0.615,-0.27,
2064,-0.605,-0.26,
2065,-0.605,-0.24,
2066,-0.595,-0.23,
2067,-0.59,-0.235,
2068,-0.585,-0.235,
2069,-0.58,-0.23,
2070,-0.595,-0.24,
2071,-0.615,-0.25,
2072,-0.62,-0.25,
2073,-0.625,-0.245,
2074,-0.62,-0.245,
2075,-0.615,-0.235,
2076,-0.62,-0.24,
2077,-0.605,-0.23,
2078,-0.605,-0.205,
2079,-0.595,-0.225,
2080,-0.605,-0.225,
2081,-0.6,-0.225,
2082,-0.605,-0.235,
2083,-0.61,-0.25,
2084,-0.61,-0.245,
2085,-0.61,-0.235,
2086,-0.605,-0.22,
2087,-0.61,-0.23,
2088,-0.6,-0.21,
2089,-0.605,-0.2,
2090,-0.59,-0.195,
2091,-0.565,-0.19,
2092,-0.57,-0.195,
2093,-0.58,-0.22,
2094,-0.585,-0.22,
2095,-0.6,-0.225,
2096,-0.6,-0.225,
2097,-0.6,-0.22,
2098,-0.605,-0.22,
2099,-0.6,-0.215,
2100,-0.585,-0.195,
2101,-0.58,-0.2,
2102,-0.57,-0.185,
2103,-0.535,-0.19,
2104,-0.535,-0.2,
2105,-0.535,-0.205,
2106,-0.545,-0.205,
2107,-0.55,-0.205,
2108,-0.565,-0.215,
2109,-0.57,-0.215,
2110,-0.585,-0.205,
2111,-0.59,-0.2,
2112,-0.575,-0.205,
2113,-0.565,-0.2,
2114,-0.55,-0.195,
2115,-0.55,-0.22,
2116,-0.555,-0.225,
2117,-0.555,-0.235,
2118,-0.575,-0.24,
2119,-0.58,-0.24,
2120,-0.585,-0.25,
2121,-0.585,-0.25,
2122,-0.585,-0.245,
2123,-0.575,-0.23,
2124,-0.575,-0.23,
2125,-0.575,-0.23,
2126,-0.56,-0.235,
2127,-0.56,-0.225,
2128,-0.57,-0.23,
2129,-0.57,-0.23,
2130,-0.565,-0.23,
2131,-0.58,-0.23,
2132,-0.585,-0.225,
2133,-0.58,-0.23,
2134,-0.575,-0.225,
2135,-0.565,-0.225,
2136,-0.56,-0.225,
2137,-0.55,-0.215,
2138,-0.54,-0.21,
2139,-0.55,-0.215,
2140,-0.545,-0.225,
2141,-0.55,-0.24,
2142,-0.575,-0.24,
2143,-0.58,-0.245,
2144,-0.59,-0.27,
2145,-0.585,-0.26,
2146,-0.56,-0.25,
2147,-0.555,-0.25,
2148,-0.55,-0.245,
2149,-0.55,-0.24,
2150,-0.545,-0.235,
2151,-0.545,-0.235,
2152,-0.55,-0.245,
2153,-0.55,-0.25,
2154,-0.545,-0.26,
2155,-0.545,-0.26,
2156,-0.555,-0.26,
2157,-0.555,-0.255,
2158,-0.56,-0.245,
2159,-0.565,-0.24,
2160,-0.56,-0.245,
2161,-0.555,-0.24,
2162,-0.555,-0.23,
2163,-0.545,-0.235,
2164,-0.54,-0.23,
2165,-0.55,-0.23,
2166,-0.54,-0.22,
2167,-0.54,-0.23,
2168,-0.545,-0.225,
2169,-0.555,-0.22,
2170,-0.565,-0.22,
2171,-0.565,-0.225,
2172,-0.545,-0.22,
2173,-0.565,-0.215,
2174,-0.565,-0.21,
2175,-0.58,-0.215,
2176,-0.565,-0.215,
2177,-0.575,-0.23,
2178,-0.585,-0.24,
2179,-0.595,-0.255,
2180,-0.6,-0.26,
2181,-0.605,-0.27,
2182,-0.595,-0.265,
2183,-0.585,-0.25,
2184,-0.575,-0.24,
2185,-0.565,-0.225,
2186,-0.55,-0.22,
2187,-0.55,-0.215,
2188,-0.55,-0.22,
2189,-0.555,-0.21,
2190,-0.55,-0.215,
2191,-0.565,-0.21,
2192,-0.585,-0.21,
2193,-0.605,-0.21,
2194,-0.63,-0.185,
2195,-0.655,-0.185,
2196,-0.645,-0.18,
2197,-0.585,-0.155,
2198,-0.465,-0.08,
2199,-0.27,0.0,
2200,-0.035,0.1,
2201,0.26,0.225,
2202,0.59,0.325,
2203,0.935,0.415,
2204,1.255,0.515,
2205,1.525,0.605,
2206,1.71,0.71,
2207,1.775,0.845,N
2208,1.77,0.945,
2209,1.695,1.005,
2210,1.525,0.935,
2211,1.2,0.665,
2212,0.71,0.215,
2213,0.12,-0.345,
2214,-0.39,-0.895,
2215,-0.71,-1.27,
2216,-0.84,-1.42,
2217,-0.84,-1.345,
2218,-0.755,-1.13,
2219,-0.665,-0.875,
2220,-0.62,-0.67,
2221,-0.59,-0.555,
2222,-0.59,-0.475,
2223,-0.605,-0.45,
2224,-0.635,-0.42,
2225,-0.65,-0.39,
2226,-0.65,-0.375,
2227,-0.67,-0.355,
2228,-0.665,-0.31,
2229,-0.67,-0.29,
2230,-0.675,-0.28,
2231,-0.685,-0.26,
2232,-0.685,-0.25,
2233,-0.685,-0.255,
2234,-0.68,-0.23,
2235,-0.685,-0.245,
2236,-0.715,-0.245,
2237,-0.72,-0.26,
2238,-0.725,-0.265,
2239,-0.735,-0.265,
2240,-0.77,-0.265,
2241,-0.755,-0.27,
2242,-0.77,-0.245,
2243,-0.77,-0.24,
2244,-0.765,-0.235,
2245,-0.77,-0.215,
2246,-0.77,-0.215,
2247,-0.785,-0.22,
2248,-0.78,-0.22,
2249,-0.8,-0.225,
2250,-0.805,-0.24,
2251,-0.815,-0.24,
2252,-0.83,-0.25,
2253,-0.84,-0.255,
2254,-0.845,-0.255,
2255,-0.84,-0.245,
2256,-0.84,-0.235,
2257,-0.84,-0.23,
2258,-0.84,-0.235,
2259,-0.835,-0.23,
2260,-0.845,-0.245,
2261,-0.855,-0.25,
2262,-0.865,-0.255,
2263,-0.875,-0.26,
2264,-0.88,-0.275,
2265,-0.885,-0.28,
2266,-0.885,-0.28,
2267,-0.89,-0.265,
2268,-0.895,-0.265,
2269,-0.905,-0.275,
2270,-0.91,-0.265,
2271,-0.915,-0.28,
2272,-0.93,-0.295,
2273,-0.95,-0.315,
2274,-0.985,-0.33,
2275,-0.995,-0.355,
2276,-1.005,-0.375,
2277,-1.025,-0.375,
2278,-1.02,-0.37,
2279,-1.015,-0.38,
2280,-1.025,-0.375,
2281,-1.03,-0.38,
2282,-1.03,-0.38,
2283,-1.035,-0.395,
2284,-1.055,-0.42,
2285,-1.075,-0.44,
2286,-1.09,-0.46,
2287,-1.11,-0.48,
2288,-1.125,-0.5,
2289,-1.15,-0.515,
2290,-1.165,-0.525,
2291,-1.185,-0.535,
2292,-1.19,-0.555,
2293,-1.19,-0.545,
2294,-1.19,-0.54,
2295,-1.19,-0.56,
2296,-1.2,-0.57,
2297,-1.21,-0.585,
2298,-1.215,-0.6,
2299,-1.215,-0.62,
2300,-1.22,-0.64,
2301,-1.21,-0.64,
2302,-1.195,-0.625,
2303,-1.175,-0.625,
2304,-1.16,-0.61,
2305,-1.125,-0.6,
2306,-1.095,-0.59,
2307,-1.065,-0.575,
2308,-1.035,-0.575,
2309,-0.985,-0.56,
2310,-0.955,-0.555,
2311,-0.93,-0.535,
2312,-0.9,-0.515,
2313,-0.865,-0.495,
2314,-0.83,-0.465,
2315,-0.81,-0.44,
2316,-0.78,-0.43,
2317,-0.745,-0.405,
2318,-0.7,-0.375,
2319,-0.685,-0.36,
2320,-0.655,-0.345,
2321,-0.645,-0.335,
2322,-0.63,-0.34,
2323,-0.63,-0.33,
2324,-0.63,-0.33,
2325,-0.62,-0.32,
2326,-0.62,-0.3,
2327,-0.615,-0.315,
2328,-0.605,-0.29,
2329,-0.59,-0.295,
2330,-0.585,-0.29,
2331,-0.58,-0.275,
2332,-0.58,-0.29,
2333,-0.58,-0.3,
2334,-0.585,-0.31,
2335,-0.585,-0.305,
2336,-0.595,-0.315,
2337,-0.615,-0.315,
2338,-0.61,-0.32,
2339,-0.61,-0.32,
2340,-0.595,-0.305,
2341,-0.58,-0.295,
2342,-0.565,-0.285,
2343,-0.545,-0.285,
2344,-0.545,-0.29,
2345,-0.545,-0.285,
2346,-0.55,-0.28,
2347,-0.555,-0.295,
2348,-0.555,-0.29,
2349,-0.555,-0.29,
2350,-0.55,-0.28,
2351,-0.55,-0.265,
2352,-0.545,-0.25,
2353,-0.535,-0.235,
2354,-0.53,-0.235,
2355,-0.515,-0.225,
2356,-0.51,-0.225,
2357,-0.51,-0.21,
2358,-0.515,-0.215,
2359,-0.52,-0.215,
2360,-0.53,-0.215,
2361,-0.53,-0.22,
2362,-0.525,-0.19,
2363,-0.525,-0.175,
2364,-0.515,-0.165,
2365,-0.505,-0.155,
2366,-0.505,-0.145,
2367,-0.49,-0.14,
2368,-0.49,-0.15,
2369,-0.485,-0.145,
2370,-0.5,-0.155,
2371,-0.51,-0.155,
2372,-0.51,-0.15,
2373,-0.5,-0.16,
2374,-0.495,-0.155,
2375,-0.495,-0.16,
2376,-0.48,-0.135,
2377,-0.485,-0.135,
2378,-0.465,-0.13,
2379,-0.465,-0.135,
2380,-0.475,-0.135,
2381,-0.475,-0.135,
2382,-0.48,-0.155,
2383,-0.495,-0.165,
2384,-0.505,-0.175,
2385,-0.5,-0.17,
2386,-0.51,-0.16,
2387,-0.49,-0.16,
2388,-0.5,-0.165,
2389,-0.51,-0.165,
2390,-0.51,-0.17,
2391,-0.51,-0.165,
2392,-0.51,-0.185,
2393,-0.515,-0.18,
2394,-0.52,-0.2,
2395,-0.535,-0.205,
2396,-0.54,-0.22,
2397,-0.55,-0.205,
2398,-0.545,-0.195,
2399,-0.555,-0.2,
2400,-0.55,-0.195,
2401,-0.545,-0.185,
2402,-0.55,-0.18,
2403,-0.545,-0.195,
2404,-0.55,-0.19,
2405,-0.555,-0.2,
2406,-0.565,-0.21,
2407,-0.58,-0.215,
2408,-0.57,-0.23,
2409,-0.58,-0.205,
2410,-0.575,-0.21,
2411,-0.565,-0.205,
2412,-0.57,-0.19,
2413,-0.57,-0.19,
2414,-0.55,-0.185,
2415,-0.545,-0.195,
2416,-0.545,-0.205,
2417,-0.545,-0.21,
2418,-0.55,-0.215,
2419,-0.565,-0.24,
2420,-0.56,-0.25,
2421,-0.565,-0.25,
2422,-0.56,-0.255,
2423,-0.565,-0.245,
2424,-0.55,-0.24,
2425,-0.555,-0.23,
2426,-0.555,-0.225,
2427,-0.56,-0.24,
2428,-0.555,-0.235,
2429,-0.545,-0.245,
2430,-0.54,-0.26,
2431,-0.55,-0.27,
2432,-0.555,-0.26,
2433,-0.555,-0.265,
2434,-0.55,-0.26,
2435,-0.545,-0.265,
2436,-0.55,-0.255,
2437,-0.53,-0.255,
2438,-0.52,-0.25,
2439,-0.505,-0.245,
2440,-0.51,-0.255,
2441,-0.515,-0.26,
2442,-0.52,-0.27,
2443,-0.515,-0.27,
2444,-0.51,-0.28,
2445,-0.52,-0.28,
2446,-0.525,-0.28,
2447,-0.525,-0.28,
2448,-0.53,-0.26,
2449,-0.52,-0.265,
2450,-0.515,-0.265,
2451,-0.505,-0.275,
2452,-0.51,-0.28,
2453,-0.53,-0.28,
2454,-0.545,-0.28,
2455,-0.55,-0.29,
2456,-0.54,-0.28,
2457,-0.535,-0.28,
2458,-0.535,-0.26,
2459,-0.535,-0.25,
2460,-0.53,-0.245,
2461,-0.535,-0.245,
2462,-0.545,-0.25,
2463,-0.545,-0.25,
2464,-0.59,-0.255,
2465,-0.615,-0.265,
2466,-0.64,-0.27,
2467,-0.635,-0.25,
2468,-0.57,-0.225,
2469,-0.435,-0.15,
2470,-0.245,-0.06,
2471,0.005,0.04,
2472,0.325,0.155,
2473,0.655,0.255,
2474,0.985,0.34,
2475,1.3,0.415,
2476,1.555,0.485,
2477,1.71,0.595,
2478,1.775,0.7,N
2479,1.75,0.805,
2480,1.655,0.835,
2481,1.44,0.725,
2482,1.1,0.45,
2483,0.595,0.015,
2484,0.025,-0.495,
2485,-0.455,-0.98,
2486,-0.745,-1.315,
2487,-0.875,-1.41,
2488,-0.83,-1.335,
2489,-0.76,-1.12,
2490,-0.68,-0.915,
2491,-0.625,-0.74,
2492,-0.615,-0.63,
2493,-0.63,-0.57,
2494,-0.645,-0.535,
2495,-0.675,-0.495,
2496,-0.675,-0.465,
2497,-0.69,-0.44,
2498,-0.675,-0.39,
2499,-0.67,-0.365,
2500,-0.675,-0.36,
2501,-0.69,-0.34,
2502,-0.705,-0.35,
2503,-0.705,-0.345,
2504,-0.73,-0.355,
2505,-0.73,-0.355,
2506,-0.72,-0.355,
2507,-0.72,-0.34,
2508,-0.71,-0.325,
2509,-0.72,-0.32,
2510,-0.725,-0.3,
2511,-0.715,-0.305,
2512,-0.73,-0.3,
2513,-0.73,-0.305,
2514,-0.74,-0.305,
2515,-0.75,-0.31,
2516,-0.765,-0.31,
2517,-0.765,-0.305,
2518,-0.755,-0.31,
2519,-0.76,-0.3,
2520,-0.76,-0.29,
2521,-0.77,-0.29,
2522,-0.77,-0.27,
2523,-0.79,-0.275,
2524,-0.8,-0.285,
2525,-0.82,-0.295,
2526,-0.83,-0.31,
2527,-0.86,-0.325,
2528,-0.865,-0.34,
2529,-0.88,-0.335,
2530,-0.895,-0.335,
2531,-0.89,-0.345,
2532,-0.88,-0.345,
2533,-0.895,-0.33,
2534,-0.885,-0.32,
2535,-0.87,-0.33,
2536,-0.875,-0.34,
2537,-0.89,-0.335,
2538,-0.895,-0.35,
2539,-0.91,-0.375,
2540,-0.925,-0.375,
2541,-0.945,-0.38,
2542,-0.95,-0.375,
2543,-0.955,-0.385,
2544,-0.965,-0.38,
2545,-0.97,-0.37,
2546,-0.96,-0.365,
2547,-0.96,-0.385,
2548,-0.96,-0.385,
2549,-0.955,-0.405,
2550,-0.985,-0.415,
2551,-1.005,-0.425,
2552,-1.025,-0.44,
2553,-1.035,-0.445,
2554,-1.055,-0.45,
2555,-1.07,-0.455,
2556,-1.08,-0.47,
2557,-1.07,-0.47,
2558,-1.08,-0.47,
2559,-1.095,-0.475,
2560,-1.105,-0.5,
2561,-1.115,-0.52,
2562,-1.125,-0.53,
2563,-1.135,-0.555,
2564,-1.16,-0.575,
2565,-1.18,-0.58,
2566,-1.195,-0.585,
2567,-1.205,-0.595,
2568,-1.215,-0.6,
2569,-1.23,-0.615,
2570,-1.245,-0.61,
2571,-1.22,-0.63,
2572,-1.23,-0.64,
2573,-1.225,-0.645,
2574,-1.22,-0.66,
2575,-1.215,-0.665,
2576,-1.19,-0.665,
2577,-1.16,-0.67,
2578,-1.135,-0.64,
2579,-1.095,-0.625,
2580,-1.06,-0.605,
2581,-1.03,-0.585,
2582,-1.0,-0.565,
2583,-0.96,-0.54,
2584,-0.925,-0.55,
2585,-0.91,-0.53,
2586,-0.87,-0.52,
2587,-0.86,-0.505,
2588,-0.835,-0.505,
2589,-0.82,-0.49,
2590,-0.79,-0.465,
2591,-0.78,-0.45,
2592,-0.755,-0.43,
2593,-0.73,-0.415,
2594,-0.71,-0.39,
2595,-0.7,-0.38,
2596,-0.69,-0.385,
2597,-0.68,-0.375,
2598,-0.67,-0.375,
2599,-0.665,-0.375,
2600,-0.665,-0.375,
2601,-0.66,-0.375,
2602,-0.65,-0.37,
2603,-0.64,-0.36,
2604,-0.625,-0.35,
2605,-0.625,-0.34,
2606,-0.61,-0.335,
2607,-0.61,-0.315,
2608,-0.605,-0.33,
2609,-0.61,-0.335,
2610,-0.615,-0.325,
2611,-0.62,-0.325,
2612,-0.615,-0.33,
2613,-0.615,-0.33,
2614,-0.61,-0.305,
2615,-0.62,-0.305,
2616,-0.615,-0.305,
2617,-0.6,-0.295,
2618,-0.585,-0.3,
2619,-0.59,-0.3,
2620,-0.58,-0.305,
2621,-0.575,-0.305,
2622,-0.59,-0.31,
2623,-0.575,-0.32,
2624,-0.585,-0.325,
2625,-0.59,-0.32,
2626,-0.585,-0.315,
2627,-0.585,-0.315,
2628,-0.575,-0.28,
2629,-0.575,-0.26,
2630,-0.565,-0.25,
2631,-0.555,-0.25,
2632,-0.56,-0.26,
2633,-0.545,-0.25,
2634,-0.555,-0.265,
2635,-0.565,-0.265,
2636,-0.57,-0.265,
2637,-0.575,-0.26,
2638,-0.59,-0.26,
2639,-0.6,-0.255,
2640,-0.585,-0.26,
2641,-0.595,-0.255,
2642,-0.59,-0.245,
2643,-0.575,-0.245,
2644,-0.57,-0.26,
2645,-0.56,-0.26,
2646,-0.575,-0.275,
2647,-0.57,-0.28,
2648,-0.58,-0.3,
2649,-0.595,-0.3,
2650,-0.585,-0.295,
2651,-0.595,-0.29,
2652,-0.58,-0.285,
2653,-0.585,-0.27,
2654,-0.58,-0.27,
2655,-0.575,-0.275,
2656,-0.59,-0.28,
2657,-0.59,-0.29,
2658,-0.6,-0.285,
2659,-0.615,-0.31,
2660,-0.625,-0.32,
2661,-0.61,-0.325,
2662,-0.63,-0.31,
2663,-0.625,-0.32,
2664,-0.62,-0.31,
2665,-0.605,-0.3,
2666,-0.605,-0.295,
2667,-0.61,-0.295,
2668,-0.605,-0.305,
2669,-0.605,-0.315,
2670,-0.625,-0.325,
2671,-0.625,-0.335,
2672,-0.625,-0.34,
2673,-0.62,-0.345,
2674,-0.61,-0.355,
2675,-0.6,-0.335,
2676,-0.585,-0.33,
2677,-0.595,-0.32,
2678,-0.57,-0.315,
2679,-0.575,-0.3,
2680,-0.585,-0.32,
2681,-0.57,-0.32,
2682,-0.58,-0.34,
2683,-0.585,-0.355,
2684,-0.6,-0.35,
2685,-0.6,-0.36,
2686,-0.6,-0.35,
2687,-0.6,-0.345,
2688,-0.6,-0.335,
2689,-0.595,-0.335,
2690,-0.59,-0.33,
2691,-0.575,-0.32,
2692,-0.57,-0.335,
2693,-0.57,-0.33,
2694,-0.56,-0.335,
2695,-0.565,-0.355,
2696,-0.57,-0.355,
2697,-0.58,-0.365,
2698,-0.585,-0.345,
2699,-0.585,-0.35,
2700,-0.575,-0.345,
2701,-0.555,-0.335,
2702,-0.565,-0.335,
2703,-0.55,-0.335,
2704,-0.56,-0.33,
2705,-0.55,-0.34,
2706,-0.56,-0.34,
2707,-0.56,-0.35,
2708,-0.585,-0.36,
2709,-0.6,-0.36,
2710,-0.63,-0.345,
2711,-0.63,-0.34,
2712,-0.625,-0.32,
2713,-0.585,-0.29,
2714,-0.485,-0.235,
2715,-0.325,-0.15,
2716,-0.11,-0.055,
2717,0.125,0.03,
2718,0.42,0.115,
2719,0.73,0.2,
2720,1.025,0.265,
2721,1.305,0.34,
2722,1.52,0.42,
2723,1.67,0.53,
2724,1.71,0.64,N
2725,1.705,0.745,
2726,1.64,0.795,
2727,1.48,0.71,
2728,1.205,0.47,
2729,0.785,0.11,
2730,0.265,-0.325,
2731,-0.285,-0.79,
2732,-0.675,-1.18,
2733,-0.875,-1.4,
2734,-0.9,-1.425,
2735,-0.87,-1.3,
2736,-0.775,-1.105,
2737,-0.72,-0.895,
2738,-0.69,-0.75,
2739,-0.675,-0.655,
2740,-0.7,-0.62,
2741,-0.73,-0.58,
2742,-0.76,-0.555,
2743,-0.78,-0.535,
2744,-0.785,-0.52,
2745,-0.79,-0.48,
2746,-0.78,-0.455,
2747,-0.775,-0.425,
2748,-0.77,-0.4,
2749,-0.76,-0.39,
2750,-0.755,-0.38,
2751,-0.76,-0.375,
2752,-0.76,-0.375,
2753,-0.755,-0.385,
2754,-0.76,-0.385,
2755,-0.77,-0.385,
2756,-0.77,-0.4,
2757,-0.79,-0.395,
2758,-0.775,-0.385,
2759,-0.79,-0.38,
2760,-0.775,-0.365,
2761,-0.785,-0.365,
2762,-0.78,-0.345,
2763,-0.775,-0.35,
2764,-0.78,-0.355,
2765,-0.795,-0.35,
2766,-0.795,-0.36,
2767,-0.815,-0.365,
2768,-0.82,-0.375,
2769,-0.83,-0.385,
2770,-0.825,-0.375,
2771,-0.84,-0.375,
2772,-0.825,-0.365,
2773,-0.835,-0.355,
2774,-0.845,-0.355,
2775,-0.845,-0.345,
2776,-0.855,-0.355,
2777,-0.86,-0.355,
2778,-0.87,-0.37,
2779,-0.875,-0.375,
2780,-0.89,-0.38,
2781,-0.89,-0.395,
2782,-0.895,-0.38,
2783,-0.91,-0.375,
2784,-0.9,-0.36,
2785,-0.91,-0.35,
2786,-0.9,-0.33,
2787,-0.905,-0.345,
2788,-0.91,-0.35,
2789,-0.92,-0.35,
2790,-0.94,-0.365,
2791,-0.965,-0.375,
2792,-0.975,-0.38,
2793,-0.99,-0.385,
2794,-0.995,-0.39,
2795,-1.01,-0.38,
2796,-1.005,-0.38,
2797,-1.005,-0.38,
2798,-1.005,-0.37,
2799,-1.01,-0.375,
2800,-1.01,-0.385,
2801,-1.035,-0.395,
2802,-1.055,-0.41,
2803,-1.07,-0.42,
2804,-1.1,-0.445,
2805,-1.11,-0.455,
2806,-1.12,-0.465,
2807,-1.125,-0.48,
2808,-1.14,-0.485,
2809,-1.15,-0.49,
2810,-1.15,-0.495,
2811,-1.155,-0.505,
2812,-1.15,-0.535,
2813,-1.155,-0.56,
2814,-1.18,-0.565,
2815,-1.205,-0.605,
2816,-1.215,-0.61,
2817,-1.235,-0.63,
2818,-1.245,-0.635,
2819,-1.235,-0.635,
2820,-1.225,-0.635,
2821,-1.205,-0.65,
2822,-1.19,-0.645,
2823,-1.165,-0.635,
2824,-1.145,-0.65,
2825,-1.135,-0.64,
2826,-1.115,-0.645,
2827,-1.1,-0.64,
2828,-1.07,-0.635,
2829,-1.055,-0.63,
2830,-1.02,-0.61,
2831,-1.015,-0.595,
2832,-0.97,-0.565,
2833,-0.925,-0.555,
2834,-0.905,-0.53,
2835,-0.875,-0.505,
2836,-0.865,-0.5,
2837,-0.855,-0.485,
2838,-0.84,-0.485,
2839,-0.84,-0.48,
2840,-0.835,-0.48,
2841,-0.84,-0.47,
2842,-0.81,-0.465,
2843,-0.8,-0.45,
2844,-0.765,-0.415,
2845,-0.765,-0.415,
2846,-0.745,-0.4,
2847,-0.74,-0.395,
2848,-0.74,-0.39,
2849,-0.725,-0.405,
2850,-0.725,-0.395,
2851,-0.735,-0.405,
2852,-0.735,-0.39,
2853,-0.725,-0.405,
2854,-0.72,-0.39,
2855,-0.7,-0.375,
2856,-0.685,-0.36,
2857,-0.68,-0.345,
2858,-0.66,-0.34,
2859,-0.65,-0.33,
2860,-0.65,-0.335,
2861,-0.635,-0.325,
2862,-0.63,-0.325,
2863,-0.63,-0.335,
2864,-0.635,-0.335,
2865,-0.63,-0.34,
2866,-0.62,-0.335,
2867,-0.635,-0.33,
2868,-0.635,-0.33,
2869,-0.61,-0.32,
2870,-0.59,-0.315,
2871,-0.575,-0.31,
2872,-0.56,-0.315,
2873,-0.555,-0.31,
2874,-0.55,-0.32,
2875,-0.555,-0.335,
2876,-0.55,-0.335,
2877,-0.55,-0.33,
2878,-0.56,-0.325,
2879,-0.545,-0.31,
2880,-0.545,-0.295,
2881,-0.535,-0.295,
2882,-0.525,-0.275,
2883,-0.525,-0.275,
2884,-0.51,-0.29,
2885,-0.525,-0.285,
2886,-0.54,-0.3,
2887,-0.55,-0.3,
2888,-0.57,-0.31,
2889,-0.575,-0.3,
2890,-0.57,-0.3,
2891,-0.575,-0.3,
2892,-0.58,-0.29,
2893,-0.595,-0.285,
2894,-0.59,-0.28,
2895,-0.595,-0.285,
2896,-0.595,-0.29,
2897,-0.61,-0.275,
2898,-0.615,-0.295,
2899,-0.635,-0.305,
2900,-0.645,-0.32,
2901,-0.665,-0.325,
2902,-0.68,-0.315,
2903,-0.665,-0.315,
2904,-0.68,-0.31,
2905,-0.67,-0.305,
2906,-0.685,-0.305,
2907,-0.665,-0.3,
2908,-0.675,-0.315,
2909,-0.685,-0.31,
2910,-0.685,-0.335,
2911,-0.71,-0.34,
2912,-0.705,-0.345,
2913,-0.72,-0.355,
2914,-0.72,-0.34,
2915,-0.705,-0.335,
2916,-0.695,-0.335,
2917,-0.675,-0.33,
2918,-0.66,-0.32,
2919,-0.66,-0.32,
2920,-0.665,-0.32,
2921,-0.665,-0.325,
2922,-0.675,-0.335,
2923,-0.675,-0.335,
2924,-0.68,-0.345,
2925,-0.685,-0.335,
2926,-0.67,-0.32,
2927,-0.65,-0.33,
2928,-0.64,-0.325,
2929,-0.62,-0.31,
2930,-0.61,-0.315,
2931,-0.59,-0.305,
2932,-0.59,-0.305,
2933,-0.585,-0.32,
2934,-0.585,-0.34,
2935,-0.59,-0.345,
2936,-0.585,-0.355,
2937,-0.595,-0.355,
2938,-0.585,-0.34,
2939,-0.58,-0.335,
2940,-0.575,-0.335,
2941,-0.565,-0.325,
2942,-0.545,-0.32,
2943,-0.545,-0.315,
2944,-0.545,-0.33,
2945,-0.555,-0.315,
2946,-0.555,-0.335,
2947,-0.575,-0.335,
2948,-0.585,-0.35,
2949,-0.59,-0.355,
2950,-0.6,-0.345,
2951,-0.6,-0.355,
2952,-0.605,-0.34,
2953,-0.6,-0.34,
2954,-0.605,-0.335,
2955,-0.625,-0.34,
2956,-0.635,-0.35,
2957,-0.655,-0.35,
2958,-0.665,-0.37,
2959,-0.685,-0.375,
2960,-0.7,-0.385,
2961,-0.705,-0.39,
2962,-0.715,-0.395,
2963,-0.725,-0.39,
2964,-0.72,-0.395,
2965,-0.735,-0.4,
2966,-0.735,-0.4,
2967,-0.72,-0.38,
2968,-0.715,-0.4,
2969,-0.705,-0.385,
2970,-0.705,-0.38,
2971,-0.715,-0.38,
2972,-0.71,-0.39,
2973,-0.71,-0.4,
2974,-0.72,-0.385,
2975,-0.715,-0.38,
2976,-0.71,-0.365,
2977,-0.685,-0.35,
2978,-0.67,-0.35,
2979,-0.635,-0.34,
2980,-0.635,-0.34,
2981,-0.63,-0.35,
2982,-0.645,-0.34,
2983,-0.64,-0.355,
2984,-0.64,-0.355,
2985,-0.645,-0.375,
2986,-0.63,-0.35,
2987,-0.635,-0.35,
2988,-0.61,-0.335,
2989,-0.595,-0.325,
2990,-0.58,-0.315,
2991,-0.57,-0.305,
2992,-0.565,-0.315,
2993,-0.565,-0.315,
2994,-0.57,-0.325,
2995,-0.58,-0.335,
2996,-0.615,-0.33,
2997,-0.645,-0.32,
2998,-0.66,-0.32,
2999,-0.625,-0.295,
3000,-0.52,-0.245,
3001,-0.37,-0.17,
3002,-0.165,-0.075,
3003,0.085,0.015,
3004,0.35,0.09,
3005,0.65,0.195,
3006,0.955,0.255,
3007,1.235,0.325,
3008,1.47,0.39,
3009,1.635,0.465,
3010,1.73,0.565,
3011,1.75,0.67,N
3012,1.705,0.78,
3013,1.62,0.8,
3014,1.505,0.715,
3015,1.27,0.495,
3016,0.885,0.13,
3017,0.36,-0.295,
3018,-0.175,-0.74,
3019,-0.605,-1.14,
3020,-0.85,-1.4,
3021,-0.925,-1.485,
3022,-0.895,-1.39,
3023,-0.84,-1.215,
3024,-0.775,-1.01,
3025,-0.73,-0.85,
3026,-0.715,-0.725,
3027,-0.735,-0.665,
3028,-0.765,-0.61,
3029,-0.79,-0.58,
3030,-0.82,-0.555,
3031,-0.83,-0.525,
3032,-0.85,-0.505,
3033,-0.85,-0.48,
3034,-0.84,-0.46,
3035,-0.835,-0.43,
3036,-0.83,-0.405,
3037,-0.825,-0.375,
3038,-0.815,-0.36,
3039,-0.81,-0.355,
3040,-0.82,-0.36,
3041,-0.835,-0.35,
3042,-0.835,-0.355,
3043,-0.855,-0.36,
3044,-0.86,-0.37,
3045,-0.87,-0.37,
3046,-0.885,-0.365,
3047,-0.87,-0.365,
3048,-0.875,-0.365,
3049,-0.86,-0.35,
3050,-0.85,-0.345,
3051,-0.855,-0.345,
3052,-0.84,-0.345,
3053,-0.85,-0.345,
3054,-0.86,-0.365,
3055,-0.87,-0.365,
3056,-0.875,-0.37,
3057,-0.87,-0.38,
3058,-0.88,-0.385,
3059,-0.875,-0.37,
3060,-0.885,-0.35,
3061,-0.88,-0.35,
3062,-0.875,-0.355,
3063,-0.88,-0.365,
3064,-0.89,-0.37,
3065,-0.9,-0.375,
3066,-0.905,-0.385,
3067,-0.905,-0.395,
3068,-0.91,-0.39,
3069,-0.91,-0.4,
3070,-0.93,-0.39,
3071,-0.935,-0.38,
3072,-0.935,-0.37,
3073,-0.94,-0.375,
3074,-0.945,-0.385,
3075,-0.945,-0.38,
3076,-0.955,-0.395,
3077,-0.965,-0.405,
3078,-0.98,-0.415,
3079,-0.985,-0.43,
3080,-1.0,-0.42,
3081,-1.005,-0.435,
3082,-1.02,-0.43,
3083,-1.025,-0.42,
3084,-1.035,-0.425,
3085,-1.04,-0.415,
3086,-1.025,-0.42,
3087,-1.05,-0.415,
3088,-1.06,-0.43,
3089,-1.08,-0.435,
3090,-1.11,-0.46,
3091,-1.125,-0.47,
3092,-1.165,-0.48,
3093,-1.175,-0.495,
3094,-1.175,-0.505,
3095,-1.19,-0.505,
3096,-1.195,-0.51,
3097,-1.205,-0.53,
3098,-1.215,-0.535,
3099,-1.215,-0.54,
3100,-1.225,-0.57,
3101,-1.245,-0.585,
3102,-1.265,-0.6,
3103,-1.285,-0.63,
3104,-1.315,-0.64,
3105,-1.325,-0.665,
3106,-1.34,-0.67,
3107,-1.34,-0.675,
3108,-1.33,-0.68,
3109,-1.325,-0.685,
3110,-1.32,-0.695,
3111,-1.3,-0.69,
3112,-1.285,-0.715,
3113,-1.275,-0.72,
3114,-1.25,-0.715,
3115,-1.215,-0.73,
3116,-1.205,-0.725,
3117,-1.175,-0.715,
3118,-1.155,-0.695,
3119,-1.13,-0.67,
3120,-1.085,-0.66,
3121,-1.04,-0.625,
3122,-1.0,-0.62,
3123,-0.955,-0.585,
3124,-0.905,-0.585,
3125,-0.885,-0.55,
3126,-0.875,-0.555,
3127,-0.85,-0.54,
3128,-0.84,-0.545,
3129,-0.825,-0.525,
3130,-0.81,-0.515,
3131,-0.79,-0.495,
3132,-0.77,-0.475,
3133,-0.755,-0.465,
3134,-0.735,-0.445,
3135,-0.735,-0.425,
3136,-0.72,-0.43,
3137,-0.715,-0.43,
3138,-0.715,-0.43,
3139,-0.71,-0.425,
3140,-0.705,-0.415,
3141,-0.705,-0.415,
3142,-0.7,-0.415,
3143,-0.695,-0.405,
3144,-0.69,-0.4,
3145,-0.68,-0.385,
3146,-0.675,-0.37,
3147,-0.66,-0.37,
3148,-0.655,-0.38,
3149,-0.655,-0.38,
3150,-0.675,-0.39,
3151,-0.665,-0.405,
3152,-0.665,-0.4,
3153,-0.665,-0.405,
3154,-0.67,-0.395,
3155,-0.665,-0.395,
3156,-0.655,-0.375,
3157,-0.64,-0.37,
3158,-0.625,-0.35,
3159,-0.625,-0.34,
3160,-0.62,-0.35,
3161,-0.61,-0.345,
3162,-0.61,-0.335,
3163,-0.6,-0.345,
3164,-0.61,-0.34,
3165,-0.605,-0.34,
3166,-0.615,-0.325,
3167,-0.6,-0.315,
3168,-0.605,-0.305,
3169,-0.6,-0.29,
3170,-0.6,-0.29,
3171,-0.595,-0.285,
3172,-0.6,-0.29,
3173,-0.595,-0.275,
3174,-0.59,-0.285,
3175,-0.595,-0.285,
3176,-0.6,-0.275,
3177,-0.6,-0.285,
3178,-0.605,-0.28,
3179,-0.6,-0.265,
3180,-0.6,-0.26,
3181,-0.6,-0.25,
3182,-0.595,-0.245,
3183,-0.59,-0.24,
3184,-0.6,-0.25,
3185,-0.6,-0.255,
3186,-0.605,-0.26,
3187,-0.615,-0.27,
3188,-0.615,-0.27,
3189,-0.625,-0.265,
3190,-0.625,-0.285,
3191,-0.615,-0.27,
3192,-0.615,-0.265,
3193,-0.61,-0.265,
3194,-0.595,-0.265,
3195,-0.6,-0.27,
3196,-0.59,-0.285,
3197,-0.605,-0.285,
3198,-0.605,-0.285,
3199,-0.6,-0.285,
3200,-0.62,-0.295,
3201,-0.61,-0.295,
3202,-0.61,-0.28,
3203,-0.605,-0.28,
3204,-0.595,-0.285,
3205,-0.59,-0.275,
3206,-0.56,-0.275,
3207,-0.55,-0.265,
3208,-0.55,-0.27,
3209,-0.545,-0.28,
3210,-0.555,-0.285,
3211,-0.555,-0.285,
3212,-0.57,-0.29,
3213,-0.565,-0.3,
3214,-0.58,-0.295,
3215,-0.595,-0.285,
3216,-0.625,-0.275,
3217,-0.65,-0.27,
3218,-0.67,-0.26,
3219,-0.64,-0.24,
3220,-0.57,-0.22,
3221,-0.43,-0.155,
3222,-0.255,-0.08,
3223,-0.02,0.02,
3224,0.27,0.12,
3225,0.595,0.21,
3226,0.955,0.31,
3227,1.275,0.41,
3228,1.52,0.515,
3229,1.68,0.615,
3230,1.735,0.725,N
3231,1.715,0.83,
3232,1.605,0.83,
3233,1.395,0.705,
3234,1.03,0.4,
3235,0.505,-0.06,
3236,-0.065,-0.595,
3237,-0.545,-1.065,
3238,-0.81,-1.375,
3239,-0.9,-1.48,
3240,-0.86,-1.375,
3241,-0.745,-1.155,
3242,-0.655,-0.915,
3243,-0.6,-0.725,
3244,-0.6,-0.605,
3245,-0.625,-0.535,
3246,-0.66,-0.505,
3247,-0.715,-0.505,
3248,-0.735,-0.475,
3249,-0.75,-0.46,
3250,-0.755,-0.43,
3251,-0.735,-0.405,
3252,-0.725,-0.365,
3253,-0.72,-0.35,
3254,-0.725,-0.34,
3255,-0.72,-0.33,
3256,-0.73,-0.33,
3257,-0.725,-0.33,
3258,-0.74,-0.335,
3259,-0.73,-0.34,
3260,-0.75,-0.325,
3261,-0.755,-0.325,
3262,-0.765,-0.315,
3263,-0.775,-0.305,
3264,-0.76,-0.29,
3265,-0.76,-0.285,
3266,-0.765,-0.27,
3267,-0.76,-0.28,
3268,-0.795,-0.285,
3269,-0.795,-0.29,
3270,-0.81,-0.3,
3271,-0.82,-0.3,
3272,-0.83,-0.315,
3273,-0.84,-0.315,
3274,-0.84,-0.305,
3275,-0.855,-0.295,
3276,-0.85,-0.3,
3277,-0.84,-0.3,
3278,-0.845,-0.3,
3279,-0.835,-0.295,
3280,-0.84,-0.32,
3281,-0.85,-0.32,
3282,-0.865,-0.335,
3283,-0.87,-0.345,
3284,-0.875,-0.36,
3285,-0.885,-0.365,
3286,-0.905,-0.365,
3287,-0.915,-0.36,
3288,-0.92,-0.365,
3289,-0.925,-0.34,
3290,-0.93,-0.345,
3291,-0.925,-0.34,
3292,-0.93,-0.36,
3293,-0.935,-0.36,
3294,-0.925,-0.37,
3295,-0.95,-0.38,
3296,-0.96,-0.385,
3297,-0.97,-0.395,
3298,-0.99,-0.385,
3299,-0.985,-0.38,
3300,-0.99,-0.38,
3301,-0.99,-0.38,
3302,-0.995,-0.365,
3303,-0.995,-0.365,
3304,-0.995,-0.38,
3305,-1.01,-0.395,
3306,-1.02,-0.405,
3307,-1.04,-0.42,
3308,-1.055,-0.435,
3309,-1.065,-0.435,
3310,-1.07,-0.455,
3311,-1.075,-0.47,
3312,-1.075,-0.46,
3313,-1.07,-0.465,
3314,-1.075,-0.46,
3315,-1.07,-0.475,
3316,-1.08,-0.485,
3317,-1.08,-0.49,
3318,-1.09,-0.505,
3319,-1.1,-0.535,
3320,-1.105,-0.545,
3321,-1.11,-0.555,
3322,-1.115,-0.55,
3323,-1.11,-0.56,
3324,-1.095,-0.57,
3325,-1.08,-0.555,
3326,-1.05,-0.56,
3327,-1.035,-0.55,
3328,-1.015,-0.555,
3329,-0.985,-0.55,
3330,-0.96,-0.56,
3331,-0.935,-0.545,
3332,-0.915,-0.545,
3333,-0.885,-0.53,
3334,-0.855,-0.515,
3335,-0.84,-0.495,
3336,-0.815,-0.48,
3337,-0.79,-0.45,
3338,-0.765,-0.445,
3339,-0.735,-0.415,
3340,-0.7,-0.42,
3341,-0.71,-0.41,
3342,-0.715,-0.43,
3343,-0.705,-0.425,
3344,-0.71,-0.43,
3345,-0.725,-0.44,
3346,-0.725,-0.44,
3347,-0.725,-0.435,
3348,-0.705,-0.435,
3349,-0.68,-0.425,
3350,-0.68,-0.425,
3351,-0.67,-0.42,
3352,-0.675,-0.415,
3353,-0.67,-0.425,
3354,-0.675,-0.435,
3355,-0.675,-0.43,
3356,-0.68,-0.44,
3357,-0.685,-0.455,
3358,-0.695,-0.44,
3359,-0.685,-0.435,
3360,-0.69,-0.425,
3361,-0.685,-0.425,
3362,-0.69,-0.42,
3363,-0.675,-0.41,
3364,-0.67,-0.425,
3365,-0.66,-0.425,
3366,-0.68,-0.425,
3367,-0.68,-0.42,
3368,-0.67,-0.415,
3369,-0.665,-0.415,
3370,-0.66,-0.41,
3371,-0.65,-0.4,
3372,-0.645,-0.38,
3373,-0.625,-0.37,
3374,-0.615,-0.365,
3375,-0.605,-0.36,
3376,-0.615,-0.36,
3377,-0.61,-0.36,
3378,-0.61,-0.36,
3379,-0.62,-0.37,
3380,-0.605,-0.365,
3381,-0.615,-0.375,
3382,-0.615,-0.365,
3383,-0.605,-0.37,
3384,-0.6,-0.355,
3385,-0.595,-0.345,
3386,-0.585,-0.335,
3387,-0.58,-0.34,
3388,-0.565,-0.325,
3389,-0.57,-0.335,
3390,-0.575,-0.34,
3391,-0.58,-0.35,
3392,-0.585,-0.355,
3393,-0.585,-0.355,
3394,-0.585,-0.355,
3395,-0.565,-0.365,
3396,-0.55,-0.345,
3397,-0.55,-0.335,
3398,-0.55,-0.33,
3399,-0.525,-0.315,
3400,-0.535,-0.335,
3401,-0.54,-0.33,
3402,-0.545,-0.355,
3403,-0.56,-0.365,
3404,-0.56,-0.36,
3405,-0.585,-0.365,
3406,-0.59,-0.365,
3407,-0.6,-0.35,
3408,-0.595,-0.365,
3409,-0.59,-0.35,
3410,-0.595,-0.345,
3411,-0.595,-0.345,
3412,-0.595,-0.36,
3413,-0.595,-0.36,
3414,-0.605,-0.385,
3415,-0.605,-0.395,
3416,-0.62,-0.395,
3417,-0.64,-0.415,
3418,-0.645,-0.405,
3419,-0.645,-0.41,
3420,-0.635,-0.4,
3421,-0.635,-0.4,
3422,-0.63,-0.395,
3423,-0.625,-0.385,
3424,-0.625,-0.385,
3425,-0.63,-0.39,
3426,-0.62,-0.395,
3427,-0.635,-0.42,
3428,-0.63,-0.42,
3429,-0.635,-0.425,
3430,-0.635,-0.415,
3431,-0.63,-0.425,
3432,-0.62,-0.41,
3433,-0.615,-0.4,
3434,-0.62,-0.39,
3435,-0.62,-0.365,
3436,-0.595,-0.365,
3437,-0.585,-0.355,
3438,-0.59,-0.36,
3439,-0.605,-0.355,
3440,-0.595,-0.36,
3441,-0.6,-0.36,
3442,-0.625,-0.345,
3443,-0.66,-0.335,
3444,-0.68,-0.335,
3445,-0.675,-0.325,
3446,-0.66,-0.305,
3447,-0.58,-0.25,
3448,-0.445,-0.2,
3449,-0.245,-0.115,
3450,-0.005,-0.02,
3451,0.27,0.075,
3452,0.59,0.15,
3453,0.9,0.225,
3454,1.21,0.32,
3455,1.46,0.41,
3456,1.625,0.51,
3457,1.695,0.62,N
3458,1.685,0.735,
3459,1.63,0.78,
3460,1.5,0.71,
3461,1.235,0.485,
3462,0.815,0.105,
3463,0.27,-0.365,
3464,-0.24,-0.84,
3465,-0.6,-1.21,
3466,-0.78,-1.395,
3467,-0.82,-1.375,
3468,-0.76,-1.23,
3469,-0.685,-1.035,
3470,-0.64,-0.855,
3471,-0.6,-0.73,
3472,-0.595,-0.66,
3473,-0.615,-0.62,
3474,-0.66,-0.585,
3475,-0.69,-0.575,
3476,-0.715,-0.56,
3477,-0.71,-0.54,
3478,-0.71,-0.495,
3479,-0.715,-0.475,
3480,-0.725,-0.45,
3481,-0.745,-0.435,
3482,-0.755,-0.43,
3483,-0.77,-0.425,
3484,-0.775,-0.43,
3485,-0.79,-0.445,
3486,-0.8,-0.44,
3487,-0.81,-0.45,
3488,-0.82,-0.465,
3489,-0.84,-0.46,
3490,-0.845,-0.45,
3491,-0.84,-0.445,
3492,-0.85,-0.425,
3493,-0.845,-0.425,
3494,-0.835,-0.42,
3495,-0.835,-0.405,
3496,-0.855,-0.43,
3497,-0.87,-0.43,
3498,-0.885,-0.43,
3499,-0.895,-0.445,
3500,-0.91,-0.46,
3501,-0.92,-0.47,
3502,-0.935,-0.465,
3503,-0.935,-0.455,
3504,-0.935,-0.455,
3505,-0.955,-0.45,
3506,-0.94,-0.435,
3507,-0.94,-0.425,
3508,-0.945,-0.44,
3509,-0.955,-0.435,
3510,-0.965,-0.44,
3511,-0.965,-0.45,
3512,-0.945,-0.44,
3513,-0.95,-0.44,
3514,-0.95,-0.425,
3515,-0.95,-0.41,
3516,-0.945,-0.41,
3517,-0.93,-0.39,
3518,-0.925,-0.395,
3519,-0.925,-0.39,
3520,-0.92,-0.405,
3521,-0.915,-0.405,
3522,-0.93,-0.415,
3523,-0.93,-0.43,
3524,-0.955,-0.44,
3525,-0.96,-0.45,
3526,-0.975,-0.45,
3527,-0.975,-0.465,
3528,-0.97,-0.47,
3529,-0.98,-0.48,
3530,-0.995,-0.48,
3531,-0.995,-0.49,
3532,-1.015,-0.52,
3533,-1.035,-0.525,
3534,-1.06,-0.55,
3535,-1.095,-0.575,
3536,-1.115,-0.6,
3537,-1.13,-0.62,
3538,-1.16,-0.635,
3539,-1.17,-0.645,
3540,-1.185,-0.655,
3541,-1.2,-0.675,
3542,-1.19,-0.68,
3543,-1.21,-0.685,
3544,-1.23,-0.715,
3545,-1.25,-0.735,
3546,-1.265,-0.755,
3547,-1.29,-0.775,
3548,-1.31,-0.785,
3549,-1.31,-0.795,
3550,-1.31,-0.79,
3551,-1.29,-0.8,
3552,-1.27,-0.785,
3553,-1.225,-0.775,
3554,-1.2,-0.775,
3555,-1.165,-0.75,
3556,-1.14,-0.75,
3557,-1.105,-0.735,
3558,-1.075,-0.735,
3559,-1.05,-0.72,
3560,-1.025,-0.71,
3561,-0.99,-0.695,
3562,-0.97,-0.67,
3563,-0.935,-0.64,
3564,-0.91,-0.615,
3565,-0.855,-0.585,
3566,-0.83,-0.56,
3567,-0.805,-0.55,
3568,-0.785,-0.54,
3569,-0.77,-0.53,
3570,-0.775,-0.525,
3571,-0.765,-0.52,
3572,-0.76,-0.52,
3573,-0.75,-0.51,
3574,-0.74,-0.495,
3575,-0.72,-0.505,
3576,-0.705,-0.485,
3577,-0.68,-0.485,
3578,-0.675,-0.47,
3579,-0.665,-0.46,
3580,-0.66,-0.455,
3581,-0.65,-0.45,
3582,-0.645,-0.46,
3583,-0.63,-0.46,
3584,-0.635,-0.455,
3585,-0.635,-0.47,
3586,-0.645,-0.455,
3587,-0.62,-0.465,
3588,-0.62,-0.45,
3589,-0.61,-0.445,
3590,-0.605,-0.44,
3591,-0.595,-0.435,
3592,-0.595,-0.44,
3593,-0.6,-0.445,
3594,-0.615,-0.44,
3595,-0.635,-0.46,
3596,-0.625,-0.47,
3597,-0.635,-0.46,
3598,-0.645,-0.465,
3599,-0.635,-0.455,
3600,-0.635,-0.455,
3601,-0.625,-0.445,
3602,-0.62,-0.435,
3603,-0.6,-0.43,
3604,-0.595,-0.435,
3605,-0.595,-0.435,
3606,-0.605,-0.455,
3607,-0.62,-0.455,
3608,-0.625,-0.465,
3609,-0.645,-0.47,
3610,-0.655,-0.465,
3611,-0.655,-0.465,
3612,-0.645,-0.445,
3613,-0.64,-0.44,
3614,-0.63,-0.445,
3615,-0.615,-0.43,
3616,-0.62,-0.435,
3617,-0.61,-0.44,
3618,-0.625,-0.44,
3619,-0.63,-0.445,
3620,-0.63,-0.45,
3621,-0.625,-0.44,
3622,-0.63,-0.435,
3623,-0.625,-0.435,
3624,-0.62,-0.42,
3625,-0.615,-0.4,
3626,-0.605,-0.395,
3627,-0.6,-0.395,
3628,-0.595,-0.405,
3629,-0.59,-0.41,
3630,-0.6,-0.4,
3631,-0.605,-0.425,
3632,-0.615,-0.445,
3633,-0.61,-0.435,
3634,-0.61,-0.435,
3635,-0.615,-0.44,
3636,-0.625,-0.425,
3637,-0.6,-0.42,
3638,-0.595,-0.41,
3639,-0.615,-0.39,
3640,-0.615,-0.415,
3641,-0.61,-0.415,
3642,-0.605,-0.435,
3643,-0.61,-0.435,
3644,-0.615,-0.44,
3645,-0.625,-0.465,
3646,-0.62,-0.45,
3647,-0.635,-0.445,
3648,-0.635,-0.44,
3649,-0.62,-0.435,
3650,-0.625,-0.435,
3651,-0.605,-0.435,
3652,-0.61,-0.45,
3653,-0.64,-0.44,
3654,-0.63,-0.455,
3655,-0.645,-0.465,
3656,-0.65,-0.47,
3657,-0.665,-0.49,
3658,-0.66,-0.48,
3659,-0.665,-0.475,
3660,-0.67,-0.47,
3661,-0.66,-0.46,
3662,-0.655,-0.465,
3663,-0.64,-0.46,
3664,-0.635,-0.47,
3665,-0.64,-0.47,
3666,-0.645,-0.485,
3667,-0.655,-0.5,
3668,-0.655,-0.5,
3669,-0.66,-0.51,
3670,-0.67,-0.505,
3671,-0.66,-0.495,
3672,-0.67,-0.49,
3673,-0.67,-0.495,
3674,-0.66,-0.485,
3675,-0.655,-0.49,
3676,-0.655,-0.485,
3677,-0.655,-0.495,
3678,-0.64,-0.51,
3679,-0.665,-0.515,
3680,-0.665,-0.51,
3681,-0.66,-0.515,
3682,-0.66,-0.515,
3683,-0.655,-0.505,
3684,-0.645,-0.505,
3685,-0.65,-0.495,
3686,-0.64,-0.475,
3687,-0.63,-0.47,
3688,-0.61,-0.47,
3689,-0.615,-0.475,
3690,-0.615,-0.47,
3691,-0.645,-0.465,
3692,-0.645,-0.48,
3693,-0.635,-0.48,
3694,-0.65,-0.48,
3695,-0.645,-0.47,
3696,-0.63,-0.455,
3697,-0.635,-0.45,
3698,-0.63,-0.45,
3699,-0.615,-0.44,
3700,-0.625,-0.455,
3701,-0.63,-0.46,
3702,-0.64,-0.47,
3703,-0.645,-0.48,
3704,-0.645,-0.485,
3705,-0.655,-0.495,
3706,-0.65,-0.485,
3707,-0.65,-0.48,
3708,-0.65,-0.48,
3709,-0.645,-0.475,
3710,-0.64,-0.475,
3711,-0.635,-0.475,
3712,-0.63,-0.48,
3713,-0.64,-0.49,
3714,-0.64,-0.495,
3715,-0.655,-0.5,
3716,-0.655,-0.5,
3717,-0.655,-0.51,
3718,-0.67,-0.51,
3719,-0.67,-0.495,
3720,-0.66,-0.495,
3721,-0.645,-0.48,
3722,-0.645,-0.475,
3723,-0.64,-0.475,
3724,-0.635,-0.48,
3725,-0.645,-0.485,
3726,-0.655,-0.515,
3727,-0.655,-0.51,
3728,-0.675,-0.515,
3729,-0.675,-0.52,
3730,-0.685,-0.525,
3731,-0.695,-0.52,
3732,-0.695,-0.51,
3733,-0.685,-0.505,
3734,-0.685,-0.485,
3735,-0.675,-0.485,
3736,-0.67,-0.485,
3737,-0.685,-0.495,
3738,-0.68,-0.505,
3739,-0.685,-0.51,
3740,-0.72,-0.51,
3741,-0.72,-0.525,
3742,-0.71,-0.525,
3743,-0.705,-0.515,
3744,-0.715,-0.51,
3745,-0.705,-0.51,
3746,-0.7,-0.5,
3747,-0.69,-0.49,
3748,-0.675,-0.495,
3749,-0.68,-0.5,
3750,-0.68,-0.5,
3751,-0.68,-0.5,
3752,-0.69,-0.515,
3753,-0.685,-0.525,
3754,-0.68,-0.51,
3755,-0.67,-0.52,
3756,-0.67,-0.51,
3757,-0.66,-0.505,
3758,-0.665,-0.5,
3759,-0.655,-0.495,
3760,-0.68,-0.5,
3761,-0.665,-0.51,
3762,-0.675,-0.52,
3763,-0.685,-0.525,
3764,-0.675,-0.535,
3765,-0.68,-0.54,
3766,-0.67,-0.54,
3767,-0.66,-0.535,
3768,-0.65,-0.52,
3769,-0.635,-0.525,
3770,-0.63,-0.525,
3771,-0.64,-0.515,
3772,-0.63,-0.525,
3773,-0.645,-0.53,
3774,-0.665,-0.535,
3775,-0.675,-0.545,
3776,-0.68,-0.555,
3777,-0.68,-0.565,
3778,-0.665,-0.545,
3779,-0.655,-0.535,
3780,-0.65,-0.53,
3781,-0.65,-0.525,
3782,-0.64,-0.5,
3783,-0.635,-0.49,
3784,-0.63,-0.51,
3785,-0.635,-0.515,
3786,-0.64,-0.515,
3787,-0.66,-0.525,
3788,-0.66,-0.535,
3789,-0.69,-0.54,
3790,-0.68,-0.55,
3791,-0.685,-0.545,
3792,-0.685,-0.535,
3793,-0.68,-0.525,
3794,-0.67,-0.525,
3795,-0.655,-0.51,
3796,-0.65,-0.52,
3797,-0.655,-0.525,
3798,-0.665,-0.54,
3799,-0.675,-0.54,
3800,-0.69,-0.55,
3801,-0.705,-0.55,
3802,-0.72,-0.55,
3803,-0.71,-0.555,
3804,-0.71,-0.555,
3805,-0.715,-0.545,
3806,-0.71,-0.555,
3807,-0.715,-0.54,
3808,-0.705,-0.56,
3809,-0.705,-0.55,
3810,-0.7,-0.545,
3811,-0.7,-0.555,
3812,-0.705,-0.56,
3813,-0.715,-0.57,
3814,-0.705,-0.575,
3815,-0.695,-0.56,
3816,-0.7,-0.56,
3817,-0.685,-0.55,
3818,-0.675,-0.55,
3819,-0.665,-0.535,
3820,-0.66,-0.55,
3821,-0.665,-0.54,
3822,-0.665,-0.56,
3823,-0.665,-0.56,
3824,-0.665,-0.56,
3825,-0.65,-0.57,
3826,-0.645,-0.56,
3827,-0.63,-0.555,
3828,-0.625,-0.545,
3829,-0.62,-0.545,
3830,-0.62,-0.53,
3831,-0.62,-0.525,
3832,-0.615,-0.535,
3833,-0.615,-0.535,
3834,-0.625,-0.545,
3835,-0.625,-0.555,
3836,-0.64,-0.56,
3837,-0.645,-0.56,
3838,-0.63,-0.55,
3839,-0.625,-0.55,
3840,-0.62,-0.525,
3841,-0.62,-0.53,
3842,-0.62,-0.51,
3843,-0.61,-0.495,
3844,-0.62,-0.505,
3845,-0.62,-0.52,
3846,-0.605,-0.515,
3847,-0.62,-0.54,
3848,-0.655,-0.54,
3849,-0.675,-0.54,
3850,-0.7,-0.55,
3851,-0.725,-0.535,
3852,-0.72,-0.515,
3853,-0.65,-0.48,
3854,-0.525,-0.41,
3855,-0.35,-0.33,
3856,-0.135,-0.24,
3857,0.115,-0.15,
3858,0.38,-0.06,
3859,0.695,0.015,
3860,0.985,0.07,
3861,1.25,0.14,
3862,1.465,0.23,
3863,1.615,0.32,
3864,1.675,0.425,N
3865,1.67,0.53,
3866,1.62,0.58,
3867,1.52,0.555,
3868,1.32,0.38,
3869,0.955,0.075,
3870,0.48,-0.335,
3871,-0.075,-0.79,
3872,-0.54,-1.195,
3873,-0.835,-1.47,
3874,-0.945,-1.57,
3875,-0.935,-1.51,
3876,-0.865,-1.33,
3877,-0.8,-1.15,
3878,-0.74,-0.995,
3879,-0.735,-0.89,
3880,-0.73,-0.83,
3881,-0.745,-0.785,
3882,-0.755,-0.76,
3883,-0.79,-0.725,
3884,-0.795,-0.71,
3885,-0.79,-0.69,
3886,-0.78,-0.65,
3887,-0.77,-0.605,
3888,-0.76,-0.58,
3889,-0.75,-0.565,
3890,-0.75,-0.54,
3891,-0.77,-0.535,
3892,-0.78,-0.53,
3893,-0.8,-0.54,
3894,-0.805,-0.54,
3895,-0.825,-0.545,
3896,-0.84,-0.56,
3897,-0.86,-0.565,
3898,-0.87,-0.565,
3899,-0.87,-0.565,
3900,-0.87,-0.555,
3901,-0.86,-0.535,
3902,-0.87,-0.535,
3903,-0.865,-0.535,
3904,-0.875,-0.53,
3905,-0.875,-0.53,
3906,-0.885,-0.535,
3907,-0.9,-0.54,
3908,-0.915,-0.56,
3909,-0.925,-0.575,
3910,-0.94,-0.57,
3911,-0.94,-0.575,
3912,-0.94,-0.575,
3913,-0.935,-0.565,
3914,-0.93,-0.575,
3915,-0.935,-0.57,
3916,-0.945,-0.585,
3917,-0.95,-0.6,
3918,-0.955,-0.605,
3919,-0.98,-0.63,
3920,-1.0,-0.63,
3921,-1.015,-0.64,
3922,-1.025,-0.63,
3923,-1.02,-0.635,
3924,-1.02,-0.635,
3925,-1.015,-0.615,
3926,-1.02,-0.615,
3927,-1.01,-0.61,
3928,-1.015,-0.625,
3929,-1.01,-0.63,
3930,-1.005,-0.64,
3931,-1.02,-0.655,
3932,-1.03,-0.665,
3933,-1.035,-0.67,
3934,-1.04,-0.675,
3935,-1.05,-0.675,
3936,-1.055,-0.675,
3937,-1.05,-0.665,
3938,-1.065,-0.65,
3939,-1.05,-0.65,
3940,-1.065,-0.66,
3941,-1.075,-0.665,
3942,-1.085,-0.68,
3943,-1.095,-0.685,
3944,-1.12,-0.705,
3945,-1.135,-0.715,
3946,-1.15,-0.725,
3947,-1.155,-0.735,
3948,-1.155,-0.74,
3949,-1.17,-0.75,
3950,-1.18,-0.75,
3951,-1.185,-0.77,
3952,-1.21,-0.775,
3953,-1.225,-0.8,
3954,-1.235,-0.82,
3955,-1.265,-0.845,
3956,-1.27,-0.87,
3957,-1.305,-0.88,
3958,-1.325,-0.9,
3959,-1.345,-0.915,
3960,-1.34,-0.93,
3961,-1.345,-0.935,
3962,-1.34,-0.935,
3963,-1.355,-0.945,
3964,-1.345,-0.975,
3965,-1.355,-0.985,
3966,-1.355,-0.995,
3967,-1.355,-1.0,
3968,-1.345,-1.01,
3969,-1.335,-1.035,
3970,-1.33,-1.03,
3971,-1.305,-1.02,
3972,-1.285,-1.0,
3973,-1.245,-1.0,
3974,-1.215,-0.97,
3975,-1.165,-0.945,
3976,-1.13,-0.93,
3977,-1.105,-0.92,
3978,-1.06,-0.895,
3979,-1.035,-0.89,
3980,-1.015,-0.87,
3981,-0.995,-0.835,
3982,-0.965,-0.82,
3983,-0.94,-0.795,
3984,-0.905,-0.765,
3985,-0.87,-0.74,
3986,-0.835,-0.715,
3987,-0.825,-0.69,
3988,-0.79,-0.68,
3989,-0.765,-0.665,
3990,-0.75,-0.655,
3991,-0.735,-0.635,
3992,-0.71,-0.63,
3993,-0.715,-0.62,
3994,-0.675,-0.615,
3995,-0.66,-0.585,
3996,-0.645,-0.575,
3997,-0.625,-0.565,
3998,-0.615,-0.555,
3999,-0.61,-0.54,
4000,-0.6,-0.53,
4001,-0.615,-0.535,
4002,-0.62,-0.53,
4003,-0.615,-0.535,
4004,-0.62,-0.555,
4005,-0.625,-0.55,
4006,-0.64,-0.55,
4007,-0.64,-0.545,
4008,-0.655,-0.535,
4009,-0.645,-0.53,
4010,-0.645,-0.52,
4011,-0.655,-0.505,
4012,-0.655,-0.515,
4013,-0.66,-0.505,
4014,-0.665,-0.52,
4015,-0.65,-0.53,
4016,-0.655,-0.535,
4017,-0.67,-0.535,
4018,-0.66,-0.525,
4019,-0.665,-0.51,
4020,-0.655,-0.525,
4021,-0.655,-0.515,
4022,-0.66,-0.505,
4023,-0.64,-0.49,
4024,-0.645,-0.505,
4025,-0.645,-0.485,
4026,-0.635,-0.5,
4027,-0.645,-0.5,
4028,-0.65,-0.505,
4029,-0.655,-0.515,
4030,-0.66,-0.52,
4031,-0.66,-0.515,
4032,-0.66,-0.505,
4033,-0.65,-0.5,
4034,-0.64,-0.49,
4035,-0.63,-0.475,
4036,-0.63,-0.48,
4037,-0.62,-0.465,
4038,-0.635,-0.485,
4039,-0.625,-0.495,
4040,-0.635,-0.495,
4041,-0.645,-0.505,
4042,-0.65,-0.5,
4043,-0.65,-0.505,
4044,-0.65,-0.495,
4045,-0.635,-0.505,
4046,-0.63,-0.49,
4047,-0.625,-0.48,
4048,-0.605,-0.49,
4049,-0.615,-0.49,
4050,-0.64,-0.495,
4051,-0.635,-0.505,
4052,-0.645,-0.51,
4053,-0.65,-0.52,
4054,-0.645,-0.51,
4055,-0.64,-0.51,
4056,-0.64,-0.495,
4057,-0.635,-0.48,
4058,-0.625,-0.465,
4059,-0.61,-0.455,
4060,-0.6,-0.465,
4061,-0.605,-0.46,
4062,-0.615,-0.465,
4063,-0.61,-0.465,
4064,-0.615,-0.48,
4065,-0.635,-0.475,
4066,-0.655,-0.48,
4067,-0.66,-0.465,
4068,-0.67,-0.47,
4069,-0.67,-0.465,
4070,-0.66,-0.48,
4071,-0.655,-0.47,
4072,-0.655,-0.49,
4073,-0.655,-0.505,
4074,-0.65,-0.51,
4075,-0.67,-0.53,
4076,-0.68,-0.535,
4077,-0.665,-0.54,
4078,-0.675,-0.535,
4079,-0.69,-0.52,
4080,-0.675,-0.515,
4081,-0.67,-0.51,
4082,-0.665,-0.515,
4083,-0.66,-0.51,
4084,-0.66,-0.515,
4085,-0.66,-0.525,
4086,-0.66,-0.525,
4087,-0.665,-0.54,
4088,-0.685,-0.55,
4089,-0.685,-0.555,
4090,-0.67,-0.545,
4091,-0.67,-0.54,
4092,-0.68,-0.535,
4093,-0.68,-0.515,
4094,-0.68,-0.505,
4095,-0.68,-0.5,
4096,-0.68,-0.5,
4097,-0.685,-0.52,
4098,-0.69,-0.515,
4099,-0.685,-0.54,
4100,-0.695,-0.545,
4101,-0.7,-0.545,
4102,-0.695,-0.55,
4103,-0.68,-0.54,
4104,-0.67,-0.55,
4105,-0.67,-0.545,
4106,-0.64,-0.54,
4107,-0.64,-0.53,
4108,-0.625,-0.535,
4109,-0.62,-0.54,
4110,-0.615,-0.545,
4111,-0.625,-0.55,
4112,-0.64,-0.56,
4113,-0.635,-0.565,
4114,-0.65,-0.565,
4115,-0.645,-0.56,
4116,-0.645,-0.545,
4117,-0.635,-0.555,
4118,-0.64,-0.555,
4119,-0.645,-0.555,
4120,-0.64,-0.56,
4121,-0.645,-0.56,
4122,-0.655,-0.57,
4123,-0.665,-0.58,
4124,-0.68,-0.575,
4125,-0.7,-0.595,
4126,-0.68,-0.585,
4127,-0.69,-0.575,
4128,-0.7,-0.57,
4129,-0.685,-0.565,
4130,-0.68,-0.555,
4131,-0.675,-0.55,
4132,-0.645,-0.55,
4133,-0.64,-0.545,
4134,-0.645,-0.545,
4135,-0.65,-0.55,
4136,-0.65,-0.565,
4137,-0.66,-0.565,
4138,-0.665,-0.55,
4139,-0.665,-0.54,
4140,-0.67,-0.54,
4141,-0.66,-0.525,
4142,-0.66,-0.515,
4143,-0.65,-0.51,
4144,-0.645,-0.505,
4145,-0.66,-0.49,
4146,-0.665,-0.5,
4147,-0.665,-0.495,
4148,-0.665,-0.49,
4149,-0.66,-0.505,
4150,-0.655,-0.495,
4151,-0.66,-0.495,
4152,-0.68,-0.495,
4153,-0.675,-0.485,
4154,-0.675,-0.485,
4155,-0.675,-0.475,
4156,-0.675,-0.5,
4157,-0.67,-0.495,
4158,-0.66,-0.51,
4159,-0.675,-0.515,
4160,-0.66,-0.52,
4161,-0.665,-0.525,
4162,-0.665,-0.505,
4163,-0.65,-0.5,
4164,-0.635,-0.5,
4165,-0.635,-0.5,
4166,-0.645,-0.49,
4167,-0.63,-0.495,
4168,-0.625,-0.51,
4169,-0.63,-0.515,
4170,-0.625,-0.515,
4171,-0.625,-0.525,
4172,-0.635,-0.54,
4173,-0.645,-0.54,
4174,-0.65,-0.525,
4175,-0.645,-0.53,
4176,-0.63,-0.525,
4177,-0.625,-0.525,
4178,-0.605,-0.52,
4179,-0.605,-0.515,
4180,-0.6,-0.535,
4181,-0.605,-0.55,
4182,-0.62,-0.54,
4183,-0.645,-0.55,
4184,-0.65,-0.56,
4185,-0.655,-0.555,
4186,-0.67,-0.575,
4187,-0.675,-0.57,
4188,-0.67,-0.57,
4189,-0.67,-0.56,
4190,-0.665,-0.565,
4191,-0.665,-0.57,
4192,-0.675,-0.58,
4193,-0.67,-0.585,
4194,-0.675,-0.595,
4195,-0.685,-0.61,
4196,-0.68,-0.605,
4197,-0.69,-0.605,
4198,-0.68,-0.595,
4199,-0.67,-0.585,
4200,-0.665,-0.565,
4201,-0.655,-0.57,
4202,-0.64,-0.565,
4203,-0.625,-0.555,
4204,-0.62,-0.565,
4205,-0.625,-0.565,
4206,-0.61,-0.56,
4207,-0.62,-0.575,
4208,-0.615,-0.57,
4209,-0.625,-0.575,
4210,-0.64,-0.565,
4211,-0.64,-0.555,
4212,-0.635,-0.55,
4213,-0.635,-0.55,
4214,-0.635,-0.535,
4215,-0.635,-0.53,
4216,-0.625,-0.525,
4217,-0.635,-0.535,
4218,-0.635,-0.55,
4219,-0.62,-0.545,
4220,-0.625,-0.55,
4221,-0.615,-0.53,
4222,-0.62,-0.525,
4223,-0.62,-0.535,
4224,-0.62,-0.505,
4225,-0.61,-0.5,
4226,-0.605,-0.505,
4227,-0.585,-0.505,
4228,-0.585,-0.505,
4229,-0.59,-0.515,
4230,-0.595,-0.515,
4231,-0.615,-0.52,
4232,-0.605,-0.525,
4233,-0.615,-0.53,
4234,-0.61,-0.525,
4235,-0.605,-0.535,
4236,-0.605,-0.525,
4237,-0.595,-0.525,
4238,-0.58,-0.51,
4239,-0.59,-0.51,
4240,-0.57,-0.51,
4241,-0.575,-0.52,
4242,-0.575,-0.52,
4243,-0.58,-0.53,
4244,-0.595,-0.545,
4245,-0.61,-0.545,
4246,-0.615,-0.535,
4247,-0.63,-0.54,
4248,-0.62,-0.535,
4249,-0.63,-0.535,
4250,-0.62,-0.525,
4251,-0.62,-0.525,
4252,-0.61,-0.53,
4253,-0.625,-0.54,
4254,-0.63,-0.54,
4255,-0.64,-0.535,
4256,-0.645,-0.55,
4257,-0.65,-0.555,
4258,-0.655,-0.54,
4259,-0.66,-0.54,
4260,-0.65,-0.535,
4261,-0.635,-0.515,
4262,-0.635,-0.515,
4263,-0.64,-0.52,
4264,-0.655,-0.525,
4265,-0.685,-0.53,
4266,-0.705,-0.53,
4267,-0.685,-0.53,
4268,-0.59,-0.485,
4269,-0.45,-0.43,
4270,-0.24,-0.33,
4271,0.03,-0.21,
4272,0.37,-0.085,
4273,0.74,0.02,
4274,1.095,0.14,
4275,1.39,0.235,
4276,1.615,0.32,
4277,1.725,0.42,N
4278,1.74,0.515,
4279,1.665,0.585,
4280,1.55,0.57,
4281,1.28,0.37,
4282,0.87,-0.005,
4283,0.325,-0.5,
4284,-0.21,-1.035,
4285,-0.595,-1.48,
4286,-0.79,-1.725,
4287,-0.825,-1.71,
4288,-0.785,-1.545,
4289,-0.7,-1.325,
4290,-0.615,-1.115,
4291,-0.59,-0.96,
4292,-0.6,-0.875,
4293,-0.63,-0.83,
4294,-0.665,-0.79,
4295,-0.715,-0.745,
4296,-0.72,-0.715,
4297,-0.73,-0.665,
4298,-0.74,-0.63,
4299,-0.73,-0.6,
4300,-0.715,-0.575,
4301,-0.74,-0.57,
4302,-0.735,-0.57,
4303,-0.775,-0.565,
4304,-0.795,-0.575,
4305,-0.81,-0.575,
4306,-0.835,-0.575,
4307,-0.845,-0.57,
4308,-0.835,-0.565,
4309,-0.835,-0.54,
4310,-0.835,-0.53,
4311,-0.835,-0.535,
4312,-0.82,-0.535,
4313,-0.83,-0.53,
4314,-0.84,-0.545,
4315,-0.84,-0.54,
4316,-0.845,-0.555,
4317,-0.865,-0.56,
4318,-0.875,-0.555,
4319,-0.88,-0.545,
4320,-0.88,-0.545,
4321,-0.875,-0.54,
4322,-0.885,-0.535,
4323,-0.895,-0.53,
4324,-0.89,-0.535,
4325,-0.9,-0.535,
4326,-0.9,-0.545,
4327,-0.895,-0.555,
4328,-0.91,-0.565,
4329,-0.91,-0.565,
4330,-0.905,-0.565,
4331,-0.905,-0.57,
4332,-0.91,-0.565,
4333,-0.895,-0.555,
4334,-0.9,-0.555,
4335,-0.91,-0.57,
4336,-0.91,-0.57,
4337,-0.93,-0.58,
4338,-0.935,-0.59,
4339,-0.95,-0.6,
4340,-0.96,-0.615,
4341,-0.965,-0.62,
4342,-0.975,-0.63,
4343,-0.98,-0.625,
4344,-0.975,-0.635,
4345,-0.96,-0.625,
4346,-0.955,-0.62,
4347,-0.945,-0.625,
4348,-0.95,-0.625,
4349,-0.95,-0.63,
4350,-0.965,-0.64,
4351,-0.985,-0.65,
4352,-1.0,-0.675,
4353,-1.02,-0.68,
4354,-1.055,-0.69,
4355,-1.06,-0.695,
4356,-1.08,-0.7,
4357,-1.08,-0.695,
4358,-1.095,-0.705,
4359,-1.1,-0.71,
4360,-1.095,-0.72,
4361,-1.13,-0.745,
4362,-1.135,-0.765,
4363,-1.17,-0.775,
4364,-1.185,-0.8,
4365,-1.225,-0.825,
4366,-1.245,-0.835,
4367,-1.27,-0.84,
4368,-1.295,-0.845,
4369,-1.295,-0.85,
4370,-1.31,-0.845,
4371,-1.305,-0.85,
4372,-1.33,-0.89,
4373,-1.35,-0.895,
4374,-1.36,-0.915,
4375,-1.37,-0.95,
4376,-1.385,-0.96,
4377,-1.39,-0.98,
4378,-1.395,-0.99,
4379,-1.385,-1.0,
4380,-1.38,-0.985,
4381,-1.355,-0.985,
4382,-1.335,-0.98,
4383,-1.285,-0.96,
4384,-1.255,-0.965,
4385,-1.21,-0.94,
4386,-1.18,-0.94,
4387,-1.145,-0.93,
4388,-1.115,-0.915,
4389,-1.065,-0.895,
4390,-1.02,-0.87,
4391,-0.99,-0.855,
4392,-0.95,-0.82,
4393,-0.915,-0.8,
4394,-0.9,-0.775,
4395,-0.865,-0.75,
4396,-0.845,-0.735,
4397,-0.825,-0.73,
4398,-0.81,-0.72,
4399,-0.795,-0.705,
4400,-0.775,-0.705,
4401,-0.76,-0.7,
4402,-0.725,-0.68,
4403,-0.71,-0.665,
4404,-0.685,-0.645,
4405,-0.685,-0.625,
4406,-0.665,-0.62,
4407,-0.655,-0.605,
4408,-0.655,-0.6,
4409,-0.665,-0.605,
4410,-0.665,-0.62,
4411,-0.665,-0.615,
4412,-0.645,-0.62,
4413,-0.655,-0.615,
4414,-0.665,-0.605,
4415,-0.67,-0.605,
4416,-0.655,-0.605,
4417,-0.66,-0.6,
4418,-0.64,-0.59,
4419,-0.64,-0.59,
4420,-0.635,-0.595,
4421,-0.635,-0.595,
4422,-0.635,-0.605,
4423,-0.655,-0.61,
4424,-0.655,-0.605,
4425,-0.66,-0.61,
4426,-0.66,-0.615,
4427,-0.665,-0.61,
4428,-0.665,-0.595,
4429,-0.665,-0.58,
4430,-0.65,-0.57,
4431,-0.635,-0.57,
4432,-0.63,-0.57,
4433,-0.64,-0.57,
4434,-0.645,-0.565,
4435,-0.65,-0.57,
4436,-0.655,-0.565,
4437,-0.655,-0.565,
4438,-0.66,-0.565,
4439,-0.675,-0.56,
4440,-0.66,-0.55,
4441,-0.65,-0.53,
4442,-0.645,-0.525,
4443,-0.64,-0.52,
4444,-0.645,-0.52,
4445,-0.64,-0.515,
4446,-0.64,-0.52,
4447,-0.65,-0.525,
4448,-0.64,-0.535,
4449,-0.65,-0.525,
4450,-0.65,-0.525,
4451,-0.64,-0.525,
4452,-0.635,-0.515,
4453,-0.62,-0.51,
4454,-0.605,-0.505,
4455,-0.59,-0.5,
4456,-0.57,-0.495,
4457,-0.59,-0.51,
4458,-0.58,-0.52,
4459,-0.595,-0.52,
4460,-0.595,-0.525,
4461,-0.605,-0.52,
4462,-0.6,-0.53,
4463,-0.595,-0.525,
4464,-0.605,-0.52,
4465,-0.605,-0.515,
4466,-0.595,-0.515,
4467,-0.58,-0.505,
4468,-0.58,-0.51,
4469,-0.59,-0.51,
4470,-0.585,-0.53,
4471,-0.59,-0.525,
4472,-0.595,-0.53,
4473,-0.6,-0.535,
4474,-0.615,-0.54,
4475,-0.62,-0.54,
4476,-0.62,-0.53,
4477,-0.615,-0.54,
4478,-0.615,-0.53,
4479,-0.615,-0.53,
4480,-0.605,-0.53,
4481,-0.595,-0.53,
4482,-0.6,-0.545,
4483,-0.605,-0.545,
4484,-0.615,-0.56,
4485,-0.605,-0.565,
4486,-0.62,-0.57,
4487,-0.62,-0.57,
4488,-0.61,-0.56,
4489,-0.605,-0.55,
4490,-0.605,-0.555,
4491,-0.585,-0.555,
4492,-0.585,-0.545,
4493,-0.58,-0.55,
4494,-0.59,-0.56,
4495,-0.6,-0.565,
4496,-0.605,-0.58,
4497,-0.61,-0.58,
4498,-0.61,-0.585,
4499,-0.615,-0.585,
4500,-0.615,-0.59,
4501,-0.61,-0.585,
4502,-0.62,-0.585,
4503,-0.625,-0.595,
4504,-0.63,-0.6,
4505,-0.635,-0.61,
4506,-0.64,-0.625,
4507,-0.655,-0.63,
4508,-0.655,-0.64,
4509,-0.66,-0.65,
4510,-0.66,-0.645,
4511,-0.655,-0.64,
4512,-0.65,-0.64,
4513,-0.635,-0.625,
4514,-0.63,-0.62,
4515,-0.625,-0.61,
4516,-0.615,-0.615,
4517,-0.625,-0.615,
4518,-0.62,-0.63,
4519,-0.625,-0.625,
4520,-0.63,-0.64,
4521,-0.635,-0.64,
4522,-0.64,-0.63,
4523,-0.63,-0.605,
4524,-0.64,-0.615,
4525,-0.635,-0.595,
4526,-0.635,-0.585,
4527,-0.625,-0.585,
4528,-0.625,-0.585,
4529,-0.625,-0.585,
4530,-0.625,-0.595,
4531,-0.64,-0.6,
4532,-0.64,-0.6,
4533,-0.645,-0.62,
4534,-0.65,-0.61,
4535,-0.64,-0.61,
4536,-0.63,-0.6,
4537,-0.63,-0.585,
4538,-0.625,-0.59,
4539,-0.62,-0.58,
4540,-0.62,-0.58,
4541,-0.635,-0.595,
4542,-0.63,-0.585,
4543,-0.62,-0.61,
4544,-0.63,-0.605,
4545,-0.63,-0.61,
4546,-0.64,-0.62,
4547,-0.625,-0.595,
4548,-0.62,-0.595,
4549,-0.61,-0.58,
4550,-0.61,-0.585,
4551,-0.605,-0.57,
4552,-0.595,-0.575,
4553,-0.6,-0.585,
4554,-0.605,-0.58,
4555,-0.605,-0.59,
4556,-0.63,-0.59,
4557,-0.63,-0.595,
4558,-0.61,-0.59,
4559,-0.62,-0.58,
4560,-0.61,-0.56,
4561,-0.605,-0.54,
4562,-0.605,-0.54,
4563,-0.595,-0.53,
4564,-0.625,-0.535,
4565,-0.635,-0.55,
4566,-0.665,-0.555,
4567,-0.695,-0.565,
4568,-0.69,-0.56,
4569,-0.63,-0.54,
4570,-0.52,-0.495,
4571,-0.355,-0.425,
4572,-0.145,-0.32,
4573,0.115,-0.215,
4574,0.4,-0.125,
4575,0.71,-0.04,
4576,1.02,0.035,
4577,1.31,0.115,
4578,1.545,0.18,
4579,1.705,0.27,
4580,1.765,0.375,N
4581,1.75,0.465,
4582,1.665,0.52,
4583,1.495,0.45,
4584,1.22,0.245,
4585,0.775,-0.12,
4586,0.245,-0.58,
4587,-0.27,-1.05,
4588,-0.645,-1.455,
4589,-0.825,-1.675,
4590,-0.855,-1.715,
4591,-0.815,-1.575,
4592,-0.74,-1.375,
4593,-0.68,-1.175,
4594,-0.64,-1.025,
4595,-0.64,-0.92,
4596,-0.665,-0.875,
4597,-0.685,-0.815,
4598,-0.71,-0.775,
4599,-0.725,-0.755,
4600,-0.715,-0.725,
4601,-0.715,-0.7,
4602,-0.72,-0.68,
4603,-0.72,-0.665,
4604,-0.74,-0.65,
4605,-0.75,-0.65,
4606,-0.76,-0.64,
4607,-0.77,-0.64,
4608,-0.785,-0.63,
4609,-0.785,-0.625,
4610,-0.785,-0.625,
4611,-0.79,-0.61,
4612,-0.79,-0.605,
4613,-0.805,-0.605,
4614,-0.805,-0.625,
4615,-0.825,-0.625,
4616,-0.815,-0.63,
4617,-0.835,-0.64,
4618,-0.84,-0.64,
4619,-0.835,-0.62,
4620,-0.835,-0.61,
4621,-0.82,-0.6,
4622,-0.82,-0.605,
4623,-0.815,-0.595,
4624,-0.805,-0.58,
4625,-0.81,-0.595,
4626,-0.82,-0.595,
4627,-0.83,-0.6,
4628,-0.835,-0.615,
4629,-0.85,-0.61,
4630,-0.85,-0.61,
4631,-0.865,-0.605,
4632,-0.865,-0.605,
4633,-0.86,-0.605,
4634,-0.85,-0.6,
4635,-0.845,-0.6,
4636,-0.85,-0.59,
4637,-0.845,-0.605,
4638,-0.835,-0.6,
4639,-0.85,-0.605,
4640,-0.855,-0.61,
4641,-0.86,-0.615,
4642,-0.88,-0.615,
4643,-0.88,-0.61,
4644,-0.875,-0.59,
4645,-0.885,-0.58,
4646,-0.885,-0.565,
4647,-0.895,-0.57,
4648,-0.905,-0.58,
4649,-0.915,-0.595,
4650,-0.915,-0.595,
4651,-0.92,-0.605,
4652,-0.925,-0.61,
4653,-0.93,-0.615,
4654,-0.94,-0.635,
4655,-0.95,-0.62,
4656,-0.945,-0.625,
4657,-0.955,-0.64,
4658,-0.975,-0.63,
4659,-0.985,-0.63,
4660,-1.005,-0.64,
4661,-1.025,-0.655,
4662,-1.04,-0.67,
4663,-1.065,-0.7,
4664,-1.085,-0.72,
4665,-1.105,-0.74,
4666,-1.125,-0.745,
4667,-1.135,-0.755,
4668,-1.155,-0.77,
4669,-1.16,-0.78,
4670,-1.165,-0.79,
4671,-1.185,-0.81,
4672,-1.195,-0.83,
4673,-1.21,-0.835,
4674,-1.235,-0.86,
4675,-1.25,-0.89,
4676,-1.27,-0.915,
4677,-1.28,-0.935,
4678,-1.275,-0.94,
4679,-1.27,-0.945,
4680,-1.265,-0.955,
4681,-1.255,-0.945,
4682,-1.23,-0.955,
4683,-1.195,-0.945,
4684,-1.175,-0.95,
4685,-1.145,-0.945,
4686,-1.12,-0.94,
4687,-1.09,-0.94,
4688,-1.075,-0.935,
4689,-1.04,-0.92,
4690,-1.025,-0.895,
4691,-0.98,-0.88,
4692,-0.95,-0.86,
4693,-0.905,-0.825,
4694,-0.865,-0.8,
4695,-0.84,-0.78,
4696,-0.815,-0.75,
4697,-0.79,-0.755,
4698,-0.785,-0.75,
4699,-0.77,-0.73,
4700,-0.77,-0.73,
4701,-0.77,-0.72,
4702,-0.76,-0.71,
4703,-0.745,-0.695,
4704,-0.74,-0.69,
4705,-0.72,-0.665,
4706,-0.7,-0.64,
4707,-0.685,-0.635,
4708,-0.67,-0.63,
4709,-0.675,-0.635,
4710,-0.65,-0.625,
4711,-0.645,-0.63,
4712,-0.645,-0.625,
4713,-0.655,-0.63,
4714,-0.65,-0.635,
4715,-0.66,-0.62,
4716,-0.655,-0.615,
4717,-0.66,-0.61,
4718,-0.64,-0.61,
4719,-0.635,-0.605,
4720,-0.63,-0.595,
4721,-0.635,-0.605,
4722,-0.635,-0.61,
4723,-0.64,-0.61,
4724,-0.655,-0.615,
4725,-0.66,-0.605,
4726,-0.67,-0.605,
4727,-0.665,-0.6,
4728,-0.665,-0.59,
4729,-0.645,-0.595,
4730,-0.64,-0.57,
4731,-0.63,-0.575,
4732,-0.62,-0.575,
4733,-0.615,-0.57,
4734,-0.625,-0.58,
4735,-0.625,-0.59,
4736,-0.63,-0.575,
4737,-0.63,-0.59,
4738,-0.63,-0.585,
4739,-0.64,-0.58,
4740,-0.635,-0.58,
4741,-0.615,-0.57,
4742,-0.605,-0.56,
4743,-0.605,-0.55,
4744,-0.59,-0.55,
4745,-0.59,-0.555,
4746,-0.59,-0.555,
4747,-0.58,-0.555,
4748,-0.585,-0.565,
4749,-0.59,-0.555,
4750,-0.585,-0.56,
4751,-0.595,-0.56,
4752,-0.61,-0.565,
4753,-0.62,-0.545,
4754,-0.615,-0.555,
4755,-0.62,-0.56,
4756,-0.62,-0.56,
4757,-0.625,-0.575,
4758,-0.63,-0.58,
4759,-0.645,-0.595,
4760,-0.635,-0.605,
4761,-0.635,-0.615,
4762,-0.64,-0.615,
4763,-0.635,-0.615,
4764,-0.625,-0.615,
4765,-0.63,-0.605,
4766,-0.615,-0.595,
4767,-0.605,-0.585,
4768,-0.605,-0.595,
4769,-0.6,-0.59,
4770,-0.61,-0.595,
4771,-0.61,-0.605,
4772,-0.61,-0.6,
4773,-0.625,-0.605,
4774,-0.63,-0.6,
4775,-0.63,-0.58,
4776,-0.62,-0.58,
4777,-0.615,-0.565,
4778,-0.61,-0.56,
4779,-0.61,-0.55,
4780,-0.615,-0.545,
4781,-0.605,-0.555,
4782,-0.62,-0.555,
4783,-0.62,-0.55,
4784,-0.62,-0.565,
4785,-0.63,-0.57,
4786,-0.63,-0.56,
4787,-0.63,-0.545,
4788,-0.635,-0.54,
4789,-0.625,-0.535,
4790,-0.62,-0.53,
4791,-0.61,-0.525,
4792,-0.615,-0.53,
4793,-0.62,-0.545,
4794,-0.615,-0.54,
4795,-0.625,-0.555,
4796,-0.62,-0.555,
4797,-0.635,-0.56,
4798,-0.64,-0.56,
4799,-0.64,-0.57,
4800,-0.64,-0.56,
4801,-0.635,-0.555,
4802,-0.64,-0.55,
4803,-0.615,-0.54,
4804,-0.61,-0.545,
4805,-0.605,-0.545,
4806,-0.615,-0.545,
4807,-0.63,-0.565,
4808,-0.635,-0.57,
4809,-0.63,-0.58,
4810,-0.635,-0.575,
4811,-0.63,-0.575,
4812,-0.64,-0.57,
4813,-0.63,-0.575,
4814,-0.615,-0.565,
4815,-0.615,-0.555,
4816,-0.62,-0.56,
4817,-0.63,-0.575,
4818,-0.655,-0.59,
4819,-0.655,-0.59,
4820,-0.655,-0.605,
4821,-0.65,-0.605,
4822,-0.66,-0.6,
4823,-0.63,-0.605,
4824,-0.615,-0.61,
4825,-0.615,-0.6,
4826,-0.61,-0.59,
4827,-0.605,-0.58,
4828,-0.605,-0.585,
4829,-0.61,-0.59,
4830,-0.605,-0.585,
4831,-0.6,-0.59,
4832,-0.605,-0.59,
4833,-0.59,-0.58,
4834,-0.605,-0.585,
4835,-0.605,-0.58,
4836,-0.605,-0.585,
4837,-0.615,-0.57,
4838,-0.62,-0.565,
4839,-0.605,-0.57,
4840,-0.615,-0.565,
4841,-0.62,-0.58,
4842,-0.61,-0.595,
4843,-0.615,-0.6,
4844,-0.62,-0.61,
4845,-0.63,-0.605,
4846,-0.64,-0.615,
4847,-0.635,-0.605,
4848,-0.635,-0.595,
4849,-0.64,-0.59,
4850,-0.63,-0.585,
4851,-0.615,-0.57,
4852,-0.605,-0.58,
4853,-0.615,-0.575,
4854,-0.615,-0.585,
4855,-0.62,-0.59,
4856,-0.635,-0.59,
4857,-0.64,-0.605,
4858,-0.635,-0.6,
4859,-0.65,-0.61,
4860,-0.635,-0.59,
4861,-0.625,-0.59,
4862,-0.615,-0.585,
4863,-0.605,-0.58,
4864,-0.595,-0.59,
4865,-0.595,-0.595,
4866,-0.6,-0.595,
4867,-0.61,-0.6,
4868,-0.61,-0.615,
4869,-0.625,-0.605,
4870,-0.64,-0.6,
4871,-0.635,-0.6,
4872,-0.635,-0.595,
4873,-0.63,-0.6,
4874,-0.635,-0.6,
4875,-0.635,-0.59,
4876,-0.64,-0.6,
4877,-0.65,-0.6,
4878,-0.635,-0.62,
4879,-0.64,-0.615,
4880,-0.64,-0.63,
4881,-0.64,-0.645,
4882,-0.625,-0.65,
4883,-0.625,-0.645,
4884,-0.61,-0.64,
4885,-0.595,-0.63,
4886,-0.585,-0.61,
4887,-0.58,-0.61,
4888,-0.585,-0.6,
4889,-0.59,-0.605,
4890,-0.615,-0.605,
4891,-0.635,-0.605,
4892,-0.61,-0.6,
4893,-0.52,-0.55,
4894,-0.365,-0.48,
4895,-0.16,-0.375,
4896,0.11,-0.27,
4897,0.4,-0.175,
4898,0.71,-0.07,
4899,1.03,0.015,
4900,1.33,0.095,
4901,1.56,0.175,
4902,1.7,0.275,
4903,1.76,0.37,N
4904,1.735,0.475,
4905,1.64,0.525,
4906,1.455,0.46,
4907,1.15,0.23,
4908,0.71,-0.115,
4909,0.2,-0.585,
4910,-0.285,-1.04,
4911,-0.625,-1.42,
4912,-0.795,-1.62,
4913,-0.835,-1.625,
4914,-0.785,-1.49,
4915,-0.705,-1.285,
4916,-0.66,-1.095,
4917,-0.63,-0.95,
4918,-0.63,-0.865,
4919,-0.655,-0.805,
4920,-0.685,-0.775,
4921,-0.705,-0.735,
4922,-0.7,-0.725,
4923,-0.71,-0.695,
4924,-0.7,-0.675,
4925,-0.7,-0.63,
4926,-0.705,-0.635,
4927,-0.72,-0.625,
4928,-0.73,-0.635,
4929,-0.76,-0.625,
4930,-0.765,-0.625,
4931,-0.77,-0.62,
4932,-0.785,-0.62,
4933,-0.78,-0.6,
4934,-0.78,-0.59,
4935,-0.8,-0.59,
4936,-0.8,-0.595,
4937,-0.815,-0.6,
4938,-0.82,-0.61,
4939,-0.84,-0.615,
4940,-0.84,-0.625,
4941,-0.855,-0.64,
4942,-0.86,-0.63,
4943,-0.845,-0.64,
4944,-0.845,-0.635,
4945,-0.845,-0.625,
4946,-0.835,-0.625,
4947,-0.82,-0.61,
4948,-0.825,-0.61,
4949,-0.83,-0.61,
4950,-0.82,-0.63,
4951,-0.835,-0.625,
4952,-0.855,-0.63,
4953,-0.865,-0.635,
4954,-0.875,-0.625,
4955,-0.89,-0.625,
4956,-0.89,-0.635,
4957,-0.88,-0.615,
4958,-0.87,-0.615,
4959,-0.86,-0.605,
4960,-0.865,-0.62,
4961,-0.87,-0.625,
4962,-0.875,-0.625,
4963,-0.885,-0.635,
4964,-0.895,-0.64,
4965,-0.905,-0.655,
4966,-0.92,-0.65,
4967,-0.92,-0.65,
4968,-0.925,-0.66,
4969,-0.915,-0.635,
4970,-0.92,-0.635,
4971,-0.915,-0.61,
4972,-0.925,-0.61,
4973,-0.94,-0.62,
4974,-0.955,-0.64,
4975,-0.985,-0.635,
4976,-0.99,-0.645,
4977,-1.015,-0.655,
4978,-1.035,-0.665,
4979,-1.03,-0.66,
4980,-1.04,-0.665,
4981,-1.05,-0.66,
4982,-1.06,-0.685,
4983,-1.07,-0.68,
4984,-1.07,-0.695,
4985,-1.095,-0.715,
4986,-1.105,-0.735,
4987,-1.115,-0.745,
4988,-1.15,-0.76,
4989,-1.16,-0.79,
4990,-1.18,-0.79,
4991,-1.19,-0.8,
4992,-1.21,-0.825,
4993,-1.225,-0.835,
4994,-1.25,-0.845,
4995,-1.26,-0.86,
4996,-1.25,-0.885,
4997,-1.265,-0.895,
4998,-1.265,-0.92,
4999,-1.27,-0.935,
5000,-1.27,-0.96,
5001,-1.28,-0.975,
5002,-1.28,-0.985,
5003,-1.265,-0.98,
5004,-1.23,-0.975,
5005,-1.205,-0.955,
5006,-1.18,-0.955,
5007,-1.15,-0.94,
5008,-1.115,-0.945,
5009,-1.085,-0.92,
5010,-1.06,-0.92,
5011,-1.02,-0.9,
5012,-0.995,-0.89,
5013,-0.97,-0.875,
5014,-0.935,-0.85,
5015,-0.915,-0.825,
5016,-0.87,-0.795,
5017,-0.84,-0.77,
5018,-0.82,-0.745,
5019,-0.785,-0.71,
5020,-0.75,-0.7,
5021,-0.725,-0.695,
5022,-0.715,-0.675,
5023,-0.705,-0.67,
5024,-0.71,-0.665,
5025,-0.715,-0.665,
5026,-0.705,-0.65,
5027,-0.7,-0.635,
5028,-0.685,-0.63,
5029,-0.67,-0.6,
5030,-0.67,-0.59,
5031,-0.66,-0.575,
5032,-0.645,-0.565,
5033,-0.645,-0.58,
5034,-0.635,-0.58,
5035,-0.65,-0.58,
5036,-0.66,-0.585,
5037,-0.66,-0.6,
5038,-0.66,-0.59,
5039,-0.665,-0.585,
5040,-0.66,-0.585,
5041,-0.655,-0.575,
5042,-0.645,-0.56,
5043,-0.63,-0.555,
5044,-0.635,-0.55,
5045,-0.63,-0.555,
5046,-0.625,-0.56,
5047,-0.635,-0.56,
5048,-0.645,-0.565,
5049,-0.635,-0.575,
5050,-0.645,-0.575,
5051,-0.645,-0.565,
5052,-0.645,-0.555,
5053,-0.645,-0.555,
5054,-0.625,-0.545,
5055,-0.615,-0.54,
5056,-0.605,-0.54,
5057,-0.595,-0.53,
5058,-0.585,-0.54,
5059,-0.575,-0.54,
5060,-0.57,-0.55,
5061,-0.565,-0.555,
5062,-0.57,-0.56,
5063,-0.56,-0.56,
5064,-0.56,-0.555,
5065,-0.56,-0.56,
5066,-0.56,-0.54,
5067,-0.555,-0.52,
5068,-0.545,-0.525,
5069,-0.55,-0.53,
5070,-0.545,-0.515,
5071,-0.545,-0.52,
5072,-0.545,-0.52,
5073,-0.545,-0.53,
5074,-0.55,-0.54,
5075,-0.555,-0.515,
5076,-0.545,-0.51,
5077,-0.545,-0.495,
5078,-0.535,-0.485,
5079,-0.53,-0.485,
5080,-0.52,-0.475,
5081,-0.53,-0.48,
5082,-0.535,-0.49,
5083,-0.545,-0.485,
5084,-0.535,-0.505,
5085,-0.54,-0.51,
5086,-0.535,-0.515,
5087,-0.565,-0.505,
5088,-0.555,-0.495,
5089,-0.55,-0.485,
5090,-0.54,-0.47,
5091,-0.535,-0.46,
5092,-0.53,-0.465,
5093,-0.535,-0.485,
5094,-0.545,-0.48,
5095,-0.545,-0.485,
5096,-0.555,-0.505,
5097,-0.565,-0.495,
5098,-0.585,-0.515,
5099,-0.61,-0.505,
5100,-0.625,-0.495,
5101,-0.62,-0.495,
5102,-0.625,-0.5,
5103,-0.62,-0.49,
5104,-0.61,-0.515,
5105,-0.605,-0.515,
5106,-0.605,-0.53,
5107,-0.6,-0.535,
5108,-0.605,-0.53,
5109,-0.615,-0.535,
5110,-0.61,-0.54,
5111,-0.61,-0.53,
5112,-0.6,-0.53,
5113,-0.6,-0.535,
5114,-0.595,-0.54,
5115,-0.57,-0.525,
5116,-0.56,-0.545,
5117,-0.545,-0.55,
5118,-0.545,-0.55,
5119,-0.545,-0.54,
5120,-0.545,-0.55,
5121,-0.555,-0.55,
5122,-0.565,-0.55,
5123,-0.57,-0.545,
5124,-0.58,-0.55,
5125,-0.58,-0.555,
5126,-0.595,-0.55,
5127,-0.58,-0.55,
5128,-0.575,-0.535,
5129,-0.58,-0.535,
5130,-0.565,-0.535,
5131,-0.57,-0.53,
5132,-0.57,-0.545,
5133,-0.58,-0.565,
5134,-0.585,-0.55,
5135,-0.58,-0.545,
5136,-0.59,-0.555,
5137,-0.57,-0.53,
5138,-0.58,-0.535,
5139,-0.585,-0.53,
5140,-0.575,-0.535,
5141,-0.58,-0.54,
5142,-0.575,-0.55,
5143,-0.59,-0.54,
5144,-0.59,-0.555,
5145,-0.6,-0.565,
5146,-0.61,-0.57,
5147,-0.6,-0.57,
5148,-0.6,-0.56,
5149,-0.595,-0.56,
5150,-0.59,-0.56,
5151,-0.585,-0.545,
5152,-0.58,-0.54,
5153,-0.585,-0.535,
5154,-0.6,-0.55,
5155,-0.625,-0.55,
5156,-0.625,-0.57,
5157,-0.63,-0.575,
5158,-0.65,-0.565,
5159,-0.65,-0.565,
5160,-0.645,-0.57,
5161,-0.645,-0.555,
5162,-0.65,-0.555,
5163,-0.635,-0.54,
5164,-0.61,-0.545,
5165,-0.605,-0.545,
5166,-0.585,-0.535,
5167,-0.585,-0.555,
5168,-0.585,-0.54,
5169,-0.58,-0.54,
5170,-0.575,-0.54,
5171,-0.575,-0.53,
5172,-0.565,-0.525,
5173,-0.55,-0.52,
5174,-0.545,-0.515,
5175,-0.53,-0.505,
5176,-0.52,-0.5,
5177,-0.52,-0.505,
5178,-0.515,-0.51,
5179,-0.52,-0.51,
5180,-0.53,-0.53,
5181,-0.54,-0.545,
5182,-0.54,-0.535,
5183,-0.54,-0.53,
5184,-0.51,-0.515,
5185,-0.5,-0.51,
5186,-0.515,-0.495,
5187,-0.495,-0.485,
5188,-0.495,-0.49,
5189,-0.52,-0.485,
5190,-0.525,-0.495,
5191,-0.565,-0.49,
5192,-0.575,-0.495,
5193,-0.585,-0.5,
5194,-0.55,-0.47,
5195,-0.435,-0.41,
5196,-0.255,-0.34,
5197,-0.035,-0.22,
5198,0.23,-0.1,
5199,0.545,0.005,
5200,0.895,0.12,
5201,1.22,0.2,
5202,1.505,0.29,
5203,1.725,0.375,
5204,1.83,0.47,
5205,1.855,0.585,N
5206,1.805,0.67,
5207,1.705,0.715,
5208,1.525,0.605,
5209,1.225,0.34,
5210,0.755,-0.065,
5211,0.19,-0.595,
5212,-0.325,-1.11,
5213,-0.685,-1.53,
5214,-0.845,-1.725,
5215,-0.855,-1.695,
5216,-0.785,-1.545,
5217,-0.715,-1.31,
5218,-0.65,-1.115,
5219,-0.62,-0.965,
5220,-0.615,-0.865,
5221,-0.625,-0.79,
5222,-0.665,-0.75,
5223,-0.68,-0.705,
5224,-0.685,-0.68,
5225,-0.69,-0.655,
5226,-0.68,-0.625,
5227,-0.68,-0.61,
5228,-0.68,-0.59,
5229,-0.67,-0.585,
5230,-0.685,-0.57,
5231,-0.69,-0.555,
5232,-0.695,-0.54,
5233,-0.675,-0.53,
5234,-0.655,-0.51,
5235,-0.645,-0.495,
5236,-0.65,-0.495,
5237,-0.645,-0.49,
5238,-0.65,-0.485,
5239,-0.65,-0.49,
5240,-0.66,-0.5,
5241,-0.675,-0.53,
5242,-0.675,-0.525,
5243,-0.69,-0.52,
5244,-0.685,-0.52,
5245,-0.68,-0.505,
5246,-0.69,-0.49,
5247,-0.685,-0.475,
5248,-0.695,-0.48,
5249,-0.715,-0.495,
5250,-0.71,-0.49,
5251,-0.73,-0.495,
5252,-0.745,-0.52,
5253,-0.745,-0.53,
5254,-0.77,-0.53,
5255,-0.765,-0.51,
5256,-0.765,-0.51,
5257,-0.76,-0.505,
5258,-0.765,-0.5,
5259,-0.77,-0.5,
5260,-0.775,-0.5,
5261,-0.78,-0.515,
5262,-0.795,-0.52,
5263,-0.81,-0.52,
5264,-0.815,-0.535,
5265,-0.845,-0.535,
5266,-0.86,-0.535,
5267,-0.86,-0.53,
5268,-0.865,-0.54,
5269,-0.88,-0.54,
5270,-0.875,-0.52,
5271,-0.885,-0.53,
5272,-0.9,-0.525,
5273,-0.915,-0.535,
5274,-0.92,-0.55,
5275,-0.925,-0.57,
5276,-0.94,-0.575,
5277,-0.955,-0.59,
5278,-0.96,-0.595,
5279,-0.965,-0.585,
5280,-0.96,-0.565,
5281,-0.95,-0.575,
5282,-0.95,-0.565,
5283,-0.945,-0.58,
5284,-0.965,-0.605,
5285,-0.955,-0.62,
5286,-0.955,-0.625,
5287,-0.98,-0.645,
5288,-1.0,-0.665,
5289,-1.02,-0.685,
5290,-1.05,-0.68,
5291,-1.075,-0.715,
5292,-1.075,-0.73,
5293,-1.095,-0.725,
5294,-1.09,-0.745,
5295,-1.085,-0.755,
5296,-1.095,-0.775,
5297,-1.1,-0.79,
5298,-1.12,-0.81,
5299,-1.14,-0.825,
5300,-1.16,-0.85,
5301,-1.17,-0.865,
5302,-1.17,-0.885,
5303,-1.185,-0.89,
5304,-1.185,-0.895,
5305,-1.175,-0.9,
5306,-1.175,-0.905,
5307,-1.14,-0.89,
5308,-1.125,-0.9,
5309,-1.085,-0.89,
5310,-1.06,-0.9,
5311,-1.03,-0.895,
5312,-1.0,-0.88,
5313,-0.965,-0.865,
5314,-0.94,-0.845,
5315,-0.895,-0.815,
5316,-0.87,-0.78,
5317,-0.84,-0.745,
5318,-0.79,-0.73,
5319,-0.765,-0.7,
5320,-0.73,-0.68,
5321,-0.725,-0.67,
5322,-0.695,-0.655,
5323,-0.695,-0.655,
5324,-0.685,-0.63,
5325,-0.675,-0.625,
5326,-0.665,-0.62,
5327,-0.675,-0.61,
5328,-0.665,-0.59,
5329,-0.64,-0.57,
5330,-0.625,-0.56,
5331,-0.615,-0.55,
5332,-0.61,-0.535,
5333,-0.62,-0.53,
5334,-0.605,-0.53,
5335,-0.595,-0.545,
5336,-0.595,-0.54,
5337,-0.595,-0.545,
5338,-0.615,-0.55,
5339,-0.615,-0.53,
5340,-0.605,-0.525,
5341,-0.595,-0.525,
5342,-0.585,-0.52,
5343,-0.58,-0.51,
5344,-0.57,-0.505,
5345,-0.56,-0.515,
5346,-0.55,-0.515,
5347,-0.545,-0.525,
5348,-0.555,-0.525,
5349,-0.56,-0.53,
5350,-0.555,-0.535,
5351,-0.56,-0.52,
5352,-0.575,-0.52,
5353,-0.565,-0.5,
5354,-0.57,-0.5,
5355,-0.555,-0.5,
5356,-0.55,-0.505,
5357,-0.545,-0.5,
5358,-0.545,-0.51,
5359,-0.545,-0.515,
5360,-0.555,-0.525,
5361,-0.565,-0.525,
5362,-0.575,-0.52,
5363,-0.565,-0.525,
5364,-0.56,-0.53,
5365,-0.56,-0.525,
5366,-0.55,-0.505,
5367,-0.545,-0.505,
5368,-0.545,-0.5,
5369,-0.55,-0.5,
5370,-0.555,-0.495,
5371,-0.565,-0.495,
5372,-0.55,-0.495,
5373,-0.565,-0.5,
5374,-0.57,-0.505,
5375,-0.57,-0.48,
5376,-0.56,-0.495,
5377,-0.55,-0.475,
5378,-0.54,-0.47,
5379,-0.545,-0.45,
5380,-0.54,-0.455,
5381,-0.55,-0.47,
5382,-0.565,-0.45,
5383,-0.57,-0.47,
5384,-0.565,-0.48,
5385,-0.575,-0.485,
5386,-0.58,-0.49,
5387,-0.565,-0.46,
5388,-0.55,-0.465,
5389,-0.545,-0.45,
5390,-0.515,-0.43,
5391,-0.5,-0.425,
5392,-0.49,-0.41,
5393,-0.48,-0.415,
5394,-0.49,-0.405,
5395,-0.495,-0.42,
5396,-0.49,-0.425,
5397,-0.49,-0.43,
5398,-0.495,-0.435,
5399,-0.49,-0.43,
5400,-0.485,-0.43,
5401,-0.47,-0.41,
5402,-0.48,-0.415,
5403,-0.465,-0.405,
5404,-0.46,-0.405,
5405,-0.465,-0.415,
5406,-0.445,-0.415,
5407,-0.445,-0.425,
5408,-0.46,-0.435,
5409,-0.455,-0.445,
5410,-0.465,-0.44,
5411,-0.47,-0.445,
5412,-0.47,-0.445,
5413,-0.48,-0.435,
5414,-0.465,-0.43,
5415,-0.47,-0.445,
5416,-0.47,-0.43,
5417,-0.475,-0.435,
5418,-0.485,-0.445,
5419,-0.495,-0.46,
5420,-0.5,-0.47,
5421,-0.51,-0.49,
5422,-0.525,-0.495,
5423,-0.535,-0.495,
5424,-0.515,-0.495,
5425,-0.505,-0.495,
5426,-0.505,-0.49,
5427,-0.495,-0.47,
5428,-0.505,-0.48,
5429,-0.51,-0.485,
5430,-0.52,-0.495,
5431,-0.53,-0.5,
5432,-0.545,-0.515,
5433,-0.54,-0.52,
5434,-0.56,-0.52,
5435,-0.555,-0.51,
5436,-0.555,-0.515,
5437,-0.56,-0.515,
5438,-0.565,-0.52,
5439,-0.575,-0.52,
5440,-0.585,-0.53,
5441,-0.58,-0.54,
5442,-0.575,-0.54,
5443,-0.58,-0.56,
5444,-0.6,-0.57,
5445,-0.595,-0.575,
5446,-0.595,-0.565,
5447,-0.59,-0.565,
5448,-0.57,-0.555,
5449,-0.58,-0.545,
5450,-0.565,-0.535,
5451,-0.56,-0.535,
5452,-0.55,-0.515,
5453,-0.545,-0.52,
5454,-0.545,-0.52,
5455,-0.555,-0.52,
5456,-0.565,-0.525,
5457,-0.555,-0.52,
5458,-0.555,-0.52,
5459,-0.56,-0.5,
5460,-0.55,-0.505,
5461,-0.54,-0.5,
5462,-0.53,-0.48,
5463,-0.52,-0.475,
5464,-0.51,-0.48,
5465,-0.495,-0.48,
5466,-0.5,-0.495,
5467,-0.5,-0.5,
5468,-0.515,-0.505,
5469,-0.505,-0.51,
5470,-0.51,-0.51,
5471,-0.51,-0.51,
5472,-0.505,-0.5,
5473,-0.515,-0.5,
5474,-0.5,-0.495,
5475,-0.495,-0.505,
5476,-0.48,-0.5,
5477,-0.485,-0.525,
5478,-0.49,-0.515,
5479,-0.505,-0.535,
5480,-0.515,-0.54,
5481,-0.53,-0.555,
5482,-0.54,-0.55,
5483,-0.53,-0.54,
5484,-0.53,-0.54,
5485,-0.525,-0.54,
5486,-0.515,-0.535,
5487,-0.5,-0.54,
5488,-0.49,-0.53,
5489,-0.485,-0.545,
5490,-0.49,-0.54,
5491,-0.505,-0.55,
5492,-0.51,-0.56,
5493,-0.52,-0.57,
5494,-0.53,-0.565,
5495,-0.535,-0.56,
5496,-0.54,-0.585,
5497,-0.54,-0.565,
5498,-0.54,-0.57,
5499,-0.55,-0.565,
5500,-0.54,-0.55,
5501,-0.545,-0.585,
5502,-0.55,-0.58,
5503,-0.565,-0.6,
5504,-0.58,-0.595,
5505,-0.59,-0.605,
5506,-0.595,-0.6,
5507,-0.6,-0.595,
5508,-0.595,-0.585,
5509,-0.595,-0.585,
5510,-0.605,-0.57,
5511,-0.58,-0.575,
5512,-0.57,-0.565,
5513,-0.56,-0.58,
5514,-0.555,-0.56,
5515,-0.555,-0.57,
5516,-0.55,-0.58,
5517,-0.54,-0.58,
5518,-0.55,-0.575,
5519,-0.55,-0.555,
5520,-0.55,-0.55,
5521,-0.535,-0.545,
5522,-0.53,-0.53,
5523,-0.525,-0.52,
5524,-0.51,-0.505,
5525,-0.505,-0.52,
5526,-0.515,-0.52,
5527,-0.52,-0.525,
5528,-0.535,-0.535,
5529,-0.53,-0.535,
5530,-0.535,-0.54,
5531,-0.52,-0.54,
5532,-0.51,-0.53,
5533,-0.5,-0.515,
5534,-0.505,-0.505,
5535,-0.49,-0.51,
5536,-0.475,-0.5,
5537,-0.485,-0.51,
5538,-0.48,-0.5,
5539,-0.48,-0.52,
5540,-0.5,-0.525,
5541,-0.49,-0.545,
5542,-0.495,-0.545,
5543,-0.5,-0.54,
5544,-0.495,-0.53,
5545,-0.485,-0.525,
5546,-0.48,-0.53,
5547,-0.47,-0.525,
5548,-0.465,-0.52,
5549,-0.445,-0.535,
5550,-0.455,-0.535,
5551,-0.465,-0.545,
5552,-0.465,-0.545,
5553,-0.46,-0.55,
5554,-0.48,-0.55,
5555,-0.495,-0.555,
5556,-0.52,-0.53,
5557,-0.53,-0.54,
5558,-0.54,-0.53,
5559,-0.54,-0.5,
5560,-0.48,-0.475,
5561,-0.37,-0.43,
5562,-0.205,-0.345,
5563,-0.015,-0.265,
5564,0.23,-0.18,
5565,0.495,-0.095,
5566,0.785,-0.015,
5567,1.075,0.065,
5568,1.365,0.145,
5569,1.6,0.245,
5570,1.75,0.34,
5571,1.825,0.45,N
5572,1.825,0.56,
5573,1.765,0.62,
5574,1.61,0.58,
5575,1.36,0.38,
5576,0.965,0.03,
5577,0.44,-0.405,
5578,-0.1,-0.875,
5579,-0.51,-1.29,
5580,-0.75,-1.575,
5581,-0.82,-1.65,
5582,-0.785,-1.555,
5583,-0.695,-1.355,
5584,-0.625,-1.145,
5585,-0.585,-0.995,
5586,-0.565,-0.88,
5587,-0.58,-0.82,
5588,-0.61,-0.79,
5589,-0.64,-0.77,
5590,-0.66,-0.755,
5591,-0.675,-0.715,
5592,-0.68,-0.695,
5593,-0.675,-0.655,
5594,-0.645,-0.645,
5595,-0.63,-0.615,
5596,-0.635,-0.605,
5597,-0.645,-0.605,
5598,-0.655,-0.595,
5599,-0.66,-0.605,
5600,-0.67,-0.62,
5601,-0.69,-0.615,
5602,-0.695,-0.615,
5603,-0.7,-0.605,
5604,-0.695,-0.59,
5605,-0.695,-0.58,
5606,-0.69,-0.58,
5607,-0.685,-0.56,
5608,-0.68,-0.55,
5609,-0.685,-0.555,
5610,-0.68,-0.57,
5611,-0.69,-0.575,
5612,-0.695,-0.58,
5613,-0.69,-0.585,
5614,-0.71,-0.585,
5615,-0.71,-0.585,
5616,-0.72,-0.575,
5617,-0.705,-0.565,
5618,-0.71,-0.55,
5619,-0.69,-0.555,
5620,-0.69,-0.555,
5621,-0.7,-0.565,
5622,-0.7,-0.565,
5623,-0.71,-0.58,
5624,-0.725,-0.575,
5625,-0.725,-0.585,
5626,-0.75,-0.595,
5627,-0.76,-0.59,
5628,-0.765,-0.58,
5629,-0.78,-0.585,
5630,-0.79,-0.58,
5631,-0.805,-0.585,
5632,-0.825,-0.58,
5633,-0.835,-0.6,
5634,-0.87,-0.615,
5635,-0.89,-0.625,
5636,-0.91,-0.64,
5637,-0.92,-0.645,
5638,-0.93,-0.655,
5639,-0.945,-0.66,
5640,-0.94,-0.665,
5641,-0.93,-0.67,
5642,-0.92,-0.655,
5643,-0.93,-0.64,
5644,-0.93,-0.625,
5645,-0.93,-0.625,
5646,-0.93,-0.635,
5647,-0.94,-0.63,
5648,-0.955,-0.64,
5649,-0.97,-0.63,
5650,-0.985,-0.635,
5651,-1.0,-0.64,
5652,-1.01,-0.65,
5653,-1.025,-0.655,
5654,-1.025,-0.66,
5655,-1.035,-0.67,
5656,-1.04,-0.68,
5657,-1.055,-0.695,
5658,-1.07,-0.71,
5659,-1.095,-0.74,
5660,-1.125,-0.76,
5661,-1.14,-0.785,
5662,-1.165,-0.815,
5663,-1.17,-0.82,
5664,-1.19,-0.83,
5665,-1.185,-0.85,
5666,-1.195,-0.86,
5667,-1.19,-0.855,
5668,-1.18,-0.875,
5669,-1.19,-0.9,
5670,-1.19,-0.915,
5671,-1.185,-0.94,
5672,-1.19,-0.945,
5673,-1.19,-0.965,
5674,-1.195,-0.98,
5675,-1.18,-0.97,
5676,-1.17,-0.95,
5677,-1.13,-0.945,
5678,-1.09,-0.935,
5679,-1.035,-0.92,
5680,-0.995,-0.885,
5681,-0.945,-0.89,
5682,-0.91,-0.87,
5683,-0.875,-0.845,
5684,-0.83,-0.845,
5685,-0.805,-0.83,
5686,-0.78,-0.795,
5687,-0.765,-0.785,
5688,-0.755,-0.765,
5689,-0.72,-0.745,
5690,-0.71,-0.735,
5691,-0.695,-0.705,
5692,-0.69,-0.695,
5693,-0.67,-0.7,
5694,-0.665,-0.68,
5695,-0.665,-0.695,
5696,-0.655,-0.68,
5697,-0.66,-0.68,
5698,-0.67,-0.675,
5699,-0.66,-0.685,
5700,-0.65,-0.665,
5701,-0.605,-0.66,
5702,-0.595,-0.64,
5703,-0.585,-0.625,
5704,-0.57,-0.61,
5705,-0.555,-0.61,
5706,-0.555,-0.605,
5707,-0.555,-0.605,
5708,-0.54,-0.615,
5709,-0.56,-0.615,
5710,-0.565,-0.61,
5711,-0.555,-0.6,
5712,-0.55,-0.6,
5713,-0.55,-0.58,
5714,-0.55,-0.575,
5715,-0.535,-0.56,
5716,-0.535,-0.555,
5717,-0.53,-0.565,
5718,-0.54,-0.56,
5719,-0.54,-0.545,
5720,-0.545,-0.555,
5721,-0.555,-0.56,
5722,-0.545,-0.55,
5723,-0.54,-0.54,
5724,-0.525,-0.535,
5725,-0.52,-0.525,
5726,-0.525,-0.52,
5727,-0.5,-0.505,
5728,-0.495,-0.495,
5729,-0.475,-0.505,
5730,-0.49,-0.495,
5731,-0.475,-0.49,
5732,-0.495,-0.495,
5733,-0.51,-0.51,
5734,-0.515,-0.505,
5735,-0.52,-0.505,
5736,-0.53,-0.49,
5737,-0.525,-0.485,
5738,-0.515,-0.485,
5739,-0.505,-0.48,
5740,-0.505,-0.47,
5741,-0.51,-0.475,
5742,-0.5,-0.475,
5743,-0.505,-0.49,
5744,-0.52,-0.495,
5745,-0.52,-0.495,
5746,-0.535,-0.51,
5747,-0.55,-0.51,
5748,-0.56,-0.505,
5749,-0.575,-0.51,
5750,-0.59,-0.51,
5751,-0.595,-0.52,
5752,-0.585,-0.515,
5753,-0.58,-0.535,
5754,-0.57,-0.535,
5755,-0.565,-0.54,
5756,-0.57,-0.55,
5757,-0.575,-0.56,
5758,-0.57,-0.56,
5759,-0.57,-0.565,
5760,-0.555,-0.56,
5761,-0.545,-0.55,
5762,-0.53,-0.55,
5763,-0.51,-0.535,
5764,-0.505,-0.54,
5765,-0.5,-0.53,
5766,-0.49,-0.52,
5767,-0.49,-0.53,
5768,-0.5,-0.54,
5769,-0.505,-0.555,
5770,-0.505,-0.55,
5771,-0.5,-0.545,
5772,-0.495,-0.545,
5773,-0.485,-0.53,
5774,-0.485,-0.53,
5775,-0.47,-0.515,
5776,-0.465,-0.52,
5777,-0.47,-0.525,
5778,-0.47,-0.53,
5779,-0.47,-0.54,
5780,-0.48,-0.555,
5781,-0.48,-0.555,
5782,-0.49,-0.545,
5783,-0.495,-0.55,
5784,-0.485,-0.545,
5785,-0.475,-0.535,
5786,-0.465,-0.53,
5787,-0.45,-0.52,
5788,-0.44,-0.515,
5789,-0.44,-0.515,
5790,-0.44,-0.52,
5791,-0.455,-0.53,
5792,-0.465,-0.535,
5793,-0.49,-0.55,
5794,-0.49,-0.55,
5795,-0.515,-0.54,
5796,-0.52,-0.54,
5797,-0.515,-0.545,
5798,-0.52,-0.535,
5799,-0.515,-0.53,
5800,-0.505,-0.53,
5801,-0.51,-0.55,
5802,-0.515,-0.545,
5803,-0.505,-0.555,
5804,-0.515,-0.555,
5805,-0.53,-0.57,
5806,-0.54,-0.575,
5807,-0.555,-0.56,
5808,-0.555,-0.55,
5809,-0.555,-0.56,
5810,-0.545,-0.535,
5811,-0.54,-0.53,
5812,-0.54,-0.535,
5813,-0.53,-0.535,
5814,-0.53,-0.54,
5815,-0.53,-0.54,
5816,-0.535,-0.55,
5817,-0.545,-0.555,
5818,-0.55,-0.575,
5819,-0.545,-0.555,
5820,-0.545,-0.545,
5821,-0.535,-0.55,
5822,-0.53,-0.53,
5823,-0.525,-0.53,
5824,-0.51,-0.53,
5825,-0.53,-0.535,
5826,-0.52,-0.535,
5827,-0.515,-0.545,
5828,-0.525,-0.55,
5829,-0.53,-0.54,
5830,-0.53,-0.545,
5831,-0.54,-0.53,
5832,-0.555,-0.52,
5833,-0.575,-0.525,
5834,-0.6,-0.52,
5835,-0.595,-0.495,
5836,-0.565,-0.48,
5837,-0.48,-0.445,
5838,-0.325,-0.375,
5839,-0.13,-0.295,
5840,0.105,-0.22,
5841,0.385,-0.135,
5842,0.695,-0.05,
5843,1.02,0.045,
5844,1.335,0.12,
5845,1.595,0.19,
5846,1.785,0.28,
5847,1.87,0.375,N
5848,1.89,0.49,
5849,1.845,0.555,
5850,1.725,0.54,
5851,1.525,0.395,
5852,1.2,0.11,
5853,0.735,-0.27,
5854,0.195,-0.725,
5855,-0.275,-1.155,
5856,-0.59,-1.48,
5857,-0.73,-1.625,
5858,-0.72,-1.6,
5859,-0.66,-1.445,
5860,-0.57,-1.23,
5861,-0.52,-1.07,
5862,-0.51,-0.955,
5863,-0.525,-0.88,
5864,-0.555,-0.835,
5865,-0.58,-0.815,
5866,-0.6,-0.8,
5867,-0.625,-0.755,
5868,-0.63,-0.715,
5869,-0.625,-0.695,
5870,-0.63,-0.64,
5871,-0.625,-0.6,
5872,-0.61,-0.595,
5873,-0.6,-0.59,
5874,-0.61,-0.575,
5875,-0.62,-0.585,
5876,-0.625,-0.59,
5877,-0.63,-0.6,
5878,-0.635,-0.6,
5879,-0.645,-0.58,
5880,-0.65,-0.58,
5881,-0.655,-0.575,
5882,-0.65,-0.565,
5883,-0.645,-0.56,
5884,-0.635,-0.545,
5885,-0.63,-0.55,
5886,-0.64,-0.545,
5887,-0.66,-0.555,
5888,-0.675,-0.565,
5889,-0.675,-0.57,
5890,-0.705,-0.57,
5891,-0.715,-0.565,
5892,-0.715,-0.545,
5893,-0.695,-0.555,
5894,-0.7,-0.55,
5895,-0.695,-0.55,
5896,-0.7,-0.54,
5897,-0.705,-0.54,
5898,-0.715,-0.545,
5899,-0.73,-0.555,
5900,-0.75,-0.57,
5901,-0.76,-0.57,
5902,-0.765,-0.58,
5903,-0.785,-0.565,
5904,-0.78,-0.565,
5905,-0.775,-0.565,
5906,-0.765,-0.565,
5907,-0.76,-0.54,
5908,-0.765,-0.55,
5909,-0.77,-0.56,
5910,-0.765,-0.57,
5911,-0.77,-0.575,
5912,-0.795,-0.575,
5913,-0.815,-0.6,
5914,-0.825,-0.595,
5915,-0.845,-0.595,
5916,-0.86,-0.605,
5917,-0.855,-0.61,
5918,-0.86,-0.6,
5919,-0.845,-0.615,
5920,-0.835,-0.61,
5921,-0.84,-0.625,
5922,-0.86,-0.62,
5923,-0.865,-0.64,
5924,-0.875,-0.655,
5925,-0.89,-0.665,
5926,-0.905,-0.675,
5927,-0.905,-0.67,
5928,-0.91,-0.675,
5929,-0.91,-0.675,
5930,-0.92,-0.67,
5931,-0.935,-0.68,
5932,-0.93,-0.685,
5933,-0.94,-0.7,
5934,-0.96,-0.715,
5935,-0.99,-0.735,
5936,-1.01,-0.75,
5937,-1.025,-0.78,
5938,-1.035,-0.795,
5939,-1.06,-0.82,
5940,-1.07,-0.81,
5941,-1.09,-0.835,
5942,-1.095,-0.825,
5943,-1.105,-0.845,
5944,-1.105,-0.85,
5945,-1.115,-0.865,
5946,-1.11,-0.87,
5947,-1.115,-0.885,
5948,-1.115,-0.9,
5949,-1.105,-0.905,
5950,-1.085,-0.9,
5951,-1.075,-0.905,
5952,-1.045,-0.89,
5953,-1.015,-0.875,
5954,-0.965,-0.855,
5955,-0.935,-0.84,
5956,-0.895,-0.82,
5957,-0.855,-0.805,
5958,-0.83,-0.805,
5959,-0.805,-0.785,
5960,-0.81,-0.775,
5961,-0.79,-0.765,
5962,-0.775,-0.75,
5963,-0.755,-0.735,
5964,-0.745,-0.72,
5965,-0.7,-0.7,
5966,-0.68,-0.675,
5967,-0.66,-0.66,
5968,-0.65,-0.64,
5969,-0.62,-0.65,
5970,-0.615,-0.655,
5971,-0.605,-0.645,
5972,-0.61,-0.655,
5973,-0.605,-0.66,
5974,-0.6,-0.655,
5975,-0.605,-0.65,
5976,-0.61,-0.64,
5977,-0.595,-0.635,
5978,-0.58,-0.63,
5979,-0.54,-0.61,
5980,-0.51,-0.61,
5981,-0.495,-0.605,
5982,-0.48,-0.595,
5983,-0.465,-0.605,
5984,-0.465,-0.61,
5985,-0.465,-0.61,
5986,-0.47,-0.605,
5987,-0.48,-0.605,
5988,-0.49,-0.6,
5989,-0.48,-0.595,
5990,-0.47,-0.585,
5991,-0.455,-0.585,
5992,-0.465,-0.575,
5993,-0.455,-0.595,
5994,-0.46,-0.59,
5995,-0.475,-0.595,
5996,-0.49,-0.605,
5997,-0.51,-0.62,
5998,-0.51,-0.625,
5999,-0.53,-0.615,
6000,-0.555,-0.62,
6001,-0.545,-0.62,
6002,-0.56,-0.61,
6003,-0.555,-0.615,
6004,-0.56,-0.6,
6005,-0.575,-0.615,
6006,-0.56,-0.62,
6007,-0.56,-0.62,
6008,-0.57,-0.63,
6009,-0.575,-0.63,
6010,-0.57,-0.63,
6011,-0.58,-0.625,
6012,-0.575,-0.605,
6013,-0.575,-0.6,
6014,-0.56,-0.59,
6015,-0.56,-0.58,
6016,-0.565,-0.575,
6017,-0.55,-0.575,
6018,-0.56,-0.58,
6019,-0.56,-0.57,
6020,-0.56,-0.585,
6021,-0.545,-0.585,
6022,-0.53,-0.59,
6023,-0.525,-0.58,
6024,-0.525,-0.56,
6025,-0.5,-0.545,
6026,-0.5,-0.53,
6027,-0.495,-0.52,
6028,-0.485,-0.52,
6029,-0.485,-0.515,
6030,-0.49,-0.525,
6031,-0.49,-0.53,
6032,-0.49,-0.525,
6033,-0.495,-0.535,
6034,-0.495,-0.54,
6035,-0.49,-0.54,
6036,-0.48,-0.54,
6037,-0.465,-0.535,
6038,-0.455,-0.515,
6039,-0.445,-0.505,
6040,-0.42,-0.5,
6041,-0.435,-0.49,
6042,-0.435,-0.505,
6043,-0.445,-0.51,
6044,-0.46,-0.535,
6045,-0.48,-0.525,
6046,-0.505,-0.54,
6047,-0.52,-0.53,
6048,-0.47,-0.51,
6049,-0.365,-0.46,
6050,-0.19,-0.375,
6051,0.015,-0.26,
6052,0.27,-0.145,
6053,0.545,-0.06,
6054,0.845,0.015,
6055,1.145,0.05,
6056,1.415,0.105,
6057,1.635,0.16,
6058,1.78,0.235,
6059,1.825,0.33,N
6060,1.8,0.405,
6061,1.7,0.415,
6062,1.515,0.32,
6063,1.19,0.05,
6064,0.725,-0.335,
6065,0.185,-0.8,
6066,-0.31,-1.24,
6067,-0.65,-1.57,
6068,-0.805,-1.735,
6069,-0.815,-1.725,
6070,-0.75,-1.57,
6071,-0.67,-1.365,
6072,-0.62,-1.16,
6073,-0.595,-1.035,
6074,-0.585,-0.94,
6075,-0.61,-0.885,
6076,-0.625,-0.85,
6077,-0.64,-0.84,
6078,-0.65,-0.805,
6079,-0.645,-0.785,
6080,-0.655,-0.755,
6081,-0.655,-0.725,
6082,-0.655,-0.71,
6083,-0.67,-0.69,
6084,-0.675,-0.665,
6085,-0.685,-0.66,
6086,-0.675,-0.645,
6087,-0.67,-0.635,
6088,-0.665,-0.615,
6089,-0.685,-0.615,
6090,-0.68,-0.605,
6091,-0.685,-0.605,
6092,-0.68,-0.605,
6093,-0.68,-0.605,
6094,-0.685,-0.595,
6095,-0.7,-0.58,
6096,-0.7,-0.58,
6097,-0.7,-0.575,
6098,-0.69,-0.57,
6099,-0.68,-0.555,
6100,-0.675,-0.56,
6101,-0.675,-0.58,
6102,-0.685,-0.57,
6103,-0.685,-0.585,
6104,-0.695,-0.595,
6105,-0.7,-0.6,
6106,-0.71,-0.59,
6107,-0.73,-0.585,
6108,-0.715,-0.58,
6109,-0.715,-0.565,
6110,-0.705,-0.555,
6111,-0.71,-0.565,
6112,-0.705,-0.565,
6113,-0.705,-0.565,
6114,-0.71,-0.565,
6115,-0.725,-0.585,
6116,-0.73,-0.595,
6117,-0.73,-0.615,
6118,-0.745,-0.61,
6119,-0.75,-0.615,
6120,-0.76,-0.61,
6121,-0.76,-0.6,
6122,-0.765,-0.595,
6123,-0.77,-0.595,
6124,-0.77,-0.585,
6125,-0.78,-0.6,
6126,-0.79,-0.605,
6127,-0.795,-0.625,
6128,-0.82,-0.63,
6129,-0.84,-0.64,
6130,-0.85,-0.645,
6131,-0.86,-0.655,
6132,-0.875,-0.655,
6133,-0.9,-0.655,
6134,-0.91,-0.66,
6135,-0.935,-0.67,
6136,-0.94,-0.665,
6137,-0.955,-0.695,
6138,-0.96,-0.695,
6139,-0.97,-0.71,
6140,-0.985,-0.735,
6141,-1.005,-0.745,
6142,-1.02,-0.76,
6143,-1.03,-0.765,
6144,-1.05,-0.78,
6145,-1.06,-0.78,
6146,-1.07,-0.78,
6147,-1.085,-0.78,
6148,-1.09,-0.78,
6149,-1.105,-0.8,
6150,-1.125,-0.815,
6151,-1.14,-0.82,
6152,-1.15,-0.84,
6153,-1.16,-0.86,
6154,-1.165,-0.88,
6155,-1.165,-0.88,
6156,-1.155,-0.885,
6157,-1.135,-0.875,
6158,-1.12,-0.89,
6159,-1.085,-0.87,
6160,-1.06,-0.86,
6161,-1.035,-0.87,
6162,-1.01,-0.87,
6163,-0.975,-0.88,
6164,-0.95,-0.875,
6165,-0.92,-0.86,
6166,-0.9,-0.85,
6167,-0.86,-0.825,
6168,-0.825,-0.81,
6169,-0.8,-0.795,
6170,-0.775,-0.78,
6171,-0.75,-0.755,
6172,-0.73,-0.74,
6173,-0.69,-0.735,
6174,-0.655,-0.735,
6175,-0.64,-0.725,
6176,-0.6,-0.735,
6177,-0.61,-0.725,
6178,-0.605,-0.725,
6179,-0.585,-0.725,
6180,-0.59,-0.705,
6181,-0.575,-0.705,
6182,-0.575,-0.695,
6183,-0.575,-0.685,
6184,-0.565,-0.68,
6185,-0.555,-0.675,
6186,-0.56,-0.68,
6187,-0.565,-0.69,
6188,-0.57,-0.695,
6189,-0.565,-0.695,
6190,-0.58,-0.695,
6191,-0.585,-0.695,
6192,-0.58,-0.68,
6193,-0.575,-0.68,
6194,-0.575,-0.655,
6195,-0.58,-0.65,
6196,-0.555,-0.645,
6197,-0.55,-0.66,
6198,-0.55,-0.66,
6199,-0.565,-0.675,
6200,-0.565,-0.68,
6201,-0.565,-0.675,
6202,-0.565,-0.675,
6203,-0.555,-0.66,
6204,-0.56,-0.655,
6205,-0.555,-0.635,
6206,-0.545,-0.62,
6207,-0.545,-0.605,
6208,-0.55,-0.59,
6209,-0.54,-0.6,
6210,-0.545,-0.595,
6211,-0.54,-0.605,
6212,-0.535,-0.6,
6213,-0.54,-0.59,
6214,-0.545,-0.6,
6215,-0.55,-0.59,
6216,-0.54,-0.58,
6217,-0.535,-0.575,
6218,-0.525,-0.575,
6219,-0.52,-0.565,
6220,-0.505,-0.555,
6221,-0.495,-0.56,
6222,-0.495,-0.565,
6223,-0.505,-0.565,
6224,-0.505,-0.575,
6225,-0.51,-0.57,
6226,-0.505,-0.575,
6227,-0.505,-0.57,
6228,-0.495,-0.555,
6229,-0.49,-0.555,
6230,-0.485,-0.545,
6231,-0.48,-0.55,
6232,-0.465,-0.555,
6233,-0.46,-0.56,
6234,-0.48,-0.56,
6235,-0.475,-0.55,
6236,-0.495,-0.555,
6237,-0.505,-0.575,
6238,-0.52,-0.59,
6239,-0.52,-0.585,
6240,-0.515,-0.59,
6241,-0.53,-0.6,
6242,-0.525,-0.59,
6243,-0.52,-0.6,
6244,-0.515,-0.6,
6245,-0.52,-0.595,
6246,-0.52,-0.61,
6247,-0.525,-0.615,
6248,-0.53,-0.62,
6249,-0.535,-0.635,
6250,-0.545,-0.64,
6251,-0.545,-0.645,
6252,-0.545,-0.65,
6253,-0.54,-0.635,
6254,-0.55,-0.63,
6255,-0.54,-0.615,
6256,-0.525,-0.605,
6257,-0.53,-0.615,
6258,-0.53,-0.61,
6259,-0.535,-0.63,
6260,-0.545,-0.63,
6261,-0.545,-0.635,
6262,-0.555,-0.635,
6263,-0.555,-0.62,
6264,-0.555,-0.62,
6265,-0.565,-0.61,
6266,-0.555,-0.61,
6267,-0.55,-0.605,
6268,-0.54,-0.61,
6269,-0.545,-0.615,
6270,-0.53,-0.625,
6271,-0.54,-0.63,
6272,-0.535,-0.63,
6273,-0.545,-0.645,
6274,-0.53,-0.64,
6275,-0.525,-0.64,
6276,-0.53,-0.62,
6277,-0.52,-0.625,
6278,-0.53,-0.61,
6279,-0.535,-0.615,
6280,-0.52,-0.61,
6281,-0.51,-0.62,
6282,-0.51,-0.62,
6283,-0.525,-0.635,
6284,-0.535,-0.64,
6285,-0.53,-0.64,
6286,-0.53,-0.65,
6287,-0.52,-0.64,
6288,-0.515,-0.635,
6289,-0.515,-0.63,
6290,-0.505,-0.63,
6291,-0.49,-0.625,
6292,-0.505,-0.625,
6293,-0.51,-0.635,
6294,-0.505,-0.64,
6295,-0.5,-0.645,
6296,-0.505,-0.655,
6297,-0.52,-0.665,
6298,-0.525,-0.675,
6299,-0.535,-0.67,
6300,-0.53,-0.66,
6301,-0.53,-0.665,
6302,-0.525,-0.675,
6303,-0.515,-0.67,
6304,-0.515,-0.665,
6305,-0.525,-0.68,
6306,-0.52,-0.69,
6307,-0.545,-0.705,
6308,-0.54,-0.71,
6309,-0.55,-0.73,
6310,-0.55,-0.725,
6311,-0.56,-0.715,
6312,-0.565,-0.705,
6313,-0.565,-0.695,
6314,-0.54,-0.675,
6315,-0.525,-0.67,
6316,-0.525,-0.65,
6317,-0.52,-0.655,
6318,-0.51,-0.665,
6319,-0.525,-0.67,
6320,-0.515,-0.665,
6321,-0.505,-0.68,
6322,-0.495,-0.665,
6323,-0.49,-0.655,
6324,-0.485,-0.64,
6325,-0.48,-0.615,
6326,-0.47,-0.615,
6327,-0.465,-0.585,
6328,-0.46,-0.575,
6329,-0.465,-0.585,
6330,-0.47,-0.58,
6331,-0.465,-0.6,
6332,-0.475,-0.61,
6333,-0.48,-0.625,
6334,-0.48,-0.625,
6335,-0.5,-0.62,
6336,-0.49,-0.61,
6337,-0.495,-0.59,
6338,-0.49,-0.595,
6339,-0.51,-0.58,
6340,-0.52,-0.575,
6341,-0.54,-0.575,
6342,-0.565,-0.57,
6343,-0.565,-0.575,
6344,-0.525,-0.57,
6345,-0.41,-0.52,
6346,-0.24,-0.44,
6347,-0.04,-0.34,
6348,0.24,-0.235,
6349,0.545,-0.125,
6350,0.87,-0.01,
6351,1.195,0.085,
6352,1.48,0.185,
6353,1.685,0.25,
6354,1.81,0.355,
6355,1.84,0.43,N
6356,1.805,0.515,
6357,1.705,0.53,
6358,1.53,0.43,
6359,1.23,0.175,
6360,0.805,-0.2,
6361,0.27,-0.67,
6362,-0.23,-1.14,
6363,-0.57,-1.52,
6364,-0.735,-1.745,
6365,-0.75,-1.775,
6366,-0.71,-1.68,
6367,-0.635,-1.495,
6368,-0.59,-1.305,
6369,-0.565,-1.19,
6370,-0.57,-1.1,
6371,-0.59,-1.025,
6372,-0.62,-0.98,
6373,-0.635,-0.94,
6374,-0.655,-0.89,
6375,-0.66,-0.85,
6376,-0.65,-0.815,
6377,-0.65,-0.81,
6378,-0.64,-0.79,
6379,-0.635,-0.78,
6380,-0.65,-0.765,
6381,-0.64,-0.755,
6382,-0.67,-0.75,
6383,-0.695,-0.74,
6384,-0.69,-0.725,
6385,-0.7,-0.72,
6386,-0.685,-0.705,
6387,-0.68,-0.695,
6388,-0.68,-0.68,
6389,-0.67,-0.675,
6390,-0.675,-0.655,
6391,-0.665,-0.665,
6392,-0.68,-0.66,
6393,-0.695,-0.665,
6394,-0.715,-0.665,
6395,-0.72,-0.66,
6396,-0.73,-0.65,
6397,-0.735,-0.635,
6398,-0.725,-0.625,
6399,-0.735,-0.62,
6400,-0.73,-0.62,
6401,-0.745,-0.615,
6402,-0.745,-0.605,
6403,-0.74,-0.62,
6404,-0.75,-0.625,
6405,-0.765,-0.625,
6406,-0.765,-0.64,
6407,-0.775,-0.64,
6408,-0.76,-0.63,
6409,-0.765,-0.62,
6410,-0.765,-0.625,
6411,-0.76,-0.61,
6412,-0.755,-0.61,
6413,-0.765,-0.625,
6414,-0.765,-0.625,
6415,-0.78,-0.64,
6416,-0.785,-0.655,
6417,-0.805,-0.66,
6418,-0.815,-0.68,
6419,-0.82,-0.68,
6420,-0.815,-0.68,
6421,-0.825,-0.68,
6422,-0.825,-0.685,
6423,-0.81,-0.68,
6424,-0.81,-0.685,
6425,-0.815,-0.69,
6426,-0.845,-0.7,
6427,-0.87,-0.715,
6428,-0.885,-0.72,
6429,-0.905,-0.745,
