,MLII,V1,symbol
0,-0.245,0.21,
1,-0.245,0.21,
2,-0.245,0.21,
3,-0.245,0.21,
4,-0.245,0.21,
5,-0.245,0.21,
6,-0.245,0.21,
7,-0.245,0.21,
8,-0.24,0.21,
9,-0.235,0.215,
10,-0.195,0.205,
11,-0.18,0.215,
12,-0.155,0.215,
13,-0.135,0.21,
14,-0.125,0.205,
15,-0.14,0.215,
16,-0.165,0.205,
17,-0.17,0.2,
18,-0.185,0.2,
19,-0.195,0.185,
20,-0.195,0.185,
21,-0.19,0.19,
22,-0.17,0.195,
23,-0.165,0.2,
24,-0.165,0.21,
25,-0.17,0.22,
26,-0.165,0.24,
27,-0.175,0.23,
28,-0.18,0.225,
29,-0.195,0.22,
30,-0.195,0.215,
31,-0.195,0.215,
32,-0.215,0.205,
33,-0.215,0.21,
34,-0.2,0.215,
35,-0.185,0.22,
36,-0.175,0.215,
37,-0.175,0.23,
38,-0.175,0.23,
39,-0.19,0.235,
40,-0.2,0.215,
41,-0.205,0.22,
42,-0.2,0.215,
43,-0.2,0.205,
44,-0.185,0.205,
45,-0.2,0.195,
46,-0.2,0.2,
47,-0.2,0.22,
48,-0.19,0.215,
49,-0.16,0.225,
50,-0.145,0.22,
51,-0.14,0.215,
52,-0.16,0.215,
53,-0.175,0.205,
54,-0.205,0.22,
55,-0.225,0.23,
56,-0.255,0.215,
57,-0.26,0.22,
58,-0.23,0.215,
59,-0.185,0.215,
60,-0.165,0.2,
61,-0.16,0.235,
62,-0.17,0.24,
63,-0.2,0.24,
64,-0.22,0.25,
65,-0.215,0.235,
66,-0.215,0.235,
67,-0.215,0.21,
68,-0.19,0.195,
69,-0.19,0.2,
70,-0.19,0.205,
71,-0.195,0.21,
72,-0.195,0.22,
73,-0.195,0.23,
74,-0.19,0.215,
75,-0.19,0.24,
76,-0.185,0.23,+
77,-0.185,0.21,
78,-0.18,0.205,
79,-0.17,0.21,
80,-0.185,0.215,
81,-0.2,0.23,
82,-0.215,0.235,
83,-0.21,0.235,
84,-0.185,0.225,
85,-0.15,0.22,
86,-0.145,0.235,
87,-0.17,0.24,
88,-0.2,0.25,
89,-0.225,0.24,
90,-0.24,0.25,
91,-0.225,0.215,
92,-0.205,0.21,
93,-0.2,0.2,
94,-0.195,0.205,
95,-0.195,0.225,
96,-0.205,0.22,
97,-0.205,0.25,
98,-0.205,0.245,
99,-0.21,0.235,
100,-0.21,0.22,
101,-0.19,0.2,
102,-0.175,0.19,
103,-0.175,0.19,
104,-0.175,0.18,
105,-0.175,0.185,
106,-0.18,0.18,
107,-0.18,0.195,
108,-0.2,0.195,
109,-0.235,0.23,
110,-0.25,0.24,
111,-0.255,0.23,
112,-0.24,0.225,
113,-0.215,0.2,
114,-0.185,0.185,
115,-0.17,0.16,
116,-0.18,0.17,
117,-0.175,0.18,
118,-0.185,0.195,
119,-0.185,0.21,
120,-0.185,0.215,
121,-0.19,0.23,
122,-0.22,0.24,
123,-0.22,0.23,
124,-0.22,0.22,
125,-0.205,0.21,
126,-0.185,0.19,
127,-0.195,0.19,
128,-0.21,0.19,
129,-0.215,0.185,
130,-0.215,0.19,
131,-0.195,0.2,
132,-0.175,0.205,
133,-0.18,0.215,
134,-0.21,0.25,
135,-0.245,0.255,
136,-0.26,0.25,
137,-0.265,0.235,
138,-0.26,0.22,
139,-0.255,0.205,
140,-0.235,0.175,
141,-0.21,0.18,
142,-0.2,0.175,
143,-0.175,0.195,
144,-0.175,0.19,
145,-0.17,0.205,
146,-0.195,0.21,
147,-0.215,0.21,
148,-0.23,0.21,
149,-0.235,0.215,
150,-0.23,0.205,
151,-0.22,0.2,
152,-0.195,0.18,
153,-0.175,0.18,
154,-0.155,0.17,
155,-0.15,0.175,
156,-0.15,0.195,
157,-0.17,0.21,
158,-0.18,0.205,
159,-0.21,0.225,
160,-0.245,0.245,
161,-0.25,0.245,
162,-0.27,0.25,
163,-0.275,0.24,
164,-0.27,0.225,
165,-0.255,0.21,
166,-0.235,0.21,
167,-0.2,0.205,
168,-0.155,0.19,
169,-0.12,0.175,
170,-0.115,0.17,
171,-0.125,0.175,
172,-0.175,0.19,
173,-0.225,0.215,
174,-0.265,0.24,
175,-0.29,0.24,
176,-0.29,0.245,
177,-0.3,0.235,
178,-0.27,0.235,
179,-0.235,0.215,
180,-0.205,0.225,
181,-0.19,0.215,
182,-0.185,0.215,
183,-0.18,0.2,
184,-0.17,0.19,
185,-0.145,0.18,
186,-0.145,0.175,
187,-0.145,0.16,
188,-0.17,0.175,
189,-0.21,0.195,
190,-0.25,0.205,
191,-0.28,0.23,
192,-0.275,0.245,
193,-0.275,0.245,
194,-0.245,0.24,
195,-0.225,0.225,
196,-0.195,0.22,
197,-0.175,0.2,
198,-0.19,0.185,
199,-0.195,0.17,
200,-0.19,0.17,
201,-0.195,0.18,
202,-0.22,0.18,
203,-0.22,0.205,
204,-0.23,0.215,
205,-0.22,0.24,
206,-0.22,0.23,
207,-0.22,0.225,
208,-0.2,0.2,
209,-0.205,0.195,
210,-0.21,0.185,
211,-0.22,0.2,
212,-0.235,0.2,
213,-0.25,0.21,
214,-0.265,0.2,
215,-0.25,0.205,
216,-0.24,0.21,
217,-0.225,0.21,
218,-0.2,0.21,
219,-0.2,0.185,
220,-0.19,0.185,
221,-0.185,0.19,
222,-0.195,0.175,
223,-0.195,0.18,
224,-0.2,0.18,
225,-0.205,0.195,
226,-0.22,0.2,
227,-0.215,0.205,
228,-0.225,0.205,
229,-0.23,0.215,
230,-0.23,0.22,
231,-0.23,0.22,
232,-0.205,0.21,
233,-0.21,0.2,
234,-0.215,0.19,
235,-0.22,0.185,
236,-0.235,0.18,
237,-0.245,0.18,
238,-0.235,0.195,
239,-0.23,0.2,
240,-0.195,0.2,
241,-0.18,0.205,
242,-0.17,0.22,
243,-0.17,0.205,
244,-0.165,0.19,
245,-0.17,0.195,
246,-0.18,0.19,
247,-0.21,0.18,
248,-0.23,0.18,
249,-0.23,0.195,
250,-0.235,0.195,
251,-0.24,0.205,
252,-0.235,0.21,
253,-0.245,0.215,
254,-0.245,0.225,
255,-0.24,0.22,
256,-0.24,0.22,
257,-0.22,0.19,
258,-0.21,0.18,
259,-0.195,0.19,
260,-0.195,0.175,
261,-0.21,0.19,
262,-0.215,0.19,
263,-0.215,0.2,
264,-0.195,0.185,
265,-0.17,0.2,
266,-0.14,0.195,
267,-0.145,0.185,
268,-0.175,0.185,
269,-0.215,0.215,
270,-0.25,0.21,
271,-0.28,0.21,
272,-0.275,0.21,
273,-0.265,0.2,
274,-0.235,0.18,
275,-0.205,0.19,
276,-0.2,0.195,
277,-0.195,0.2,
278,-0.2,0.205,
279,-0.205,0.205,
280,-0.21,0.22,
281,-0.22,0.22,
282,-0.235,0.205,
283,-0.255,0.21,
284,-0.26,0.195,
285,-0.245,0.19,
286,-0.225,0.19,
287,-0.21,0.2,
288,-0.2,0.2,
289,-0.19,0.21,
290,-0.185,0.22,
291,-0.2,0.215,
292,-0.225,0.23,
293,-0.225,0.215,
294,-0.23,0.21,
295,-0.225,0.2,
296,-0.2,0.185,
297,-0.19,0.17,
298,-0.175,0.19,
299,-0.165,0.2,
300,-0.19,0.205,
301,-0.205,0.205,
302,-0.215,0.22,
303,-0.23,0.22,
304,-0.21,0.195,
305,-0.18,0.19,
306,-0.17,0.17,
307,-0.18,0.17,
308,-0.205,0.185,
309,-0.235,0.2,
310,-0.255,0.21,
311,-0.25,0.21,
312,-0.225,0.205,
313,-0.195,0.215,
314,-0.175,0.22,
315,-0.165,0.215,
316,-0.155,0.21,
317,-0.175,0.19,
318,-0.2,0.205,
319,-0.215,0.195,
320,-0.22,0.19,
321,-0.205,0.18,
322,-0.2,0.185,
323,-0.19,0.185,
324,-0.175,0.19,
325,-0.175,0.205,
326,-0.185,0.215,
327,-0.195,0.215,
328,-0.205,0.195,
329,-0.21,0.215,
330,-0.215,0.21,
331,-0.215,0.195,
332,-0.215,0.19,
333,-0.195,0.185,
334,-0.19,0.18,
335,-0.195,0.19,
336,-0.195,0.2,
337,-0.215,0.205,
338,-0.2,0.2,
339,-0.195,0.2,
340,-0.185,0.195,
341,-0.175,0.175,
342,-0.185,0.165,
343,-0.19,0.165,
344,-0.21,0.165,
345,-0.21,0.18,
346,-0.235,0.185,
347,-0.24,0.205,
348,-0.22,0.205,
349,-0.205,0.21,
350,-0.18,0.185,
351,-0.155,0.175,
352,-0.145,0.16,
353,-0.155,0.165,
354,-0.19,0.18,
355,-0.23,0.195,
356,-0.265,0.21,
357,-0.275,0.2,
358,-0.24,0.19,
359,-0.22,0.195,
360,-0.21,0.195,
361,-0.19,0.19,
362,-0.18,0.205,
363,-0.205,0.21,
364,-0.2,0.19,
365,-0.21,0.185,
366,-0.185,0.175,
367,-0.19,0.16,
368,-0.175,0.155,
369,-0.175,0.165,
370,-0.195,0.165,
371,-0.19,0.18,
372,-0.18,0.18,
373,-0.145,0.185,
374,-0.125,0.175,
375,-0.125,0.175,
376,-0.16,0.19,
377,-0.2,0.205,
378,-0.25,0.215,
379,-0.305,0.22,
380,-0.325,0.215,
381,-0.33,0.215,
382,-0.265,0.19,
383,-0.235,0.18,
384,-0.19,0.17,
385,-0.17,0.185,
386,-0.16,0.205,
387,-0.17,0.195,
388,-0.185,0.19,
389,-0.195,0.195,
390,-0.2,0.18,
391,-0.205,0.175,
392,-0.2,0.165,
393,-0.2,0.15,
394,-0.18,0.155,
395,-0.175,0.165,
396,-0.16,0.16,
397,-0.15,0.18,
398,-0.16,0.2,
399,-0.2,0.21,
400,-0.23,0.22,
401,-0.23,0.195,
402,-0.195,0.19,
403,-0.175,0.18,
404,-0.165,0.16,
405,-0.18,0.185,
406,-0.205,0.21,
407,-0.225,0.23,
408,-0.235,0.245,
409,-0.22,0.255,
410,-0.195,0.235,
411,-0.145,0.22,
412,-0.085,0.19,
413,-0.045,0.17,
414,-0.04,0.175,
415,-0.095,0.2,
416,-0.145,0.225,
417,-0.19,0.235,
418,-0.205,0.22,
419,-0.19,0.205,
420,-0.165,0.21,
421,-0.135,0.2,
422,-0.1,0.2,
423,-0.095,0.175,
424,-0.095,0.175,
425,-0.095,0.15,
426,-0.125,0.145,
427,-0.145,0.14,
428,-0.165,0.15,
429,-0.185,0.165,
430,-0.19,0.16,
431,-0.175,0.16,
432,-0.165,0.17,
433,-0.15,0.17,
434,-0.15,0.16,
435,-0.15,0.165,
436,-0.155,0.16,
437,-0.155,0.145,
438,-0.15,0.135,
439,-0.145,0.135,
440,-0.14,0.14,
441,-0.135,0.15,
442,-0.145,0.17,
443,-0.145,0.185,
444,-0.145,0.195,
445,-0.145,0.21,
446,-0.145,0.185,
447,-0.155,0.19,
448,-0.185,0.2,
449,-0.21,0.195,
450,-0.245,0.19,
451,-0.27,0.205,
452,-0.285,0.195,
453,-0.275,0.2,
454,-0.265,0.19,
455,-0.245,0.19,
456,-0.22,0.19,
457,-0.205,0.2,
458,-0.195,0.205,
459,-0.225,0.225,
460,-0.245,0.235,
461,-0.24,0.23,
462,-0.24,0.215,
463,-0.245,0.195,
464,-0.235,0.17,
465,-0.205,0.155,
466,-0.185,0.175,
467,-0.19,0.18,
468,-0.195,0.19,
469,-0.205,0.215,
470,-0.215,0.215,
471,-0.225,0.215,
472,-0.225,0.2,
473,-0.22,0.19,
474,-0.21,0.18,
475,-0.195,0.18,
476,-0.185,0.175,
477,-0.175,0.18,
478,-0.175,0.19,
479,-0.19,0.205,
480,-0.19,0.215,
481,-0.19,0.245,
482,-0.16,0.255,
483,-0.13,0.26,
484,-0.09,0.255,
485,-0.045,0.215,
486,-0.02,0.175,
487,0.01,0.12,
488,0.05,0.04,
489,0.115,-0.075,
490,0.21,-0.2,
491,0.295,-0.32,R
492,0.34,-0.405,
493,0.31,-0.455,
494,0.19,-0.46,
495,-0.01,-0.42,
496,-0.22,-0.345,
497,-0.39,-0.21,
498,-0.48,-0.025,
499,-0.52,0.16,
500,-0.505,0.32,
501,-0.48,0.425,
502,-0.44,0.485,
503,-0.42,0.515,
504,-0.4,0.525,
505,-0.405,0.545,
506,-0.425,0.56,
507,-0.45,0.56,
508,-0.48,0.585,
509,-0.5,0.605,
510,-0.5,0.63,
511,-0.485,0.64,
512,-0.455,0.66,
513,-0.405,0.685,
514,-0.35,0.68,
515,-0.335,0.705,
516,-0.305,0.72,
517,-0.325,0.74,
518,-0.355,0.75,
519,-0.395,0.75,
520,-0.405,0.73,
521,-0.41,0.68,
522,-0.4,0.61,
523,-0.375,0.545,
524,-0.355,0.47,
525,-0.355,0.4,
526,-0.32,0.33,
527,-0.295,0.29,
528,-0.26,0.24,
529,-0.22,0.21,
530,-0.18,0.195,
531,-0.18,0.17,
532,-0.175,0.175,
533,-0.185,0.165,
534,-0.195,0.15,
535,-0.22,0.145,
536,-0.23,0.155,
537,-0.225,0.14,
538,-0.22,0.14,
539,-0.21,0.155,
540,-0.21,0.15,
541,-0.205,0.15,
542,-0.195,0.15,
543,-0.19,0.145,
544,-0.195,0.15,
545,-0.18,0.14,
546,-0.195,0.13,
547,-0.205,0.13,
548,-0.225,0.12,
549,-0.22,0.12,
550,-0.195,0.12,
551,-0.185,0.11,
552,-0.165,0.11,
553,-0.17,0.12,
554,-0.16,0.12,
555,-0.18,0.125,
556,-0.19,0.125,
557,-0.195,0.115,
558,-0.18,0.08,
559,-0.15,0.055,
560,-0.115,0.035,
561,-0.1,0.04,
562,-0.11,0.085,
563,-0.155,0.11,
564,-0.2,0.125,
565,-0.215,0.145,
566,-0.205,0.145,
567,-0.19,0.125,
568,-0.17,0.095,
569,-0.14,0.085,
570,-0.125,0.07,
571,-0.135,0.055,
572,-0.14,0.06,
573,-0.145,0.055,
574,-0.145,0.055,
575,-0.13,0.055,
576,-0.12,0.06,
577,-0.125,0.05,
578,-0.125,0.04,
579,-0.11,0.025,
580,-0.105,0.01,
581,-0.095,-0.005,
582,-0.095,-0.015,
583,-0.09,-0.04,
584,-0.08,-0.04,
585,-0.085,-0.04,
586,-0.08,-0.03,
587,-0.095,-0.035,
588,-0.075,-0.035,
589,-0.05,-0.055,
590,-0.03,-0.05,
591,-0.01,-0.075,
592,-0.005,-0.085,
593,0.0,-0.09,
594,-0.01,-0.095,
595,-0.02,-0.085,
596,-0.035,-0.105,
597,-0.03,-0.095,
598,-0.03,-0.105,
599,0.005,-0.125,
600,0.03,-0.12,
601,0.05,-0.12,
602,0.065,-0.125,
603,0.06,-0.125,
604,0.05,-0.11,
605,0.02,-0.1,
606,0.005,-0.09,
607,-0.01,-0.1,
608,-0.015,-0.09,
609,-0.02,-0.09,
610,0.0,-0.085,
611,0.015,-0.05,
612,0.035,-0.045,
613,0.055,-0.04,
614,0.065,-0.035,
615,0.06,-0.025,
616,0.04,0.0,
617,0.01,0.005,
618,-0.03,0.035,
619,-0.04,0.03,
620,-0.04,0.035,
621,-0.035,0.05,
622,-0.025,0.055,
623,-0.02,0.085,
624,-0.025,0.105,
625,-0.055,0.125,
626,-0.065,0.15,
627,-0.095,0.145,
628,-0.105,0.16,
629,-0.115,0.155,
630,-0.1,0.155,
631,-0.105,0.14,
632,-0.115,0.14,
633,-0.135,0.15,
634,-0.145,0.15,
635,-0.16,0.165,
636,-0.165,0.18,
637,-0.18,0.18,
638,-0.165,0.19,
639,-0.15,0.19,
640,-0.155,0.17,
641,-0.15,0.155,
642,-0.155,0.145,
643,-0.175,0.14,
644,-0.205,0.135,
645,-0.215,0.135,
646,-0.23,0.16,
647,-0.225,0.155,
648,-0.21,0.135,
649,-0.19,0.135,
650,-0.175,0.135,
651,-0.17,0.11,
652,-0.165,0.105,
653,-0.17,0.11,
654,-0.18,0.115,
655,-0.18,0.105,
656,-0.19,0.11,
657,-0.205,0.105,
658,-0.185,0.11,
659,-0.17,0.115,
660,-0.155,0.145,
661,-0.155,0.145,
662,-0.135,0.16,
663,-0.135,0.15,
664,-0.125,0.15,
665,-0.105,0.13,
666,-0.105,0.115,
667,-0.11,0.105,
668,-0.115,0.1,
669,-0.125,0.1,
670,-0.14,0.11,
671,-0.145,0.12,
672,-0.145,0.135,
673,-0.145,0.135,
674,-0.13,0.125,
675,-0.12,0.13,
676,-0.12,0.13,
677,-0.12,0.115,
678,-0.12,0.12,
679,-0.13,0.11,
680,-0.16,0.12,
681,-0.175,0.14,
682,-0.17,0.15,
683,-0.155,0.175,
684,-0.135,0.17,
685,-0.09,0.165,
686,-0.06,0.165,
687,-0.06,0.175,
688,-0.1,0.18,
689,-0.12,0.18,
690,-0.13,0.175,
691,-0.15,0.175,
692,-0.15,0.165,
693,-0.15,0.17,
694,-0.13,0.165,
695,-0.125,0.17,
696,-0.12,0.175,
697,-0.115,0.185,
698,-0.12,0.195,
699,-0.13,0.195,
700,-0.14,0.205,
701,-0.155,0.19,
702,-0.17,0.19,
703,-0.155,0.18,
704,-0.155,0.18,
705,-0.145,0.175,
706,-0.13,0.185,
707,-0.125,0.185,
708,-0.12,0.185,
709,-0.13,0.185,
710,-0.115,0.19,
711,-0.11,0.185,
712,-0.11,0.2,
713,-0.1,0.175,
714,-0.1,0.185,
715,-0.11,0.18,
716,-0.145,0.17,
717,-0.17,0.175,
718,-0.175,0.175,
719,-0.165,0.19,
720,-0.125,0.195,
721,-0.115,0.185,
722,-0.115,0.19,
723,-0.135,0.195,
724,-0.15,0.185,
725,-0.15,0.185,
726,-0.13,0.165,
727,-0.115,0.16,
728,-0.105,0.16,
729,-0.1,0.19,
730,-0.085,0.225,
731,-0.075,0.24,
732,-0.045,0.23,
733,0.01,0.185,
734,0.11,0.1,
735,0.235,-0.02,
736,0.365,-0.15,
737,0.47,-0.255,A
738,0.495,-0.335,
739,0.44,-0.375,
740,0.26,-0.37,
741,0.02,-0.32,
742,-0.195,-0.205,
743,-0.355,-0.07,
744,-0.435,0.115,
745,-0.44,0.265,
746,-0.415,0.4,
747,-0.39,0.47,
748,-0.34,0.505,
749,-0.305,0.485,
750,-0.305,0.47,
751,-0.32,0.455,
752,-0.355,0.455,
753,-0.395,0.48,
754,-0.4,0.5,
755,-0.38,0.515,
756,-0.35,0.525,
757,-0.3,0.54,
758,-0.255,0.56,
759,-0.255,0.595,
760,-0.28,0.62,
761,-0.325,0.635,
762,-0.385,0.655,
763,-0.41,0.655,
764,-0.415,0.63,
765,-0.395,0.61,
766,-0.35,0.555,
767,-0.3,0.5,
768,-0.285,0.445,
769,-0.265,0.4,
770,-0.26,0.34,
771,-0.255,0.29,
772,-0.24,0.24,
773,-0.215,0.17,
774,-0.18,0.13,
775,-0.15,0.09,
776,-0.15,0.085,
777,-0.155,0.075,
778,-0.145,0.095,
779,-0.165,0.12,
780,-0.15,0.1,
781,-0.135,0.115,
782,-0.125,0.105,
783,-0.105,0.095,
784,-0.095,0.085,
785,-0.1,0.07,
786,-0.095,0.07,
787,-0.105,0.055,
788,-0.125,0.07,
789,-0.145,0.085,
790,-0.165,0.1,
791,-0.155,0.095,
792,-0.155,0.1,
793,-0.14,0.085,
794,-0.12,0.07,
795,-0.125,0.075,
796,-0.11,0.09,
797,-0.135,0.08,
798,-0.145,0.065,
799,-0.15,0.075,
800,-0.14,0.05,
801,-0.125,0.045,
802,-0.12,0.065,
803,-0.13,0.07,
804,-0.135,0.085,
805,-0.14,0.09,
806,-0.125,0.085,
807,-0.125,0.08,
808,-0.1,0.06,
809,-0.085,0.055,
810,-0.085,0.04,
811,-0.11,0.03,
812,-0.105,0.035,
813,-0.115,0.015,
814,-0.11,0.02,
815,-0.085,0.03,
816,-0.055,0.02,
817,-0.045,0.03,
818,-0.045,0.02,
819,-0.03,0.005,
820,-0.02,-0.01,
821,-0.02,-0.015,
822,-0.025,-0.02,
823,-0.01,-0.04,
824,-0.01,-0.04,
825,-0.01,-0.055,
826,0.005,-0.065,
827,0.01,-0.06,
828,0.03,-0.07,
829,0.055,-0.06,
830,0.08,-0.075,
831,0.1,-0.09,
832,0.105,-0.11,
833,0.12,-0.12,
834,0.125,-0.13,
835,0.1,-0.13,
836,0.075,-0.125,
837,0.055,-0.11,
838,0.06,-0.105,
839,0.07,-0.105,
840,0.095,-0.12,
841,0.13,-0.125,
842,0.135,-0.125,
843,0.13,-0.12,
844,0.125,-0.12,
845,0.12,-0.115,
846,0.13,-0.11,
847,0.125,-0.115,
848,0.125,-0.115,
849,0.12,-0.095,
850,0.1,-0.065,
851,0.085,-0.05,
852,0.06,-0.01,
853,0.045,0.005,
854,0.025,0.035,
855,0.035,0.05,
856,0.03,0.065,
857,0.03,0.055,
858,0.015,0.055,
859,-0.005,0.06,
860,-0.025,0.06,
861,-0.03,0.075,
862,-0.03,0.09,
863,-0.06,0.13,
864,-0.1,0.17,
865,-0.125,0.18,
866,-0.12,0.185,
867,-0.105,0.18,
868,-0.09,0.16,
869,-0.09,0.16,
870,-0.1,0.15,
871,-0.13,0.15,
872,-0.145,0.18,
873,-0.155,0.17,
874,-0.155,0.175,
875,-0.16,0.18,
876,-0.145,0.175,
877,-0.135,0.18,
878,-0.135,0.185,
879,-0.13,0.185,
880,-0.135,0.18,
881,-0.145,0.185,
882,-0.155,0.175,
883,-0.17,0.165,
884,-0.185,0.16,
885,-0.195,0.17,
886,-0.185,0.165,
887,-0.185,0.17,
888,-0.17,0.17,
889,-0.165,0.185,
890,-0.155,0.195,
891,-0.145,0.18,
892,-0.125,0.185,
893,-0.13,0.165,
894,-0.145,0.16,
895,-0.16,0.15,
896,-0.165,0.165,
897,-0.17,0.165,
898,-0.16,0.175,
899,-0.16,0.18,
900,-0.15,0.185,
901,-0.135,0.175,
902,-0.115,0.17,
903,-0.13,0.16,
904,-0.135,0.17,
905,-0.18,0.175,
906,-0.19,0.175,
907,-0.2,0.175,
908,-0.205,0.175,
909,-0.195,0.165,
910,-0.195,0.155,
911,-0.17,0.15,
912,-0.17,0.12,
913,-0.165,0.115,
914,-0.135,0.095,
915,-0.135,0.095,
916,-0.12,0.085,
917,-0.115,0.1,
918,-0.11,0.085,
919,-0.12,0.08,
920,-0.145,0.08,
921,-0.165,0.095,
922,-0.195,0.11,
923,-0.21,0.135,
924,-0.23,0.155,
925,-0.215,0.17,
926,-0.21,0.18,
927,-0.18,0.17,
928,-0.16,0.165,
929,-0.13,0.135,
930,-0.1,0.115,
931,-0.09,0.11,
932,-0.11,0.105,
933,-0.11,0.115,
934,-0.125,0.125,
935,-0.13,0.12,
936,-0.12,0.125,
937,-0.115,0.125,
938,-0.115,0.12,
939,-0.115,0.13,
940,-0.135,0.13,
941,-0.15,0.14,
942,-0.17,0.13,
943,-0.205,0.14,
944,-0.21,0.13,
945,-0.215,0.125,
946,-0.225,0.13,
947,-0.225,0.15,
948,-0.225,0.155,
949,-0.21,0.17,
950,-0.195,0.165,
951,-0.18,0.17,
952,-0.155,0.165,
953,-0.16,0.165,
954,-0.155,0.18,
955,-0.16,0.175,
956,-0.18,0.165,
957,-0.18,0.18,
958,-0.165,0.18,
959,-0.155,0.185,
960,-0.145,0.18,
961,-0.135,0.185,
962,-0.12,0.2,
963,-0.12,0.195,
964,-0.125,0.185,
965,-0.13,0.18,
966,-0.14,0.17,
967,-0.13,0.155,
968,-0.125,0.15,
969,-0.12,0.145,
970,-0.125,0.155,
971,-0.14,0.17,
972,-0.15,0.205,
973,-0.16,0.205,
974,-0.135,0.2,
975,-0.125,0.185,
976,-0.115,0.175,
977,-0.145,0.18,
978,-0.18,0.19,
979,-0.185,0.19,
980,-0.185,0.175,
981,-0.17,0.18,
982,-0.155,0.175,
983,-0.155,0.19,
984,-0.14,0.2,
985,-0.125,0.205,
986,-0.135,0.195,
987,-0.13,0.19,
988,-0.135,0.19,
989,-0.15,0.2,
990,-0.15,0.195,
991,-0.145,0.205,
992,-0.125,0.22,
993,-0.095,0.22,
994,-0.05,0.23,
995,-0.015,0.24,
996,0.03,0.23,
997,0.115,0.205,
998,0.195,0.13,
999,0.395,-0.08,
1000,0.485,-0.18,A
1001,0.55,-0.27,
1002,0.54,-0.34,
1003,0.44,-0.37,
1004,0.235,-0.36,
1005,-0.03,-0.315,
1006,-0.29,-0.19,
1007,-0.465,-0.045,
1008,-0.555,0.14,
1009,-0.58,0.28,
1010,-0.545,0.405,
1011,-0.495,0.48,
1012,-0.44,0.51,
1013,-0.39,0.495,
1014,-0.35,0.49,
1015,-0.33,0.46,
1016,-0.33,0.47,
1017,-0.36,0.485,
1018,-0.41,0.53,
1019,-0.455,0.575,
1020,-0.47,0.615,
1021,-0.465,0.645,
1022,-0.43,0.64,
1023,-0.39,0.65,
1024,-0.345,0.66,
1025,-0.32,0.665,
1026,-0.33,0.655,
1027,-0.34,0.665,
1028,-0.355,0.67,
1029,-0.37,0.65,
1030,-0.365,0.63,
1031,-0.335,0.595,
1032,-0.32,0.55,
1033,-0.285,0.49,
1034,-0.26,0.44,
1035,-0.26,0.385,
1036,-0.265,0.34,
1037,-0.27,0.295,
1038,-0.28,0.26,
1039,-0.28,0.215,
1040,-0.265,0.18,
1041,-0.23,0.155,
1042,-0.2,0.14,
1043,-0.17,0.12,
1044,-0.14,0.13,
1045,-0.125,0.135,
1046,-0.115,0.125,
1047,-0.095,0.105,
1048,-0.07,0.085,
1049,-0.05,0.06,
1050,-0.07,0.055,
1051,-0.105,0.08,
1052,-0.165,0.11,
1053,-0.24,0.155,
1054,-0.29,0.175,
1055,-0.29,0.175,
1056,-0.26,0.165,
1057,-0.21,0.145,
1058,-0.16,0.12,
1059,-0.13,0.105,
1060,-0.12,0.085,
1061,-0.125,0.09,
1062,-0.115,0.085,
1063,-0.125,0.08,
1064,-0.125,0.09,
1065,-0.12,0.065,
1066,-0.11,0.07,
1067,-0.12,0.07,
1068,-0.13,0.1,
1069,-0.135,0.11,
1070,-0.14,0.105,
1071,-0.165,0.085,
1072,-0.145,0.08,
1073,-0.145,0.055,
1074,-0.115,0.04,
1075,-0.115,0.04,
1076,-0.11,0.035,
1077,-0.105,0.05,
1078,-0.105,0.05,
1079,-0.1,0.065,
1080,-0.095,0.07,
1081,-0.11,0.065,
1082,-0.125,0.06,
1083,-0.135,0.05,
1084,-0.125,0.035,
1085,-0.11,0.01,
1086,-0.095,0.02,
1087,-0.09,-0.005,
1088,-0.065,-0.01,
1089,-0.05,-0.02,
1090,-0.04,-0.035,
1091,-0.025,-0.035,
1092,-0.01,-0.04,
1093,0.025,-0.035,
1094,0.03,-0.06,
1095,0.05,-0.065,
1096,0.07,-0.075,
1097,0.065,-0.08,
1098,0.05,-0.08,
1099,0.055,-0.095,
1100,0.055,-0.1,
1101,0.05,-0.1,
1102,0.045,-0.075,
1103,0.05,-0.08,
1104,0.06,-0.075,
1105,0.075,-0.07,
1106,0.085,-0.08,
1107,0.085,-0.095,
1108,0.11,-0.115,
1109,0.085,-0.1,
1110,0.08,-0.105,
1111,0.07,-0.105,
1112,0.07,-0.095,
1113,0.085,-0.09,
1114,0.085,-0.065,
1115,0.085,-0.035,
1116,0.07,-0.015,
1117,0.07,-0.005,
1118,0.045,0.0,
1119,0.02,0.02,
1120,0.01,0.015,
1121,0.0,0.01,
1122,-0.005,0.03,
1123,-0.005,0.045,
1124,-0.045,0.055,
1125,-0.08,0.075,
1126,-0.1,0.1,
1127,-0.11,0.12,
1128,-0.115,0.135,
1129,-0.08,0.14,
1130,-0.065,0.13,
1131,-0.05,0.13,
1132,-0.04,0.135,
1133,-0.06,0.14,
1134,-0.09,0.155,
1135,-0.15,0.175,
1136,-0.195,0.195,
1137,-0.215,0.21,
1138,-0.225,0.205,
1139,-0.215,0.205,
1140,-0.19,0.195,
1141,-0.15,0.17,
1142,-0.13,0.16,
1143,-0.12,0.155,
1144,-0.125,0.155,
1145,-0.14,0.16,
1146,-0.15,0.145,
1147,-0.17,0.165,
1148,-0.185,0.175,
1149,-0.19,0.16,
1150,-0.18,0.18,
1151,-0.19,0.185,
1152,-0.195,0.2,
1153,-0.195,0.215,
1154,-0.21,0.215,
1155,-0.205,0.2,
1156,-0.19,0.195,
1157,-0.17,0.16,
1158,-0.16,0.155,
1159,-0.155,0.145,
1160,-0.15,0.14,
1161,-0.17,0.155,
1162,-0.195,0.17,
1163,-0.2,0.2,
1164,-0.22,0.21,
1165,-0.205,0.215,
1166,-0.19,0.205,
1167,-0.16,0.175,
1168,-0.125,0.155,
1169,-0.1,0.145,
1170,-0.085,0.14,
1171,-0.095,0.15,
1172,-0.125,0.165,
1173,-0.155,0.185,
1174,-0.165,0.185,
1175,-0.165,0.18,
1176,-0.175,0.205,
1177,-0.15,0.185,
1178,-0.14,0.175,
1179,-0.13,0.165,
1180,-0.105,0.15,
1181,-0.12,0.15,
1182,-0.12,0.155,
1183,-0.145,0.16,
1184,-0.16,0.165,
1185,-0.185,0.18,
1186,-0.2,0.18,
1187,-0.185,0.195,
1188,-0.19,0.2,
1189,-0.19,0.2,
1190,-0.18,0.19,
1191,-0.16,0.18,
1192,-0.135,0.155,
1193,-0.14,0.155,
1194,-0.13,0.145,
1195,-0.145,0.155,
1196,-0.17,0.165,
1197,-0.21,0.17,
1198,-0.22,0.18,
1199,-0.19,0.195,
1200,-0.175,0.185,
1201,-0.155,0.175,
1202,-0.145,0.165,
1203,-0.155,0.18,
1204,-0.165,0.17,
1205,-0.16,0.175,
1206,-0.17,0.16,
1207,-0.175,0.165,
1208,-0.165,0.145,
1209,-0.15,0.145,
1210,-0.145,0.155,
1211,-0.155,0.16,
1212,-0.17,0.175,
1213,-0.2,0.2,
1214,-0.22,0.2,
1215,-0.25,0.205,
1216,-0.25,0.205,
1217,-0.26,0.18,
1218,-0.25,0.175,
1219,-0.23,0.165,
1220,-0.205,0.15,
1221,-0.18,0.15,
1222,-0.155,0.15,
1223,-0.125,0.13,
1224,-0.1,0.135,
1225,-0.095,0.14,
1226,-0.11,0.155,
1227,-0.165,0.175,
1228,-0.215,0.185,
1229,-0.25,0.195,
1230,-0.27,0.195,
1231,-0.275,0.18,
1232,-0.25,0.19,
1233,-0.235,0.17,
1234,-0.205,0.17,
1235,-0.19,0.16,
1236,-0.185,0.16,
1237,-0.185,0.175,
1238,-0.185,0.17,
1239,-0.195,0.17,
1240,-0.205,0.165,
1241,-0.2,0.15,
1242,-0.185,0.135,
1243,-0.18,0.125,
1244,-0.155,0.115,
1245,-0.105,0.095,
1246,-0.045,0.075,
1247,-0.005,0.09,
1248,-0.045,0.125,
1249,-0.15,0.185,
1250,-0.265,0.24,
1251,-0.375,0.275,
1252,-0.41,0.25,
1253,-0.375,0.21,
1254,-0.32,0.185,
1255,-0.25,0.15,
1256,-0.205,0.15,
1257,-0.17,0.145,
1258,-0.17,0.15,
1259,-0.165,0.155,
1260,-0.17,0.17,
1261,-0.16,0.165,
1262,-0.165,0.16,
1263,-0.14,0.14,
1264,-0.12,0.12,
1265,-0.09,0.105,
1266,-0.095,0.085,
1267,-0.095,0.095,
1268,-0.125,0.115,
1269,-0.17,0.15,
1270,-0.235,0.185,
1271,-0.31,0.225,
1272,-0.34,0.25,
1273,-0.34,0.25,
1274,-0.305,0.22,
1275,-0.255,0.205,
1276,-0.205,0.175,
1277,-0.165,0.155,
1278,-0.145,0.14,
1279,-0.14,0.145,
1280,-0.15,0.14,
1281,-0.165,0.14,
1282,-0.165,0.16,
1283,-0.16,0.155,
1284,-0.165,0.175,
1285,-0.165,0.185,
1286,-0.17,0.185,
1287,-0.195,0.185,
1288,-0.21,0.18,
1289,-0.22,0.165,
1290,-0.22,0.155,
1291,-0.21,0.155,
1292,-0.2,0.14,
1293,-0.195,0.145,
1294,-0.18,0.155,
1295,-0.175,0.155,
1296,-0.17,0.165,
1297,-0.16,0.165,
1298,-0.16,0.17,
1299,-0.17,0.17,
1300,-0.175,0.165,
1301,-0.19,0.165,
1302,-0.2,0.15,
1303,-0.21,0.145,
1304,-0.215,0.14,
1305,-0.215,0.145,
1306,-0.205,0.16,
1307,-0.2,0.18,
1308,-0.205,0.195,
1309,-0.205,0.205,
1310,-0.21,0.22,
1311,-0.215,0.205,
1312,-0.21,0.2,
1313,-0.2,0.2,
1314,-0.19,0.18,
1315,-0.18,0.165,
1316,-0.16,0.145,
1317,-0.15,0.15,
1318,-0.135,0.145,
1319,-0.14,0.165,
1320,-0.165,0.18,
1321,-0.2,0.2,
1322,-0.25,0.21,
1323,-0.265,0.215,
1324,-0.28,0.21,
1325,-0.265,0.195,
1326,-0.245,0.165,
1327,-0.23,0.165,
1328,-0.2,0.15,
1329,-0.195,0.15,
1330,-0.195,0.16,
1331,-0.195,0.17,
1332,-0.195,0.175,
1333,-0.185,0.185,
1334,-0.175,0.185,
1335,-0.17,0.185,
1336,-0.155,0.175,
1337,-0.155,0.155,
1338,-0.155,0.165,
1339,-0.185,0.16,
1340,-0.2,0.16,
1341,-0.2,0.16,
1342,-0.195,0.17,
1343,-0.17,0.175,
1344,-0.145,0.185,
1345,-0.115,0.155,
1346,-0.12,0.155,
1347,-0.13,0.165,
1348,-0.145,0.155,
1349,-0.16,0.16,
1350,-0.18,0.175,
1351,-0.225,0.185,
1352,-0.27,0.2,
1353,-0.295,0.22,
1354,-0.29,0.225,
1355,-0.285,0.22,
1356,-0.23,0.22,
1357,-0.195,0.21,
1358,-0.175,0.2,
1359,-0.17,0.21,
1360,-0.175,0.185,
1361,-0.2,0.195,
1362,-0.215,0.185,
1363,-0.245,0.19,
1364,-0.24,0.175,
1365,-0.21,0.175,
1366,-0.19,0.175,
1367,-0.155,0.17,
1368,-0.13,0.155,
1369,-0.12,0.175,
1370,-0.135,0.17,
1371,-0.16,0.175,
1372,-0.195,0.19,
1373,-0.215,0.18,
1374,-0.24,0.16,
1375,-0.24,0.14,
1376,-0.225,0.15,
1377,-0.205,0.14,
1378,-0.19,0.145,
1379,-0.2,0.18,
1380,-0.21,0.175,
1381,-0.2,0.18,
1382,-0.21,0.175,
1383,-0.22,0.17,
1384,-0.23,0.16,
1385,-0.235,0.155,
1386,-0.235,0.16,
1387,-0.245,0.145,
1388,-0.21,0.13,
1389,-0.19,0.12,
1390,-0.165,0.125,
1391,-0.15,0.125,
1392,-0.15,0.145,
1393,-0.16,0.15,
1394,-0.17,0.145,
1395,-0.175,0.16,
1396,-0.19,0.16,
1397,-0.215,0.17,
1398,-0.245,0.16,
1399,-0.255,0.15,
1400,-0.26,0.14,
1401,-0.255,0.14,
1402,-0.24,0.14,
1403,-0.215,0.15,
1404,-0.195,0.14,
1405,-0.185,0.135,
1406,-0.165,0.145,
1407,-0.175,0.13,
1408,-0.205,0.155,
1409,-0.26,0.16,
1410,-0.285,0.155,
1411,-0.3,0.165,
1412,-0.31,0.15,
1413,-0.305,0.15,
1414,-0.265,0.135,
1415,-0.235,0.13,
1416,-0.195,0.13,
1417,-0.18,0.12,
1418,-0.18,0.125,
1419,-0.21,0.125,
1420,-0.24,0.12,
1421,-0.265,0.115,
1422,-0.28,0.11,
1423,-0.265,0.1,
1424,-0.255,0.09,
1425,-0.225,0.095,
1426,-0.215,0.105,
1427,-0.195,0.105,
1428,-0.19,0.115,
1429,-0.175,0.11,
1430,-0.195,0.12,
1431,-0.21,0.13,
1432,-0.215,0.12,
1433,-0.235,0.12,
1434,-0.23,0.11,
1435,-0.235,0.105,
1436,-0.24,0.105,
1437,-0.25,0.115,
1438,-0.26,0.115,
1439,-0.255,0.135,
1440,-0.255,0.135,
1441,-0.245,0.145,
1442,-0.245,0.13,
1443,-0.25,0.13,
1444,-0.24,0.105,
1445,-0.225,0.1,
1446,-0.215,0.085,
1447,-0.215,0.09,
1448,-0.22,0.095,
1449,-0.225,0.11,
1450,-0.235,0.12,
1451,-0.24,0.12,
1452,-0.235,0.12,
1453,-0.22,0.115,
1454,-0.21,0.115,
1455,-0.22,0.11,
1456,-0.21,0.095,
1457,-0.225,0.09,
1458,-0.225,0.1,
1459,-0.255,0.1,
1460,-0.26,0.105,
1461,-0.25,0.11,
1462,-0.24,0.1,
1463,-0.2,0.1,
1464,-0.175,0.105,
1465,-0.16,0.115,
1466,-0.185,0.12,
1467,-0.22,0.13,
1468,-0.235,0.125,
1469,-0.255,0.135,
1470,-0.285,0.125,
1471,-0.305,0.13,
1472,-0.295,0.13,
1473,-0.27,0.11,
1474,-0.25,0.11,
1475,-0.22,0.12,
1476,-0.21,0.12,
1477,-0.2,0.13,
1478,-0.22,0.13,
1479,-0.225,0.13,
1480,-0.23,0.125,
1481,-0.22,0.11,
1482,-0.22,0.1,
1483,-0.23,0.1,
1484,-0.245,0.12,
1485,-0.24,0.105,
1486,-0.23,0.11,
1487,-0.225,0.12,
1488,-0.21,0.135,
1489,-0.215,0.135,
1490,-0.24,0.15,
1491,-0.255,0.155,
1492,-0.26,0.14,
1493,-0.26,0.125,
1494,-0.25,0.115,
1495,-0.245,0.115,
1496,-0.25,0.13,
1497,-0.265,0.15,
1498,-0.285,0.15,
1499,-0.27,0.145,
1500,-0.25,0.15,
1501,-0.22,0.14,
1502,-0.195,0.135,
1503,-0.185,0.12,
1504,-0.18,0.105,
1505,-0.205,0.115,
1506,-0.21,0.115,
1507,-0.225,0.115,
1508,-0.24,0.125,
1509,-0.25,0.13,
1510,-0.26,0.13,
1511,-0.25,0.125,
1512,-0.23,0.14,
1513,-0.205,0.14,
1514,-0.19,0.135,
1515,-0.2,0.15,
1516,-0.2,0.15,
1517,-0.21,0.15,
1518,-0.24,0.135,
1519,-0.255,0.135,
1520,-0.26,0.13,
1521,-0.245,0.13,
1522,-0.225,0.135,
1523,-0.22,0.135,
1524,-0.21,0.15,
1525,-0.205,0.15,
1526,-0.205,0.15,
1527,-0.21,0.125,
1528,-0.215,0.13,
1529,-0.245,0.135,
1530,-0.265,0.16,
1531,-0.28,0.14,
1532,-0.265,0.135,
1533,-0.245,0.14,
1534,-0.225,0.125,
1535,-0.205,0.135,
1536,-0.215,0.15,
1537,-0.23,0.17,
1538,-0.24,0.17,
1539,-0.235,0.165,
1540,-0.2,0.14,
1541,-0.185,0.115,
1542,-0.17,0.115,
1543,-0.175,0.11,
1544,-0.205,0.115,
1545,-0.235,0.12,
1546,-0.27,0.14,
1547,-0.27,0.16,
1548,-0.26,0.17,
1549,-0.255,0.17,
1550,-0.245,0.175,
1551,-0.225,0.155,
1552,-0.2,0.145,
1553,-0.19,0.14,
1554,-0.18,0.105,
1555,-0.19,0.105,
1556,-0.2,0.11,
1557,-0.205,0.12,
1558,-0.205,0.145,
1559,-0.205,0.14,
1560,-0.195,0.145,
1561,-0.19,0.14,
1562,-0.19,0.13,
1563,-0.205,0.13,
1564,-0.21,0.14,
1565,-0.225,0.135,
1566,-0.24,0.145,
1567,-0.245,0.135,
1568,-0.245,0.14,
1569,-0.225,0.14,
1570,-0.22,0.13,
1571,-0.19,0.145,
1572,-0.175,0.15,
1573,-0.17,0.16,
1574,-0.17,0.165,
1575,-0.19,0.165,
1576,-0.205,0.15,
1577,-0.235,0.145,
1578,-0.235,0.16,
1579,-0.235,0.155,
1580,-0.215,0.16,
1581,-0.195,0.165,
1582,-0.18,0.165,
1583,-0.155,0.175,
1584,-0.135,0.175,
1585,-0.135,0.17,
1586,-0.13,0.185,
1587,-0.14,0.195,
1588,-0.165,0.19,
1589,-0.17,0.175,
1590,-0.17,0.145,
1591,-0.165,0.125,
1592,-0.145,0.11,
1593,-0.135,0.09,
1594,-0.105,0.09,
1595,-0.1,0.085,
1596,-0.1,0.105,
1597,-0.13,0.105,
1598,-0.16,0.12,
1599,-0.2,0.125,
1600,-0.225,0.12,
1601,-0.245,0.12,
1602,-0.25,0.11,
1603,-0.24,0.11,
1604,-0.22,0.115,
1605,-0.185,0.12,
1606,-0.175,0.11,
1607,-0.145,0.105,
1608,-0.12,0.095,
1609,-0.105,0.11,
1610,-0.11,0.105,
1611,-0.135,0.125,
1612,-0.175,0.15,
1613,-0.23,0.17,
1614,-0.28,0.18,
1615,-0.325,0.18,
1616,-0.345,0.17,
1617,-0.345,0.175,
1618,-0.325,0.165,
1619,-0.3,0.15,
1620,-0.27,0.16,
1621,-0.24,0.155,
1622,-0.225,0.145,
1623,-0.205,0.135,
1624,-0.205,0.13,
1625,-0.2,0.13,
1626,-0.205,0.125,
1627,-0.22,0.13,
1628,-0.24,0.13,
1629,-0.265,0.155,
1630,-0.285,0.175,
1631,-0.285,0.185,
1632,-0.285,0.19,
1633,-0.28,0.19,
1634,-0.25,0.17,
1635,-0.235,0.165,
1636,-0.235,0.155,
1637,-0.22,0.13,
1638,-0.205,0.12,
1639,-0.16,0.085,
1640,-0.14,0.095,
1641,-0.13,0.11,
1642,-0.17,0.135,
1643,-0.225,0.175,
1644,-0.28,0.21,
1645,-0.32,0.22,
1646,-0.32,0.21,
1647,-0.32,0.205,
1648,-0.275,0.18,
1649,-0.24,0.175,
1650,-0.2,0.185,
1651,-0.16,0.185,
1652,-0.145,0.195,
1653,-0.095,0.185,
1654,-0.02,0.155,
1655,0.08,0.095,
1656,0.21,0.03,
1657,0.34,-0.05,
1658,0.44,-0.13,
1659,0.525,-0.22,R
1660,0.555,-0.27,
1661,0.505,-0.33,
1662,0.355,-0.355,
1663,0.095,-0.345,
1664,-0.19,-0.275,
1665,-0.42,-0.175,
1666,-0.575,-0.03,
1667,-0.625,0.115,
1668,-0.62,0.245,
1669,-0.585,0.36,
1670,-0.54,0.42,
1671,-0.505,0.45,
1672,-0.485,0.455,
1673,-0.475,0.465,
1674,-0.505,0.48,
1675,-0.52,0.48,
1676,-0.545,0.485,
1677,-0.54,0.51,
1678,-0.525,0.54,
1679,-0.5,0.575,
1680,-0.46,0.59,
1681,-0.42,0.635,
1682,-0.395,0.64,
1683,-0.385,0.655,
1684,-0.365,0.66,
1685,-0.375,0.65,
1686,-0.395,0.645,
1687,-0.44,0.64,
1688,-0.48,0.63,
1689,-0.505,0.6,
1690,-0.51,0.575,
1691,-0.485,0.53,
1692,-0.445,0.475,
1693,-0.395,0.4,
1694,-0.34,0.33,
1695,-0.3,0.26,
1696,-0.25,0.19,
1697,-0.215,0.145,
1698,-0.195,0.105,
1699,-0.205,0.105,
1700,-0.215,0.115,
1701,-0.25,0.125,
1702,-0.28,0.15,
1703,-0.295,0.16,
1704,-0.29,0.16,
1705,-0.265,0.15,
1706,-0.23,0.13,
1707,-0.195,0.105,
1708,-0.185,0.105,
1709,-0.185,0.095,
1710,-0.21,0.095,
1711,-0.235,0.1,
1712,-0.26,0.11,
1713,-0.28,0.12,
1714,-0.3,0.15,
1715,-0.32,0.155,
1716,-0.315,0.165,
1717,-0.285,0.17,
1718,-0.26,0.14,
1719,-0.24,0.12,
1720,-0.225,0.09,
1721,-0.205,0.08,
1722,-0.19,0.065,
1723,-0.185,0.065,
1724,-0.195,0.07,
1725,-0.215,0.095,
1726,-0.245,0.115,
1727,-0.245,0.125,
1728,-0.255,0.125,
1729,-0.235,0.12,
1730,-0.195,0.115,
1731,-0.175,0.095,
1732,-0.15,0.08,
1733,-0.125,0.07,
1734,-0.135,0.045,
1735,-0.13,0.045,
1736,-0.145,0.06,
1737,-0.175,0.07,
1738,-0.19,0.085,
1739,-0.185,0.08,
1740,-0.185,0.1,
1741,-0.175,0.095,
1742,-0.16,0.08,
1743,-0.19,0.07,
1744,-0.195,0.055,
1745,-0.18,0.04,
1746,-0.165,0.01,
1747,-0.13,0.005,
1748,-0.105,-0.005,
1749,-0.095,0.0,
1750,-0.1,0.01,
1751,-0.1,0.0,
1752,-0.105,0.005,
1753,-0.09,0.005,
1754,-0.1,0.005,
1755,-0.105,0.005,
1756,-0.105,-0.01,
1757,-0.1,-0.025,
1758,-0.075,-0.04,
1759,-0.05,-0.06,
1760,-0.035,-0.065,
1761,-0.015,-0.07,
1762,0.005,-0.075,
1763,0.025,-0.095,
1764,0.02,-0.08,
1765,0.03,-0.08,
1766,0.03,-0.08,
1767,0.01,-0.075,
1768,-0.005,-0.07,
1769,-0.02,-0.08,
1770,-0.025,-0.085,
1771,-0.03,-0.07,
1772,-0.02,-0.085,
1773,0.0,-0.085,
1774,0.035,-0.095,
1775,0.07,-0.1,
1776,0.085,-0.075,
1777,0.075,-0.065,
1778,0.04,-0.035,
1779,-0.02,-0.01,
1780,-0.065,-0.005,
1781,-0.085,0.015,
1782,-0.085,0.005,
1783,-0.085,0.005,
1784,-0.07,0.005,
1785,-0.04,0.01,
1786,-0.03,0.045,
1787,-0.03,0.055,
1788,-0.04,0.065,
1789,-0.045,0.07,
1790,-0.03,0.075,
1791,-0.03,0.075,
1792,-0.045,0.08,
1793,-0.06,0.1,
1794,-0.09,0.1,
1795,-0.145,0.125,
1796,-0.165,0.145,
1797,-0.19,0.15,
1798,-0.185,0.16,
1799,-0.18,0.165,
1800,-0.175,0.18,
1801,-0.18,0.18,
1802,-0.185,0.175,
1803,-0.19,0.16,
1804,-0.18,0.15,
1805,-0.165,0.135,
1806,-0.16,0.135,
1807,-0.18,0.14,
1808,-0.21,0.155,
1809,-0.255,0.165,
1810,-0.26,0.17,
1811,-0.265,0.16,
1812,-0.255,0.14,
1813,-0.24,0.135,
1814,-0.245,0.125,
1815,-0.27,0.13,
1816,-0.275,0.125,
1817,-0.275,0.115,
1818,-0.25,0.125,
1819,-0.245,0.12,
1820,-0.25,0.125,
1821,-0.245,0.14,
1822,-0.245,0.15,
1823,-0.23,0.145,
1824,-0.22,0.145,
1825,-0.195,0.14,
1826,-0.17,0.135,
1827,-0.16,0.16,
1828,-0.15,0.15,
1829,-0.165,0.145,
1830,-0.175,0.13,
1831,-0.175,0.125,
1832,-0.175,0.135,
1833,-0.2,0.135,
1834,-0.215,0.145,
1835,-0.215,0.14,
1836,-0.205,0.16,
1837,-0.2,0.16,
1838,-0.2,0.15,
1839,-0.185,0.14,
1840,-0.175,0.125,
1841,-0.175,0.125,
1842,-0.16,0.11,
1843,-0.16,0.115,
1844,-0.155,0.125,
1845,-0.185,0.16,
1846,-0.215,0.175,
1847,-0.225,0.18,
1848,-0.215,0.18,
1849,-0.18,0.18,
1850,-0.155,0.165,
1851,-0.14,0.165,
1852,-0.135,0.175,
1853,-0.135,0.165,
1854,-0.145,0.17,
1855,-0.16,0.17,
1856,-0.18,0.18,
1857,-0.175,0.18,
1858,-0.18,0.195,
1859,-0.17,0.185,
1860,-0.17,0.195,
1861,-0.165,0.195,
1862,-0.145,0.205,
1863,-0.145,0.19,
1864,-0.17,0.195,
1865,-0.21,0.205,
1866,-0.22,0.175,
1867,-0.215,0.175,
1868,-0.205,0.185,
1869,-0.19,0.175,
1870,-0.175,0.19,
1871,-0.185,0.21,
1872,-0.195,0.215,
1873,-0.21,0.225,
1874,-0.215,0.215,
1875,-0.2,0.2,
1876,-0.185,0.2,
1877,-0.17,0.18,
1878,-0.165,0.16,
1879,-0.17,0.185,
1880,-0.19,0.19,
1881,-0.215,0.195,
1882,-0.235,0.21,
1883,-0.23,0.205,
1884,-0.21,0.205,
1885,-0.185,0.21,
1886,-0.165,0.2,
1887,-0.175,0.195,
1888,-0.18,0.19,
1889,-0.185,0.175,
1890,-0.2,0.165,
1891,-0.2,0.18,
1892,-0.2,0.195,
1893,-0.19,0.215,
1894,-0.185,0.24,
1895,-0.18,0.25,
1896,-0.16,0.275,
1897,-0.115,0.255,
1898,-0.04,0.215,
1899,0.06,0.135,
1900,0.18,0.03,
1901,0.315,-0.08,
1902,0.44,-0.18,
1903,0.53,-0.275,A
1904,0.56,-0.34,
1905,0.515,-0.37,
1906,0.33,-0.355,
1907,0.065,-0.295,
1908,-0.205,-0.17,
1909,-0.405,-0.01,
1910,-0.525,0.145,
1911,-0.57,0.315,
1912,-0.555,0.44,
1913,-0.535,0.505,
1914,-0.505,0.53,
1915,-0.48,0.535,
1916,-0.45,0.54,
1917,-0.445,0.53,
1918,-0.435,0.535,
1919,-0.455,0.555,
1920,-0.49,0.6,
1921,-0.495,0.64,
1922,-0.49,0.655,
1923,-0.455,0.685,
1924,-0.42,0.685,
1925,-0.39,0.71,
1926,-0.375,0.71,
1927,-0.375,0.715,
1928,-0.405,0.71,
1929,-0.42,0.695,
1930,-0.42,0.665,
1931,-0.405,0.63,
1932,-0.405,0.57,
1933,-0.39,0.52,
1934,-0.38,0.435,
1935,-0.35,0.355,
1936,-0.325,0.295,
1937,-0.28,0.21,
1938,-0.23,0.155,
1939,-0.18,0.11,
1940,-0.135,0.09,
1941,-0.145,0.095,
1942,-0.165,0.11,
1943,-0.185,0.135,
1944,-0.2,0.145,
1945,-0.21,0.135,
1946,-0.195,0.14,
1947,-0.205,0.13,
1948,-0.205,0.115,
1949,-0.21,0.105,
1950,-0.22,0.12,
1951,-0.245,0.11,
1952,-0.235,0.115,
1953,-0.215,0.105,
1954,-0.19,0.095,
1955,-0.18,0.105,
1956,-0.175,0.105,
1957,-0.16,0.1,
1958,-0.175,0.125,
1959,-0.19,0.125,
1960,-0.2,0.12,
1961,-0.205,0.105,
1962,-0.205,0.1,
1963,-0.205,0.085,
1964,-0.2,0.075,
1965,-0.185,0.07,
1966,-0.16,0.075,
1967,-0.135,0.09,
1968,-0.12,0.09,
1969,-0.11,0.09,
1970,-0.14,0.095,
1971,-0.14,0.09,
1972,-0.155,0.09,
1973,-0.16,0.08,
1974,-0.175,0.07,
1975,-0.175,0.065,
1976,-0.185,0.075,
1977,-0.2,0.065,
1978,-0.185,0.07,
1979,-0.15,0.055,
1980,-0.125,0.045,
1981,-0.09,0.035,
1982,-0.085,0.02,
1983,-0.08,0.005,
1984,-0.095,0.01,
1985,-0.12,0.0,
1986,-0.125,0.0,
1987,-0.12,-0.025,
1988,-0.1,-0.03,
1989,-0.085,-0.04,
1990,-0.05,-0.035,
1991,-0.015,-0.065,
1992,0.02,-0.085,
1993,0.05,-0.07,
1994,0.065,-0.085,
1995,0.045,-0.085,
1996,0.015,-0.085,
1997,-0.02,-0.1,
1998,-0.05,-0.1,
1999,-0.045,-0.1,
2000,-0.04,-0.12,
2001,0.0,-0.12,
2002,0.015,-0.115,
2003,0.045,-0.105,
2004,0.045,-0.11,
2005,0.055,-0.095,
2006,0.055,-0.1,
2007,0.06,-0.115,
2008,0.055,-0.105,
2009,0.045,-0.115,
2010,0.04,-0.11,
2011,0.045,-0.1,
2012,0.05,-0.085,
2013,0.045,-0.075,
2014,0.02,-0.04,
2015,-0.005,-0.03,
2016,-0.02,0.005,
2017,-0.035,0.02,
2018,-0.045,0.03,
2019,-0.07,0.06,
2020,-0.065,0.06,
2021,-0.085,0.075,
2022,-0.105,0.095,
2023,-0.135,0.1,
2024,-0.15,0.12,
2025,-0.15,0.125,
2026,-0.145,0.145,
2027,-0.135,0.15,
2028,-0.135,0.155,
2029,-0.135,0.165,
2030,-0.13,0.16,
2031,-0.145,0.16,
2032,-0.175,0.17,
2033,-0.215,0.165,
2034,-0.255,0.175,
2035,-0.27,0.175,
2036,-0.3,0.165,
2037,-0.295,0.165,
2038,-0.28,0.175,
2039,-0.255,0.17,
2040,-0.24,0.19,
2041,-0.21,0.19,
2042,-0.185,0.18,
2043,-0.175,0.155,
2044,-0.14,0.13,
2045,-0.12,0.105,
2046,-0.085,0.09,
2047,-0.105,0.1,
2048,-0.15,0.16,
2049,-0.26,0.215,
2050,-0.365,0.255,
2051,-0.43,0.275,
2052,-0.42,0.265,
2053,-0.375,0.235,
2054,-0.305,0.2,
2055,-0.23,0.175,
2056,-0.19,0.155,
2057,-0.175,0.15,
2058,-0.18,0.145,
2059,-0.2,0.16,
2060,-0.235,0.18,
2061,-0.28,0.195,
2062,-0.275,0.2,
2063,-0.28,0.19,
2064,-0.26,0.175,
2065,-0.24,0.17,
2066,-0.235,0.16,
2067,-0.24,0.15,
2068,-0.25,0.155,
2069,-0.265,0.125,
2070,-0.28,0.105,
2071,-0.28,0.08,
2072,-0.265,0.09,
2073,-0.245,0.095,
2074,-0.24,0.12,
2075,-0.26,0.14,
2076,-0.27,0.165,
2077,-0.275,0.16,
2078,-0.265,0.135,
2079,-0.225,0.11,
2080,-0.195,0.115,
2081,-0.175,0.095,
2082,-0.195,0.115,
2083,-0.225,0.12,
2084,-0.265,0.16,
2085,-0.285,0.17,
2086,-0.285,0.17,
2087,-0.275,0.17,
2088,-0.235,0.18,
2089,-0.22,0.175,
2090,-0.21,0.155,
2091,-0.215,0.16,
2092,-0.21,0.14,
2093,-0.195,0.125,
2094,-0.19,0.11,
2095,-0.185,0.09,
2096,-0.17,0.09,
2097,-0.175,0.08,
2098,-0.195,0.1,
2099,-0.21,0.125,
2100,-0.22,0.14,
2101,-0.26,0.165,
2102,-0.285,0.175,
2103,-0.285,0.18,
2104,-0.27,0.165,
2105,-0.245,0.15,
2106,-0.225,0.15,
2107,-0.225,0.16,
2108,-0.23,0.165,
2109,-0.23,0.195,
2110,-0.215,0.2,
2111,-0.22,0.195,
2112,-0.215,0.205,
2113,-0.23,0.2,
2114,-0.245,0.21,
2115,-0.255,0.195,
2116,-0.255,0.195,
2117,-0.255,0.19,
2118,-0.24,0.175,
2119,-0.23,0.155,
2120,-0.235,0.165,
2121,-0.23,0.17,
2122,-0.22,0.19,
2123,-0.23,0.19,
2124,-0.245,0.215,
2125,-0.26,0.21,
2126,-0.27,0.215,
2127,-0.255,0.205,
2128,-0.255,0.195,
2129,-0.235,0.175,
2130,-0.22,0.17,
2131,-0.21,0.165,
2132,-0.21,0.17,
2133,-0.2,0.18,
2134,-0.22,0.18,
2135,-0.22,0.185,
2136,-0.225,0.2,
2137,-0.225,0.22,
2138,-0.25,0.23,
2139,-0.25,0.225,
2140,-0.265,0.2,
2141,-0.265,0.195,
2142,-0.255,0.18,
2143,-0.225,0.16,
2144,-0.205,0.16,
2145,-0.195,0.18,
2146,-0.19,0.2,
2147,-0.19,0.23,
2148,-0.19,0.255,
2149,-0.18,0.275,
2150,-0.165,0.28,
2151,-0.12,0.29,
2152,-0.08,0.24,
2153,-0.02,0.18,
2154,0.05,0.085,
2155,0.16,-0.035,
2156,0.25,-0.165,A
2157,0.355,-0.26,
2158,0.38,-0.35,
2159,0.335,-0.39,
2160,0.195,-0.385,
2161,-0.04,-0.33,
2162,-0.29,-0.24,
2163,-0.485,-0.085,
2164,-0.59,0.08,
2165,-0.615,0.265,
2166,-0.59,0.41,
2167,-0.54,0.51,
2168,-0.5,0.56,
2169,-0.465,0.57,
2170,-0.435,0.545,
2171,-0.415,0.535,
2172,-0.4,0.525,
2173,-0.39,0.53,
2174,-0.395,0.535,
2175,-0.415,0.59,
2176,-0.44,0.625,
2177,-0.48,0.655,
2178,-0.5,0.675,
2179,-0.505,0.7,
2180,-0.515,0.71,
2181,-0.515,0.73,
2182,-0.51,0.73,
2183,-0.49,0.73,
2184,-0.465,0.71,
2185,-0.415,0.675,
2186,-0.39,0.615,
2187,-0.37,0.555,
2188,-0.35,0.495,
2189,-0.34,0.425,
2190,-0.315,0.365,
2191,-0.315,0.29,
2192,-0.31,0.235,
2193,-0.285,0.195,
2194,-0.28,0.165,
2195,-0.26,0.145,
2196,-0.265,0.135,
2197,-0.265,0.13,
2198,-0.26,0.13,
2199,-0.25,0.13,
2200,-0.24,0.115,
2201,-0.235,0.115,
2202,-0.24,0.09,
2203,-0.225,0.08,
2204,-0.21,0.07,
2205,-0.185,0.065,
2206,-0.16,0.07,
2207,-0.155,0.07,
2208,-0.16,0.085,
2209,-0.165,0.1,
2210,-0.185,0.125,
2211,-0.235,0.125,
2212,-0.285,0.145,
2213,-0.335,0.13,
2214,-0.33,0.13,
2215,-0.31,0.095,
2216,-0.285,0.09,
2217,-0.24,0.085,
2218,-0.21,0.08,
2219,-0.185,0.08,
2220,-0.17,0.085,
2221,-0.175,0.09,
2222,-0.175,0.085,
2223,-0.18,0.085,
2224,-0.185,0.07,
2225,-0.205,0.085,
2226,-0.22,0.085,
2227,-0.235,0.075,
2228,-0.25,0.085,
2229,-0.23,0.075,
2230,-0.225,0.09,
2231,-0.2,0.08,
2232,-0.185,0.07,
2233,-0.175,0.065,
2234,-0.15,0.045,
2235,-0.115,0.02,
2236,-0.09,-0.005,
2237,-0.055,-0.02,
2238,-0.065,-0.015,
2239,-0.125,0.015,
2240,-0.185,0.03,
2241,-0.23,0.035,
2242,-0.25,0.05,
2243,-0.235,0.05,
2244,-0.2,0.025,
2245,-0.145,-0.005,
2246,-0.105,-0.025,
2247,-0.065,-0.04,
2248,-0.045,-0.065,
2249,-0.055,-0.08,
2250,-0.06,-0.1,
2251,-0.03,-0.135,
2252,-0.01,-0.14,
2253,0.02,-0.14,
2254,0.025,-0.135,
2255,0.035,-0.11,
2256,0.02,-0.105,
2257,-0.02,-0.085,
2258,-0.05,-0.075,
2259,-0.075,-0.07,
2260,-0.08,-0.085,
2261,-0.07,-0.105,
2262,-0.04,-0.13,
2263,-0.02,-0.15,
2264,0.015,-0.165,
2265,0.05,-0.165,
2266,0.075,-0.15,
2267,0.075,-0.13,
2268,0.04,-0.11,
2269,0.025,-0.08,
2270,0.01,-0.08,
2271,-0.01,-0.07,
2272,-0.015,-0.045,
2273,-0.035,-0.03,
2274,-0.065,-0.025,
2275,-0.105,-0.005,
2276,-0.135,0.03,
2277,-0.13,0.025,
2278,-0.13,0.045,
2279,-0.125,0.055,
2280,-0.105,0.075,
2281,-0.095,0.095,
2282,-0.1,0.095,
2283,-0.12,0.11,
2284,-0.12,0.105,
2285,-0.125,0.11,
2286,-0.115,0.085,
2287,-0.1,0.075,
2288,-0.09,0.075,
2289,-0.095,0.11,
2290,-0.135,0.145,
2291,-0.205,0.2,
2292,-0.28,0.215,
2293,-0.325,0.225,
2294,-0.33,0.21,
2295,-0.31,0.21,
2296,-0.28,0.175,
2297,-0.25,0.16,
2298,-0.225,0.15,
2299,-0.215,0.14,
2300,-0.215,0.145,
2301,-0.2,0.15,
2302,-0.215,0.145,
2303,-0.19,0.14,
2304,-0.16,0.12,
2305,-0.11,0.13,
2306,-0.095,0.135,
2307,-0.145,0.175,
2308,-0.215,0.205,
2309,-0.325,0.24,
2310,-0.395,0.225,
2311,-0.405,0.205,
2312,-0.375,0.185,
2313,-0.31,0.18,
2314,-0.255,0.175,
2315,-0.21,0.165,
2316,-0.19,0.165,
2317,-0.18,0.165,
2318,-0.165,0.16,
2319,-0.19,0.16,
2320,-0.205,0.155,
2321,-0.21,0.145,
2322,-0.25,0.165,
2323,-0.26,0.16,
2324,-0.28,0.16,
2325,-0.275,0.155,
2326,-0.265,0.17,
2327,-0.255,0.16,
2328,-0.225,0.155,
2329,-0.195,0.16,
2330,-0.19,0.17,
2331,-0.2,0.155,
2332,-0.22,0.17,
2333,-0.215,0.155,
2334,-0.22,0.15,
2335,-0.235,0.15,
2336,-0.23,0.15,
2337,-0.21,0.155,
2338,-0.2,0.16,
2339,-0.205,0.175,
2340,-0.215,0.175,
2341,-0.215,0.185,
2342,-0.22,0.19,
2343,-0.22,0.175,
2344,-0.21,0.165,
2345,-0.215,0.145,
2346,-0.22,0.145,
2347,-0.24,0.155,
2348,-0.25,0.16,
2349,-0.25,0.165,
2350,-0.25,0.17,
2351,-0.245,0.18,
2352,-0.235,0.18,
2353,-0.225,0.17,
2354,-0.21,0.165,
2355,-0.195,0.16,
2356,-0.195,0.145,
2357,-0.195,0.15,
2358,-0.21,0.155,
2359,-0.23,0.16,
2360,-0.245,0.14,
2361,-0.255,0.15,
2362,-0.255,0.165,
2363,-0.265,0.17,
2364,-0.25,0.185,
2365,-0.245,0.185,
2366,-0.25,0.175,
2367,-0.24,0.165,
2368,-0.23,0.15,
2369,-0.215,0.145,
2370,-0.215,0.13,
2371,-0.225,0.135,
2372,-0.235,0.14,
2373,-0.24,0.145,
2374,-0.25,0.16,
2375,-0.23,0.175,
2376,-0.245,0.18,
2377,-0.235,0.17,
2378,-0.25,0.165,
2379,-0.26,0.16,
2380,-0.265,0.155,
2381,-0.245,0.145,
2382,-0.235,0.135,
2383,-0.24,0.135,
2384,-0.25,0.145,
2385,-0.245,0.145,
2386,-0.265,0.16,
2387,-0.275,0.165,
2388,-0.255,0.175,
2389,-0.235,0.16,
2390,-0.22,0.165,
2391,-0.225,0.16,
2392,-0.23,0.16,
2393,-0.245,0.165,
2394,-0.25,0.145,
2395,-0.25,0.145,
2396,-0.265,0.15,
2397,-0.285,0.15,
2398,-0.3,0.17,
2399,-0.29,0.165,
2400,-0.28,0.17,
2401,-0.245,0.17,
2402,-0.24,0.17,
2403,-0.245,0.16,
2404,-0.24,0.145,
2405,-0.245,0.145,
2406,-0.24,0.13,
2407,-0.25,0.135,
2408,-0.26,0.145,
2409,-0.26,0.145,
2410,-0.26,0.155,
2411,-0.245,0.16,
2412,-0.245,0.165,
2413,-0.25,0.16,
2414,-0.24,0.155,
2415,-0.265,0.155,
2416,-0.26,0.15,
2417,-0.255,0.13,
2418,-0.25,0.12,
2419,-0.235,0.115,
2420,-0.225,0.13,
2421,-0.235,0.13,
2422,-0.25,0.145,
2423,-0.27,0.16,
2424,-0.275,0.16,
2425,-0.265,0.155,
2426,-0.23,0.15,
2427,-0.215,0.135,
2428,-0.205,0.14,
2429,-0.22,0.14,
2430,-0.235,0.14,
2431,-0.27,0.14,
2432,-0.27,0.135,
2433,-0.26,0.13,
2434,-0.255,0.135,
2435,-0.24,0.14,
2436,-0.245,0.17,
2437,-0.25,0.185,
2438,-0.26,0.165,
2439,-0.25,0.155,
2440,-0.255,0.165,
2441,-0.25,0.165,
2442,-0.235,0.155,
2443,-0.23,0.14,
2444,-0.245,0.145,
2445,-0.24,0.16,
2446,-0.255,0.17,
2447,-0.25,0.18,
2448,-0.245,0.19,
2449,-0.24,0.18,
2450,-0.225,0.165,
2451,-0.225,0.145,
2452,-0.2,0.145,
2453,-0.21,0.145,
2454,-0.205,0.13,
2455,-0.245,0.145,
2456,-0.27,0.16,
2457,-0.295,0.165,
2458,-0.3,0.18,
2459,-0.29,0.155,
2460,-0.255,0.175,
2461,-0.235,0.17,
2462,-0.22,0.17,
2463,-0.225,0.165,
2464,-0.22,0.16,
2465,-0.24,0.15,
2466,-0.24,0.15,
2467,-0.225,0.14,
2468,-0.235,0.145,
2469,-0.24,0.145,
2470,-0.255,0.16,
2471,-0.24,0.16,
2472,-0.255,0.165,
2473,-0.25,0.17,
2474,-0.245,0.165,
2475,-0.255,0.175,
2476,-0.285,0.18,
2477,-0.3,0.17,
2478,-0.3,0.165,
2479,-0.285,0.16,
2480,-0.275,0.165,
2481,-0.255,0.145,
2482,-0.24,0.155,
2483,-0.23,0.155,
2484,-0.23,0.155,
2485,-0.24,0.17,
2486,-0.25,0.17,
2487,-0.26,0.18,
2488,-0.25,0.175,
2489,-0.25,0.16,
2490,-0.245,0.14,
2491,-0.25,0.125,
2492,-0.25,0.13,
2493,-0.24,0.13,
2494,-0.24,0.145,
2495,-0.235,0.15,
2496,-0.245,0.17,
2497,-0.25,0.18,
2498,-0.25,0.175,
2499,-0.255,0.17,
2500,-0.25,0.15,
2501,-0.23,0.15,
2502,-0.215,0.12,
2503,-0.21,0.135,
2504,-0.23,0.145,
2505,-0.26,0.165,
2506,-0.275,0.165,
2507,-0.295,0.165,
2508,-0.285,0.185,
2509,-0.265,0.17,
2510,-0.255,0.165,
2511,-0.24,0.16,
2512,-0.23,0.15,
2513,-0.24,0.16,
2514,-0.25,0.145,
2515,-0.27,0.155,
2516,-0.285,0.16,
2517,-0.285,0.145,
2518,-0.28,0.155,
2519,-0.26,0.15,
2520,-0.24,0.16,
2521,-0.2,0.16,
2522,-0.19,0.14,
2523,-0.2,0.155,
2524,-0.22,0.155,
2525,-0.245,0.15,
2526,-0.27,0.13,
2527,-0.27,0.14,
2528,-0.265,0.15,
2529,-0.255,0.15,
2530,-0.255,0.17,
2531,-0.285,0.18,
2532,-0.28,0.19,
2533,-0.27,0.17,
2534,-0.25,0.17,
2535,-0.225,0.15,
2536,-0.21,0.13,
2537,-0.19,0.125,
2538,-0.19,0.125,
2539,-0.215,0.14,
2540,-0.26,0.145,
2541,-0.28,0.14,
2542,-0.29,0.15,
2543,-0.295,0.155,
2544,-0.295,0.175,
2545,-0.27,0.16,
2546,-0.255,0.165,
2547,-0.265,0.175,
2548,-0.265,0.17,
2549,-0.27,0.16,
2550,-0.295,0.15,~
2551,-0.29,0.14,
2552,-0.285,0.14,
2553,-0.275,0.125,
2554,-0.255,0.125,
2555,-0.215,0.13,
2556,-0.19,0.12,
2557,-0.16,0.12,
2558,-0.155,0.125,
2559,-0.175,0.125,
2560,-0.185,0.13,
2561,-0.22,0.135,
2562,-0.25,0.155,
2563,-0.285,0.165,
2564,-0.305,0.17,
2565,-0.31,0.175,
2566,-0.32,0.175,
2567,-0.305,0.17,
2568,-0.275,0.17,
2569,-0.26,0.165,
2570,-0.24,0.15,
2571,-0.24,0.145,
2572,-0.23,0.145,
2573,-0.245,0.135,
2574,-0.235,0.12,
2575,-0.22,0.11,
2576,-0.205,0.09,
2577,-0.18,0.105,
2578,-0.18,0.11,
2579,-0.165,0.145,
2580,-0.205,0.16,
2581,-0.235,0.18,
2582,-0.26,0.18,
2583,-0.28,0.175,
2584,-0.285,0.175,
2585,-0.295,0.15,
2586,-0.27,0.14,
2587,-0.27,0.13,
2588,-0.255,0.115,
2589,-0.24,0.105,
2590,-0.235,0.125,
2591,-0.205,0.14,
2592,-0.205,0.145,
2593,-0.205,0.16,
2594,-0.22,0.155,
2595,-0.225,0.155,
2596,-0.24,0.15,
2597,-0.25,0.14,
2598,-0.24,0.125,
2599,-0.245,0.11,
2600,-0.23,0.13,
2601,-0.225,0.125,
2602,-0.22,0.14,
2603,-0.23,0.145,
2604,-0.245,0.16,
2605,-0.255,0.155,
2606,-0.26,0.15,
2607,-0.245,0.16,
2608,-0.235,0.14,
2609,-0.225,0.13,
2610,-0.225,0.125,
2611,-0.225,0.13,
2612,-0.21,0.13,
2613,-0.225,0.13,
2614,-0.235,0.135,
2615,-0.235,0.155,
2616,-0.235,0.15,
2617,-0.24,0.17,
2618,-0.25,0.165,
2619,-0.24,0.15,
2620,-0.24,0.135,
2621,-0.22,0.13,
2622,-0.22,0.115,
2623,-0.26,0.125,
2624,-0.275,0.13,
2625,-0.295,0.14,
2626,-0.305,0.155,
2627,-0.31,0.16,
2628,-0.275,0.16,
2629,-0.245,0.145,
2630,-0.23,0.135,
2631,-0.2,0.125,
2632,-0.185,0.115,
2633,-0.19,0.12,
2634,-0.185,0.125,
2635,-0.185,0.115,
2636,-0.21,0.12,
2637,-0.2,0.115,
2638,-0.19,0.12,
2639,-0.195,0.135,
2640,-0.2,0.15,
2641,-0.215,0.175,
2642,-0.26,0.18,
2643,-0.285,0.195,
2644,-0.29,0.19,
2645,-0.29,0.165,
2646,-0.27,0.14,
2647,-0.255,0.14,
2648,-0.24,0.13,
2649,-0.235,0.14,
2650,-0.235,0.155,
2651,-0.245,0.16,
2652,-0.24,0.15,
2653,-0.225,0.155,
2654,-0.21,0.15,
2655,-0.22,0.15,
2656,-0.215,0.14,
2657,-0.215,0.125,
2658,-0.22,0.14,
2659,-0.22,0.14,
2660,-0.23,0.135,
2661,-0.235,0.135,
2662,-0.23,0.13,
2663,-0.215,0.14,
2664,-0.22,0.145,
2665,-0.2,0.155,
2666,-0.215,0.155,
2667,-0.22,0.155,
2668,-0.225,0.155,
2669,-0.245,0.135,
2670,-0.235,0.115,
2671,-0.215,0.105,
2672,-0.19,0.1,
2673,-0.185,0.1,
2674,-0.19,0.13,
2675,-0.22,0.155,
2676,-0.235,0.165,
2677,-0.255,0.17,
2678,-0.245,0.16,
2679,-0.235,0.155,
2680,-0.255,0.145,
2681,-0.255,0.14,
2682,-0.255,0.13,
2683,-0.25,0.12,
2684,-0.23,0.125,
2685,-0.22,0.115,
2686,-0.215,0.14,
2687,-0.205,0.145,
2688,-0.22,0.165,
2689,-0.24,0.175,
2690,-0.25,0.175,
2691,-0.265,0.165,
2692,-0.26,0.16,
2693,-0.225,0.13,
2694,-0.215,0.12,
2695,-0.21,0.105,
2696,-0.2,0.11,
2697,-0.21,0.13,
2698,-0.23,0.13,
2699,-0.24,0.16,
2700,-0.25,0.165,
2701,-0.255,0.17,
2702,-0.235,0.16,
2703,-0.225,0.14,
2704,-0.205,0.12,
2705,-0.205,0.13,
2706,-0.225,0.125,
2707,-0.22,0.12,
2708,-0.225,0.125,
2709,-0.215,0.12,
2710,-0.225,0.13,
2711,-0.22,0.125,
2712,-0.225,0.15,
2713,-0.23,0.155,
2714,-0.225,0.17,
2715,-0.245,0.16,
2716,-0.265,0.16,
2717,-0.27,0.13,
2718,-0.25,0.12,
2719,-0.235,0.135,
2720,-0.23,0.13,
2721,-0.225,0.125,
2722,-0.225,0.14,
2723,-0.235,0.15,
2724,-0.235,0.16,
2725,-0.245,0.16,
2726,-0.245,0.155,
2727,-0.25,0.145,
2728,-0.225,0.145,
2729,-0.215,0.12,
2730,-0.2,0.11,
2731,-0.2,0.115,
2732,-0.19,0.13,
2733,-0.22,0.12,
2734,-0.245,0.145,
2735,-0.255,0.14,
2736,-0.25,0.14,
2737,-0.23,0.145,
2738,-0.2,0.125,
2739,-0.175,0.115,
2740,-0.16,0.11,
2741,-0.17,0.12,
2742,-0.205,0.12,
2743,-0.24,0.14,
2744,-0.265,0.145,
2745,-0.27,0.165,
2746,-0.265,0.155,
2747,-0.24,0.155,
2748,-0.22,0.18,
2749,-0.2,0.17,
2750,-0.18,0.155,
2751,-0.16,0.16,
2752,-0.145,0.15,
2753,-0.155,0.14,
2754,-0.12,0.12,
2755,-0.105,0.11,
2756,-0.12,0.12,
2757,-0.145,0.15,
2758,-0.185,0.155,
2759,-0.205,0.17,
2760,-0.2,0.17,
2761,-0.2,0.16,
2762,-0.18,0.15,
2763,-0.165,0.135,
2764,-0.175,0.13,
2765,-0.17,0.115,
2766,-0.175,0.13,
2767,-0.17,0.105,
2768,-0.18,0.085,
2769,-0.195,0.1,
2770,-0.195,0.095,
2771,-0.19,0.11,
2772,-0.18,0.095,
2773,-0.18,0.11,
2774,-0.18,0.1,
2775,-0.175,0.105,
2776,-0.19,0.095,
2777,-0.2,0.085,
2778,-0.2,0.095,
2779,-0.205,0.105,
2780,-0.21,0.105,
2781,-0.21,0.105,
2782,-0.19,0.135,
2783,-0.2,0.14,
2784,-0.21,0.155,
2785,-0.205,0.16,
2786,-0.22,0.155,
2787,-0.24,0.155,
2788,-0.245,0.145,
2789,-0.26,0.14,
2790,-0.265,0.12,
2791,-0.28,0.13,
2792,-0.29,0.13,
2793,-0.27,0.13,
2794,-0.25,0.145,
2795,-0.24,0.155,
2796,-0.23,0.16,
2797,-0.23,0.165,
2798,-0.235,0.165,
2799,-0.245,0.16,
2800,-0.26,0.175,
2801,-0.26,0.165,
2802,-0.26,0.15,
2803,-0.245,0.135,
2804,-0.245,0.125,
2805,-0.215,0.135,
2806,-0.21,0.14,
2807,-0.21,0.155,
2808,-0.215,0.165,
2809,-0.23,0.17,
2810,-0.235,0.16,
2811,-0.23,0.16,
2812,-0.22,0.145,
2813,-0.21,0.135,
2814,-0.2,0.125,
2815,-0.22,0.135,
2816,-0.235,0.15,
2817,-0.255,0.16,
2818,-0.25,0.195,
2819,-0.24,0.21,
2820,-0.22,0.235,
2821,-0.195,0.255,
2822,-0.17,0.25,
2823,-0.16,0.24,
2824,-0.115,0.195,
2825,-0.075,0.085,
2826,-0.015,-0.015,
2827,0.075,-0.135,
2828,0.165,-0.265,
2829,0.26,-0.385,R
2830,0.29,-0.465,
2831,0.24,-0.505,
2832,0.09,-0.475,
2833,-0.115,-0.39,
2834,-0.31,-0.24,
2835,-0.455,-0.04,
2836,-0.525,0.155,
2837,-0.545,0.31,
2838,-0.535,0.425,
2839,-0.52,0.49,
2840,-0.485,0.505,
2841,-0.46,0.505,
2842,-0.44,0.505,
2843,-0.43,0.515,
2844,-0.445,0.55,
2845,-0.46,0.565,
2846,-0.475,0.6,
2847,-0.47,0.615,
2848,-0.455,0.64,
2849,-0.435,0.65,
2850,-0.43,0.685,
2851,-0.43,0.71,
2852,-0.45,0.715,
2853,-0.44,0.73,
2854,-0.44,0.735,
2855,-0.435,0.73,
2856,-0.425,0.71,
2857,-0.41,0.685,
2858,-0.415,0.635,
2859,-0.425,0.575,
2860,-0.415,0.51,
2861,-0.395,0.43,
2862,-0.38,0.35,
2863,-0.36,0.305,
2864,-0.33,0.25,
2865,-0.305,0.195,
2866,-0.28,0.155,
2867,-0.245,0.14,
2868,-0.22,0.13,
2869,-0.2,0.125,
2870,-0.205,0.13,
2871,-0.225,0.14,
2872,-0.24,0.135,
2873,-0.255,0.115,
2874,-0.245,0.09,
2875,-0.24,0.08,
2876,-0.225,0.075,
2877,-0.215,0.09,
2878,-0.225,0.095,
2879,-0.24,0.12,
2880,-0.245,0.13,
2881,-0.26,0.14,
2882,-0.28,0.125,
2883,-0.275,0.12,
2884,-0.275,0.12,
2885,-0.26,0.09,
2886,-0.25,0.085,
2887,-0.235,0.08,
2888,-0.225,0.07,
2889,-0.205,0.08,
2890,-0.2,0.08,
2891,-0.195,0.095,
2892,-0.195,0.105,
2893,-0.195,0.095,
2894,-0.195,0.095,
2895,-0.205,0.1,
2896,-0.22,0.09,
2897,-0.225,0.075,
2898,-0.215,0.055,
2899,-0.205,0.035,
2900,-0.18,0.02,
2901,-0.165,0.03,
2902,-0.175,0.05,
2903,-0.2,0.085,
2904,-0.235,0.12,
2905,-0.265,0.11,
2906,-0.25,0.08,
2907,-0.23,0.06,
2908,-0.2,0.03,
2909,-0.175,0.03,
2910,-0.155,0.01,
2911,-0.15,-0.01,
2912,-0.155,-0.025,
2913,-0.135,-0.02,
2914,-0.12,-0.02,
2915,-0.1,-0.02,
2916,-0.1,-0.015,
2917,-0.105,0.0,
2918,-0.125,0.0,
2919,-0.15,-0.02,
2920,-0.135,-0.025,
2921,-0.12,-0.055,
2922,-0.085,-0.07,
2923,-0.07,-0.1,
2924,-0.055,-0.105,
2925,-0.04,-0.11,
2926,-0.05,-0.1,
2927,-0.04,-0.095,
2928,-0.045,-0.09,
2929,-0.035,-0.09,
2930,-0.025,-0.09,
2931,-0.025,-0.105,
2932,-0.03,-0.125,
2933,-0.035,-0.14,
2934,-0.045,-0.14,
2935,-0.045,-0.125,
2936,-0.065,-0.12,
2937,-0.06,-0.1,
2938,-0.06,-0.1,
2939,-0.065,-0.105,
2940,-0.04,-0.095,
2941,-0.01,-0.095,
2942,0.015,-0.105,
2943,0.03,-0.1,
2944,0.04,-0.09,
2945,0.01,-0.06,
2946,-0.015,-0.05,
2947,-0.05,-0.03,
2948,-0.08,-0.015,
2949,-0.085,-0.015,
2950,-0.09,-0.005,
2951,-0.07,0.0,
2952,-0.055,0.015,
2953,-0.05,0.04,
2954,-0.05,0.06,
2955,-0.08,0.075,
2956,-0.08,0.08,
2957,-0.08,0.06,
2958,-0.055,0.065,
2959,-0.06,0.09,
2960,-0.08,0.09,
2961,-0.11,0.115,
2962,-0.14,0.12,
2963,-0.145,0.15,
2964,-0.135,0.145,
2965,-0.125,0.155,
2966,-0.12,0.16,
2967,-0.135,0.16,
2968,-0.14,0.165,
2969,-0.185,0.165,
2970,-0.215,0.16,
2971,-0.235,0.145,
2972,-0.245,0.14,
2973,-0.245,0.14,
2974,-0.235,0.13,
2975,-0.24,0.13,
2976,-0.25,0.13,
2977,-0.26,0.125,
2978,-0.245,0.12,
2979,-0.23,0.11,
2980,-0.2,0.11,
2981,-0.2,0.115,
2982,-0.23,0.125,
2983,-0.265,0.12,
2984,-0.285,0.135,
2985,-0.29,0.125,
2986,-0.275,0.13,
2987,-0.255,0.13,
2988,-0.22,0.125,
2989,-0.19,0.14,
2990,-0.17,0.13,
2991,-0.16,0.14,
2992,-0.145,0.145,
2993,-0.15,0.135,
2994,-0.16,0.135,
2995,-0.165,0.125,
2996,-0.175,0.115,
2997,-0.155,0.12,
2998,-0.155,0.12,
2999,-0.145,0.125,
3000,-0.15,0.135,
3001,-0.145,0.135,
3002,-0.15,0.135,
3003,-0.15,0.135,
3004,-0.155,0.125,
3005,-0.17,0.115,
3006,-0.17,0.11,
3007,-0.19,0.11,
3008,-0.21,0.125,
3009,-0.22,0.135,
3010,-0.23,0.135,
3011,-0.2,0.14,
3012,-0.185,0.16,
3013,-0.16,0.17,
3014,-0.16,0.18,
3015,-0.175,0.19,
3016,-0.195,0.2,
3017,-0.195,0.205,
3018,-0.185,0.19,
3019,-0.19,0.185,
3020,-0.175,0.185,
3021,-0.175,0.185,
3022,-0.18,0.185,
3023,-0.185,0.185,
3024,-0.185,0.195,
3025,-0.175,0.2,
3026,-0.18,0.2,
3027,-0.17,0.17,
3028,-0.15,0.16,
3029,-0.145,0.15,
3030,-0.145,0.155,
3031,-0.155,0.155,
3032,-0.185,0.175,
3033,-0.21,0.19,
3034,-0.2,0.195,
3035,-0.19,0.2,
3036,-0.175,0.195,
3037,-0.155,0.195,
3038,-0.14,0.18,
3039,-0.14,0.17,
3040,-0.14,0.17,
3041,-0.16,0.17,
3042,-0.19,0.17,
3043,-0.225,0.185,
3044,-0.245,0.205,
3045,-0.25,0.205,
3046,-0.235,0.195,
3047,-0.22,0.2,
3048,-0.205,0.2,
3049,-0.18,0.2,
3050,-0.145,0.19,
3051,-0.155,0.19,
3052,-0.15,0.18,
3053,-0.165,0.18,
3054,-0.175,0.185,
3055,-0.19,0.215,
3056,-0.19,0.245,
3057,-0.215,0.27,
3058,-0.195,0.295,
3059,-0.17,0.3,
3060,-0.145,0.275,
3061,-0.105,0.22,
3062,-0.04,0.1,
3063,0.015,-0.03,
3064,0.095,-0.18,
3065,0.185,-0.31,
3066,0.245,-0.415,A
3067,0.28,-0.5,
3068,0.225,-0.515,
3069,0.115,-0.51,
3070,-0.055,-0.445,
3071,-0.22,-0.335,
3072,-0.36,-0.175,
3073,-0.44,0.015,
3074,-0.465,0.22,
3075,-0.495,0.395,
3076,-0.48,0.525,
3077,-0.46,0.58,
3078,-0.42,0.59,
3079,-0.385,0.58,
3080,-0.365,0.545,
3081,-0.36,0.56,
3082,-0.375,0.565,
3083,-0.405,0.6,
3084,-0.44,0.64,
3085,-0.45,0.68,
3086,-0.425,0.715,
3087,-0.4,0.745,
3088,-0.365,0.755,
3089,-0.375,0.78,
3090,-0.39,0.795,
3091,-0.42,0.785,
3092,-0.435,0.775,
3093,-0.425,0.76,
3094,-0.42,0.72,
3095,-0.41,0.675,
3096,-0.37,0.6,
3097,-0.325,0.54,
3098,-0.305,0.47,
3099,-0.29,0.395,
3100,-0.28,0.34,
3101,-0.28,0.28,
3102,-0.295,0.235,
3103,-0.305,0.19,
3104,-0.31,0.15,
3105,-0.285,0.14,
3106,-0.25,0.13,
3107,-0.21,0.12,
3108,-0.19,0.11,
3109,-0.16,0.11,
3110,-0.16,0.105,
3111,-0.165,0.115,
3112,-0.185,0.12,
3113,-0.215,0.11,
3114,-0.225,0.105,
3115,-0.25,0.09,
3116,-0.25,0.095,
3117,-0.24,0.09,
3118,-0.235,0.095,
3119,-0.22,0.1,
3120,-0.215,0.12,
3121,-0.2,0.105,
3122,-0.2,0.105,
3123,-0.195,0.1,
3124,-0.185,0.095,
3125,-0.18,0.075,
3126,-0.18,0.06,
3127,-0.175,0.045,
3128,-0.19,0.04,
3129,-0.17,0.04,
3130,-0.16,0.06,
3131,-0.17,0.08,
3132,-0.19,0.095,
3133,-0.21,0.11,
3134,-0.215,0.095,
3135,-0.235,0.09,
3136,-0.22,0.06,
3137,-0.2,0.045,
3138,-0.185,0.03,
3139,-0.175,0.025,
3140,-0.175,0.025,
3141,-0.185,0.035,
3142,-0.19,0.035,
3143,-0.19,0.045,
3144,-0.185,0.05,
3145,-0.185,0.045,
3146,-0.16,0.01,
3147,-0.145,0.005,
3148,-0.13,-0.005,
3149,-0.135,-0.01,
3150,-0.135,-0.025,
3151,-0.13,-0.03,
3152,-0.13,-0.05,
3153,-0.125,-0.06,
3154,-0.115,-0.07,
3155,-0.1,-0.08,
3156,-0.08,-0.075,
3157,-0.08,-0.085,
3158,-0.07,-0.1,
3159,-0.07,-0.105,
3160,-0.055,-0.11,
3161,-0.065,-0.13,
3162,-0.06,-0.13,
3163,-0.06,-0.135,
3164,-0.06,-0.155,
3165,-0.055,-0.165,
3166,-0.03,-0.165,
3167,-0.015,-0.165,
3168,0.015,-0.17,
3169,0.02,-0.16,
3170,0.03,-0.16,
3171,0.01,-0.155,
3172,-0.025,-0.145,
3173,-0.04,-0.14,
3174,-0.055,-0.15,
3175,-0.06,-0.125,
3176,-0.065,-0.12,
3177,-0.055,-0.1,
3178,-0.06,-0.095,
3179,-0.035,-0.075,
3180,-0.035,-0.045,
3181,-0.03,-0.025,
3182,-0.04,-0.02,
3183,-0.04,0.0,
3184,-0.055,0.005,
3185,-0.095,0.02,
3186,-0.115,0.03,
3187,-0.13,0.035,
3188,-0.14,0.05,
3189,-0.14,0.065,
3190,-0.13,0.095,
3191,-0.135,0.12,
3192,-0.145,0.14,
3193,-0.135,0.145,
3194,-0.14,0.155,
3195,-0.17,0.155,
3196,-0.165,0.155,
3197,-0.175,0.16,
3198,-0.19,0.16,
3199,-0.2,0.165,
3200,-0.21,0.17,
3201,-0.22,0.17,
3202,-0.23,0.17,
3203,-0.23,0.17,
3204,-0.21,0.175,
3205,-0.19,0.185,
3206,-0.2,0.185,
3207,-0.225,0.205,
3208,-0.25,0.21,
3209,-0.27,0.225,
3210,-0.285,0.205,
3211,-0.265,0.185,
3212,-0.25,0.16,
3213,-0.215,0.15,
3214,-0.195,0.145,
3215,-0.18,0.15,
3216,-0.145,0.165,
3217,-0.145,0.165,
3218,-0.14,0.15,
3219,-0.14,0.17,
3220,-0.16,0.17,
3221,-0.21,0.175,
3222,-0.24,0.19,
3223,-0.285,0.19,
3224,-0.29,0.19,
3225,-0.275,0.18,
3226,-0.255,0.185,
3227,-0.235,0.185,
3228,-0.2,0.185,
3229,-0.185,0.175,
3230,-0.155,0.17,
3231,-0.15,0.16,
3232,-0.14,0.15,
3233,-0.145,0.135,
3234,-0.18,0.15,
3235,-0.225,0.17,
3236,-0.245,0.18,
3237,-0.275,0.185,
3238,-0.26,0.18,
3239,-0.24,0.16,
3240,-0.225,0.165,
3241,-0.205,0.18,
3242,-0.19,0.18,
3243,-0.185,0.165,
3244,-0.205,0.16,
3245,-0.18,0.15,
3246,-0.18,0.145,
3247,-0.19,0.145,
3248,-0.195,0.145,
3249,-0.205,0.155,
3250,-0.205,0.155,
3251,-0.21,0.16,
3252,-0.2,0.17,
3253,-0.185,0.18,
3254,-0.185,0.18,
3255,-0.215,0.18,
3256,-0.22,0.165,
3257,-0.225,0.17,
3258,-0.225,0.15,
3259,-0.23,0.15,
3260,-0.245,0.155,
3261,-0.24,0.16,
3262,-0.235,0.165,
3263,-0.22,0.17,
3264,-0.2,0.175,
3265,-0.195,0.185,
3266,-0.215,0.19,
3267,-0.235,0.195,
3268,-0.24,0.19,
3269,-0.25,0.17,
3270,-0.245,0.14,
3271,-0.23,0.145,
3272,-0.235,0.155,
3273,-0.225,0.155,
3274,-0.245,0.16,
3275,-0.23,0.18,
3276,-0.23,0.175,
3277,-0.23,0.18,
3278,-0.23,0.175,
3279,-0.235,0.175,
3280,-0.235,0.175,
3281,-0.245,0.17,
3282,-0.25,0.155,
3283,-0.26,0.16,
3284,-0.255,0.155,
3285,-0.26,0.165,
3286,-0.24,0.16,
3287,-0.225,0.16,
3288,-0.205,0.17,
3289,-0.205,0.17,
3290,-0.21,0.17,
3291,-0.23,0.175,
3292,-0.235,0.18,
3293,-0.26,0.175,
3294,-0.275,0.165,
3295,-0.28,0.16,
3296,-0.28,0.16,
3297,-0.265,0.155,
3298,-0.235,0.16,
3299,-0.225,0.175,
3300,-0.205,0.17,
3301,-0.21,0.17,
3302,-0.2,0.155,
3303,-0.21,0.155,
3304,-0.21,0.16,
3305,-0.225,0.155,
3306,-0.25,0.15,
3307,-0.26,0.15,
3308,-0.27,0.15,
3309,-0.26,0.145,
3310,-0.255,0.16,
3311,-0.24,0.165,
3312,-0.245,0.18,
3313,-0.25,0.18,
3314,-0.25,0.175,
3315,-0.255,0.17,
3316,-0.23,0.165,
3317,-0.23,0.16,
3318,-0.225,0.15,
3319,-0.24,0.15,
3320,-0.245,0.145,
3321,-0.245,0.135,
3322,-0.235,0.155,
3323,-0.22,0.16,
3324,-0.225,0.185,
3325,-0.245,0.18,
3326,-0.255,0.185,
3327,-0.255,0.18,
3328,-0.26,0.17,
3329,-0.255,0.155,
3330,-0.255,0.14,
3331,-0.265,0.135,
3332,-0.265,0.145,
3333,-0.255,0.135,
3334,-0.245,0.14,
3335,-0.22,0.14,
3336,-0.205,0.155,
3337,-0.205,0.145,
3338,-0.225,0.16,
3339,-0.25,0.17,
3340,-0.265,0.175,
3341,-0.275,0.17,
3342,-0.28,0.15,
3343,-0.27,0.13,
3344,-0.265,0.13,
3345,-0.255,0.15,
3346,-0.25,0.15,
3347,-0.26,0.155,
3348,-0.27,0.15,
3349,-0.255,0.16,
3350,-0.23,0.155,
3351,-0.22,0.145,
3352,-0.225,0.14,
3353,-0.225,0.135,
3354,-0.235,0.125,
3355,-0.255,0.115,
3356,-0.265,0.125,
3357,-0.255,0.14,
3358,-0.245,0.145,
3359,-0.23,0.15,
3360,-0.23,0.145,
3361,-0.225,0.155,
3362,-0.24,0.145,
3363,-0.25,0.155,
3364,-0.265,0.17,
3365,-0.285,0.165,
3366,-0.285,0.155,
3367,-0.295,0.15,
3368,-0.285,0.135,
3369,-0.275,0.13,
3370,-0.255,0.155,
3371,-0.24,0.15,
3372,-0.24,0.16,
3373,-0.24,0.165,
3374,-0.25,0.165,
3375,-0.26,0.15,
3376,-0.265,0.145,
3377,-0.275,0.14,
3378,-0.26,0.13,
3379,-0.26,0.115,
3380,-0.235,0.12,
3381,-0.235,0.12,
3382,-0.25,0.14,
3383,-0.265,0.15,
3384,-0.275,0.17,
3385,-0.285,0.17,
3386,-0.28,0.17,
3387,-0.275,0.165,
3388,-0.26,0.155,
3389,-0.255,0.12,
3390,-0.24,0.12,
3391,-0.225,0.1,
3392,-0.215,0.1,
3393,-0.225,0.125,
3394,-0.24,0.145,
3395,-0.24,0.175,
3396,-0.26,0.185,
3397,-0.29,0.19,
3398,-0.305,0.19,
3399,-0.3,0.165,
3400,-0.295,0.155,
3401,-0.265,0.135,
3402,-0.25,0.13,
3403,-0.255,0.125,
3404,-0.27,0.14,
3405,-0.27,0.145,
3406,-0.26,0.155,
3407,-0.26,0.15,
3408,-0.245,0.155,
3409,-0.21,0.155,
3410,-0.205,0.15,
3411,-0.22,0.16,
3412,-0.25,0.17,
3413,-0.28,0.145,
3414,-0.285,0.15,
3415,-0.285,0.135,
3416,-0.25,0.1,
3417,-0.22,0.11,
3418,-0.215,0.115,
3419,-0.215,0.155,
3420,-0.26,0.175,
3421,-0.295,0.18,
3422,-0.32,0.175,
3423,-0.32,0.18,
3424,-0.3,0.17,
3425,-0.265,0.16,
3426,-0.245,0.13,
3427,-0.23,0.125,
3428,-0.225,0.13,
3429,-0.225,0.13,
3430,-0.245,0.15,
3431,-0.26,0.155,
3432,-0.275,0.16,
3433,-0.26,0.175,
3434,-0.245,0.155,
3435,-0.245,0.15,
3436,-0.225,0.135,
3437,-0.23,0.13,
3438,-0.245,0.125,
3439,-0.245,0.12,
3440,-0.27,0.135,
3441,-0.285,0.16,
3442,-0.285,0.16,
3443,-0.285,0.155,
3444,-0.255,0.16,
3445,-0.235,0.155,
3446,-0.23,0.135,
3447,-0.22,0.135,
3448,-0.215,0.135,
3449,-0.23,0.12,
3450,-0.235,0.12,
3451,-0.235,0.13,
3452,-0.245,0.14,
3453,-0.265,0.145,
3454,-0.28,0.16,
3455,-0.275,0.165,
3456,-0.27,0.175,
3457,-0.27,0.165,
3458,-0.26,0.175,
3459,-0.27,0.155,
3460,-0.265,0.15,
3461,-0.255,0.135,
3462,-0.25,0.115,
3463,-0.25,0.125,
3464,-0.25,0.13,
3465,-0.25,0.135,
3466,-0.27,0.15,
3467,-0.265,0.16,
3468,-0.26,0.17,
3469,-0.25,0.18,
3470,-0.235,0.16,
3471,-0.23,0.145,
3472,-0.22,0.15,
3473,-0.23,0.135,
3474,-0.245,0.135,
3475,-0.28,0.135,
3476,-0.29,0.125,
3477,-0.285,0.12,
3478,-0.285,0.15,
3479,-0.285,0.16,
3480,-0.31,0.17,
3481,-0.285,0.175,
3482,-0.27,0.15,
3483,-0.26,0.145,
3484,-0.25,0.14,
3485,-0.245,0.135,
3486,-0.265,0.135,
3487,-0.255,0.135,
3488,-0.27,0.13,
3489,-0.28,0.13,
3490,-0.285,0.14,
3491,-0.295,0.155,
3492,-0.29,0.16,
3493,-0.285,0.16,
3494,-0.26,0.155,
3495,-0.27,0.14,
3496,-0.265,0.13,
3497,-0.265,0.13,
3498,-0.29,0.13,
3499,-0.275,0.12,
3500,-0.29,0.145,
3501,-0.295,0.15,
3502,-0.28,0.145,
3503,-0.28,0.155,
3504,-0.27,0.15,
3505,-0.265,0.14,
3506,-0.245,0.145,
3507,-0.23,0.125,
3508,-0.225,0.14,
3509,-0.235,0.135,
3510,-0.27,0.14,
3511,-0.3,0.135,
3512,-0.32,0.125,
3513,-0.315,0.13,
3514,-0.295,0.14,
3515,-0.285,0.13,
3516,-0.275,0.155,
3517,-0.27,0.16,
3518,-0.255,0.155,
3519,-0.25,0.165,
3520,-0.24,0.15,
3521,-0.26,0.145,
3522,-0.275,0.135,
3523,-0.275,0.13,
3524,-0.295,0.135,
3525,-0.295,0.14,
3526,-0.29,0.14,
3527,-0.29,0.145,
3528,-0.27,0.145,
3529,-0.255,0.14,
3530,-0.25,0.135,
3531,-0.24,0.14,
3532,-0.245,0.14,
3533,-0.25,0.14,
3534,-0.255,0.14,
3535,-0.275,0.14,
3536,-0.28,0.145,
3537,-0.295,0.155,
3538,-0.29,0.15,
3539,-0.295,0.16,
3540,-0.29,0.165,
3541,-0.285,0.17,
3542,-0.28,0.16,
3543,-0.265,0.16,
3544,-0.265,0.15,
3545,-0.265,0.14,
3546,-0.27,0.13,
3547,-0.28,0.14,
3548,-0.295,0.14,
3549,-0.295,0.145,
3550,-0.3,0.15,
3551,-0.295,0.15,
3552,-0.285,0.16,
3553,-0.27,0.155,
3554,-0.255,0.135,
3555,-0.235,0.12,
3556,-0.22,0.115,
3557,-0.205,0.095,
3558,-0.215,0.105,
3559,-0.23,0.11,
3560,-0.265,0.13,
3561,-0.3,0.145,
3562,-0.31,0.15,
3563,-0.315,0.155,
3564,-0.305,0.15,
3565,-0.28,0.155,
3566,-0.265,0.155,
3567,-0.275,0.15,
3568,-0.27,0.15,
3569,-0.3,0.14,
3570,-0.315,0.14,
3571,-0.325,0.14,
3572,-0.315,0.135,
3573,-0.28,0.125,
3574,-0.26,0.125,
3575,-0.23,0.125,
3576,-0.215,0.14,
3577,-0.205,0.145,
3578,-0.23,0.15,
3579,-0.255,0.16,
3580,-0.275,0.155,
3581,-0.295,0.15,
3582,-0.29,0.135,
3583,-0.26,0.12,
3584,-0.245,0.13,
3585,-0.22,0.14,
3586,-0.205,0.16,
3587,-0.225,0.18,
3588,-0.23,0.195,
3589,-0.24,0.195,
3590,-0.22,0.185,
3591,-0.2,0.17,
3592,-0.16,0.155,
3593,-0.155,0.145,
3594,-0.15,0.145,
3595,-0.17,0.13,
3596,-0.2,0.16,
3597,-0.23,0.16,
3598,-0.27,0.18,
3599,-0.27,0.195,
3600,-0.27,0.185,
3601,-0.25,0.17,
3602,-0.22,0.14,
3603,-0.2,0.135,
3604,-0.195,0.115,
3605,-0.19,0.105,
3606,-0.18,0.1,
3607,-0.185,0.115,
3608,-0.195,0.105,
3609,-0.225,0.11,
3610,-0.24,0.125,
3611,-0.24,0.13,
3612,-0.23,0.12,
3613,-0.225,0.125,
3614,-0.22,0.115,
3615,-0.235,0.12,
3616,-0.245,0.115,
3617,-0.25,0.11,
3618,-0.25,0.11,
3619,-0.245,0.125,
3620,-0.255,0.14,
3621,-0.265,0.14,
3622,-0.28,0.155,
3623,-0.3,0.17,
3624,-0.295,0.175,
3625,-0.29,0.175,
3626,-0.28,0.165,
3627,-0.29,0.165,
3628,-0.27,0.165,
3629,-0.28,0.145,
3630,-0.275,0.14,
3631,-0.3,0.15,
3632,-0.325,0.16,
3633,-0.325,0.16,
3634,-0.33,0.17,
3635,-0.31,0.18,
3636,-0.285,0.165,
3637,-0.26,0.16,
3638,-0.24,0.17,
3639,-0.245,0.17,
3640,-0.25,0.165,
3641,-0.285,0.165,
3642,-0.29,0.18,
3643,-0.305,0.17,
3644,-0.31,0.155,
3645,-0.305,0.15,
3646,-0.28,0.15,
3647,-0.255,0.145,
3648,-0.25,0.155,
3649,-0.235,0.155,
3650,-0.235,0.175,
3651,-0.26,0.18,
3652,-0.27,0.195,
3653,-0.295,0.175,
3654,-0.3,0.175,
3655,-0.3,0.16,
3656,-0.27,0.17,
3657,-0.27,0.18,
3658,-0.255,0.21,
3659,-0.24,0.24,
3660,-0.23,0.265,
3661,-0.195,0.275,
3662,-0.16,0.24,
3663,-0.125,0.175,
3664,-0.05,0.075,
3665,0.01,-0.06,
3666,0.08,-0.19,
3667,0.125,-0.295,R
3668,0.15,-0.395,
3669,0.135,-0.45,
3670,0.07,-0.48,
3671,-0.025,-0.495,
3672,-0.16,-0.46,
3673,-0.305,-0.375,
3674,-0.445,-0.22,
3675,-0.525,-0.03,
3676,-0.56,0.18,
3677,-0.565,0.355,
3678,-0.565,0.49,
3679,-0.555,0.56,
3680,-0.57,0.585,
3681,-0.555,0.595,
3682,-0.54,0.575,
3683,-0.51,0.58,
3684,-0.51,0.58,
3685,-0.49,0.595,
3686,-0.495,0.615,
3687,-0.52,0.65,
3688,-0.515,0.67,
3689,-0.49,0.69,
3690,-0.455,0.705,
3691,-0.42,0.695,
3692,-0.425,0.73,
3693,-0.415,0.75,
3694,-0.42,0.76,
3695,-0.435,0.785,
3696,-0.47,0.785,
3697,-0.465,0.77,
3698,-0.465,0.705,
3699,-0.445,0.64,
3700,-0.42,0.56,
3701,-0.395,0.48,
3702,-0.39,0.4,
3703,-0.365,0.315,
3704,-0.34,0.265,
3705,-0.31,0.22,
3706,-0.29,0.195,
3707,-0.275,0.15,
3708,-0.275,0.145,
3709,-0.27,0.145,
3710,-0.26,0.135,
3711,-0.245,0.145,
3712,-0.235,0.13,
3713,-0.215,0.11,
3714,-0.215,0.1,
3715,-0.22,0.09,
3716,-0.225,0.095,
3717,-0.23,0.095,
3718,-0.25,0.105,
3719,-0.27,0.115,
3720,-0.285,0.13,
3721,-0.29,0.135,
3722,-0.275,0.105,
3723,-0.27,0.11,
3724,-0.265,0.1,
3725,-0.28,0.085,
3726,-0.285,0.095,
3727,-0.29,0.095,
3728,-0.295,0.095,
3729,-0.275,0.105,
3730,-0.275,0.115,
3731,-0.26,0.105,
3732,-0.245,0.12,
3733,-0.23,0.125,
3734,-0.23,0.115,
3735,-0.21,0.105,
3736,-0.195,0.09,
3737,-0.2,0.085,
3738,-0.205,0.09,
3739,-0.215,0.08,
3740,-0.225,0.09,
3741,-0.235,0.105,
3742,-0.255,0.115,
3743,-0.275,0.125,
3744,-0.265,0.115,
3745,-0.245,0.12,
3746,-0.225,0.1,
3747,-0.21,0.085,
3748,-0.19,0.085,
3749,-0.195,0.065,
3750,-0.195,0.04,
3751,-0.185,0.015,
3752,-0.175,0.0,
3753,-0.145,0.0,
3754,-0.115,0.005,
3755,-0.11,0.03,
3756,-0.14,0.06,
3757,-0.16,0.075,
3758,-0.195,0.065,
3759,-0.205,0.03,
3760,-0.18,0.0,
3761,-0.16,-0.015,
3762,-0.13,-0.04,
3763,-0.12,-0.035,
3764,-0.145,-0.04,
3765,-0.17,-0.035,
3766,-0.18,-0.04,
3767,-0.16,-0.045,
3768,-0.135,-0.04,
3769,-0.115,-0.05,
3770,-0.095,-0.05,
3771,-0.075,-0.07,
3772,-0.07,-0.08,
3773,-0.04,-0.105,
3774,-0.03,-0.13,
3775,-0.025,-0.145,
3776,-0.035,-0.14,
3777,-0.04,-0.13,
3778,-0.06,-0.11,
3779,-0.08,-0.09,
3780,-0.09,-0.085,
3781,-0.055,-0.065,
3782,-0.04,-0.105,
3783,-0.02,-0.13,
3784,0.005,-0.12,
3785,0.01,-0.11,
3786,-0.005,-0.09,
3787,-0.065,-0.05,
3788,-0.12,-0.01,
3789,-0.16,0.0,
3790,-0.16,-0.01,
3791,-0.135,0.0,
3792,-0.1,-0.005,
3793,-0.075,0.005,
3794,-0.055,0.01,
3795,-0.06,0.02,
3796,-0.07,0.035,
3797,-0.11,0.06,
3798,-0.155,0.075,
3799,-0.18,0.08,
3800,-0.195,0.07,
3801,-0.205,0.08,
3802,-0.205,0.09,
3803,-0.2,0.1,
3804,-0.205,0.11,
3805,-0.215,0.115,
3806,-0.195,0.115,
3807,-0.205,0.115,
3808,-0.205,0.1,
3809,-0.21,0.095,
3810,-0.22,0.09,
3811,-0.245,0.095,
3812,-0.255,0.09,
3813,-0.27,0.095,
3814,-0.275,0.095,
3815,-0.27,0.11,
3816,-0.28,0.12,
3817,-0.275,0.14,
3818,-0.28,0.12,
3819,-0.29,0.11,
3820,-0.315,0.09,
3821,-0.32,0.065,
3822,-0.34,0.06,
3823,-0.33,0.065,
3824,-0.325,0.06,
3825,-0.325,0.085,
3826,-0.325,0.105,
3827,-0.32,0.1,
3828,-0.31,0.125,
3829,-0.3,0.12,
3830,-0.29,0.125,
3831,-0.29,0.12,
3832,-0.295,0.115,
3833,-0.295,0.1,
3834,-0.285,0.1,
3835,-0.28,0.09,
3836,-0.275,0.095,
3837,-0.26,0.095,
3838,-0.245,0.095,
3839,-0.24,0.115,
3840,-0.245,0.125,
3841,-0.245,0.13,
3842,-0.24,0.105,
3843,-0.255,0.1,
3844,-0.235,0.09,
3845,-0.25,0.085,
3846,-0.26,0.095,
3847,-0.27,0.085,
3848,-0.295,0.08,
3849,-0.285,0.085,
3850,-0.27,0.09,
3851,-0.25,0.095,
3852,-0.235,0.105,
3853,-0.235,0.1,
3854,-0.22,0.105,
3855,-0.215,0.11,
3856,-0.215,0.125,
3857,-0.24,0.14,
3858,-0.275,0.14,
3859,-0.285,0.155,
3860,-0.285,0.155,
3861,-0.275,0.145,
3862,-0.265,0.16,
3863,-0.25,0.145,
3864,-0.225,0.15,
3865,-0.215,0.145,
3866,-0.195,0.155,
3867,-0.2,0.16,
3868,-0.22,0.145,
3869,-0.23,0.165,
3870,-0.25,0.165,
3871,-0.27,0.155,
3872,-0.295,0.155,
3873,-0.31,0.16,
3874,-0.305,0.16,
3875,-0.275,0.17,
3876,-0.26,0.165,
3877,-0.23,0.165,
3878,-0.215,0.17,
3879,-0.2,0.145,
3880,-0.2,0.155,
3881,-0.2,0.155,
3882,-0.235,0.155,
3883,-0.275,0.165,
3884,-0.3,0.16,
3885,-0.31,0.165,
3886,-0.295,0.165,
3887,-0.27,0.16,
3888,-0.27,0.17,
3889,-0.265,0.17,
3890,-0.28,0.19,
3891,-0.285,0.185,
3892,-0.29,0.18,
3893,-0.3,0.165,
3894,-0.295,0.15,
3895,-0.285,0.15,
3896,-0.275,0.145,
3897,-0.265,0.145,
3898,-0.235,0.15,
3899,-0.225,0.175,
3900,-0.215,0.195,
3901,-0.22,0.21,
3902,-0.225,0.22,
3903,-0.22,0.235,
3904,-0.225,0.21,
3905,-0.175,0.14,
3906,-0.105,0.045,
3907,-0.015,-0.07,
3908,0.09,-0.185,
3909,0.195,-0.275,A
3910,0.255,-0.36,
3911,0.27,-0.41,
3912,0.18,-0.4,
3913,0.015,-0.345,
3914,-0.18,-0.23,
3915,-0.385,-0.08,
3916,-0.515,0.095,
3917,-0.585,0.265,
3918,-0.6,0.39,
3919,-0.565,0.465,
3920,-0.54,0.485,
3921,-0.5,0.485,
3922,-0.44,0.465,
3923,-0.425,0.445,
3924,-0.425,0.47,
3925,-0.465,0.49,
3926,-0.505,0.53,
3927,-0.55,0.56,
3928,-0.54,0.58,
3929,-0.515,0.59,
3930,-0.47,0.605,
3931,-0.425,0.61,
3932,-0.415,0.63,
3933,-0.41,0.625,
3934,-0.435,0.635,
3935,-0.46,0.63,
3936,-0.465,0.605,
3937,-0.47,0.58,
3938,-0.435,0.535,
3939,-0.42,0.47,
3940,-0.415,0.41,
3941,-0.395,0.335,
3942,-0.39,0.28,
3943,-0.395,0.22,
3944,-0.38,0.185,
3945,-0.37,0.16,
3946,-0.365,0.13,
3947,-0.345,0.125,
3948,-0.33,0.12,
3949,-0.28,0.105,
3950,-0.255,0.095,
3951,-0.225,0.085,
3952,-0.205,0.065,
3953,-0.19,0.04,
3954,-0.175,0.035,
3955,-0.2,0.06,
3956,-0.25,0.085,
3957,-0.29,0.115,
3958,-0.345,0.135,
3959,-0.385,0.145,
3960,-0.385,0.13,
3961,-0.36,0.115,
3962,-0.32,0.1,
3963,-0.305,0.09,
3964,-0.28,0.065,
3965,-0.27,0.06,
3966,-0.275,0.06,
3967,-0.26,0.04,
3968,-0.225,0.03,
3969,-0.185,0.01,
3970,-0.155,0.005,
3971,-0.14,0.045,
3972,-0.17,0.085,
3973,-0.24,0.115,
3974,-0.3,0.13,
3975,-0.35,0.125,
3976,-0.36,0.085,
3977,-0.34,0.065,
3978,-0.325,0.045,
3979,-0.285,0.035,
3980,-0.285,0.04,
3981,-0.25,0.04,
3982,-0.25,0.035,
3983,-0.24,0.035,
3984,-0.235,0.04,
3985,-0.215,0.035,
3986,-0.2,0.015,
3987,-0.205,0.02,
3988,-0.195,0.0,
3989,-0.195,-0.03,
3990,-0.18,-0.04,
3991,-0.17,-0.075,
3992,-0.135,-0.09,
3993,-0.11,-0.08,
3994,-0.12,-0.055,
3995,-0.17,-0.02,
3996,-0.22,0.015,
3997,-0.25,0.015,
3998,-0.26,-0.005,
3999,-0.235,-0.055,
4000,-0.19,-0.085,
4001,-0.155,-0.095,
4002,-0.13,-0.13,
4003,-0.12,-0.135,
4004,-0.115,-0.125,
4005,-0.12,-0.14,
4006,-0.11,-0.135,
4007,-0.085,-0.14,
4008,-0.065,-0.135,
4009,-0.05,-0.14,
4010,-0.03,-0.145,
4011,-0.025,-0.14,
4012,-0.04,-0.15,
4013,-0.015,-0.145,
4014,-0.025,-0.15,
4015,-0.05,-0.14,
4016,-0.08,-0.11,
4017,-0.105,-0.095,
4018,-0.13,-0.08,
4019,-0.145,-0.07,
4020,-0.14,-0.05,
4021,-0.125,-0.035,
4022,-0.11,-0.035,
4023,-0.1,-0.03,
4024,-0.085,-0.015,
4025,-0.09,-0.015,
4026,-0.115,0.0,
4027,-0.13,0.005,
4028,-0.135,0.005,
4029,-0.125,0.03,
4030,-0.125,0.05,
4031,-0.135,0.07,
4032,-0.18,0.105,
4033,-0.19,0.135,
4034,-0.225,0.14,
4035,-0.245,0.14,
4036,-0.245,0.14,
4037,-0.265,0.135,
4038,-0.27,0.15,
4039,-0.295,0.145,
4040,-0.31,0.155,
4041,-0.31,0.17,
4042,-0.295,0.16,
4043,-0.275,0.15,
4044,-0.25,0.155,
4045,-0.24,0.155,
4046,-0.225,0.165,
4047,-0.235,0.165,
4048,-0.235,0.16,
4049,-0.255,0.165,
4050,-0.29,0.175,
4051,-0.31,0.16,
4052,-0.335,0.165,
4053,-0.36,0.195,
4054,-0.36,0.205,
4055,-0.365,0.215,
4056,-0.355,0.21,
4057,-0.315,0.2,
4058,-0.29,0.195,
4059,-0.285,0.18,
4060,-0.275,0.17,
4061,-0.285,0.16,
4062,-0.28,0.15,
4063,-0.3,0.145,
4064,-0.31,0.135,
4065,-0.3,0.145,
4066,-0.295,0.14,
4067,-0.265,0.14,
4068,-0.26,0.155,
4069,-0.25,0.165,
4070,-0.25,0.17,
4071,-0.25,0.165,
4072,-0.265,0.165,
4073,-0.285,0.165,
4074,-0.295,0.155,
4075,-0.31,0.145,
4076,-0.315,0.15,
4077,-0.31,0.16,
4078,-0.3,0.155,
4079,-0.275,0.15,
4080,-0.26,0.155,
4081,-0.245,0.165,
4082,-0.24,0.165,
4083,-0.25,0.175,
4084,-0.27,0.17,
4085,-0.285,0.155,
4086,-0.305,0.145,
4087,-0.325,0.13,
4088,-0.34,0.13,
4089,-0.32,0.135,
4090,-0.325,0.145,
4091,-0.315,0.155,
4092,-0.305,0.16,
4093,-0.29,0.165,
4094,-0.27,0.155,
4095,-0.27,0.15,
4096,-0.255,0.145,
4097,-0.255,0.135,
4098,-0.265,0.135,
4099,-0.27,0.12,
4100,-0.27,0.11,
4101,-0.265,0.12,
4102,-0.27,0.13,
4103,-0.26,0.14,
4104,-0.27,0.165,
4105,-0.29,0.18,
4106,-0.3,0.18,
4107,-0.32,0.185,
4108,-0.31,0.165,
4109,-0.295,0.14,
4110,-0.275,0.115,
4111,-0.255,0.115,
4112,-0.265,0.115,
4113,-0.27,0.12,
4114,-0.285,0.15,
4115,-0.305,0.155,
4116,-0.315,0.175,
4117,-0.315,0.18,
4118,-0.32,0.19,
4119,-0.32,0.17,
4120,-0.315,0.17,
4121,-0.31,0.165,
4122,-0.31,0.155,
4123,-0.305,0.14,
4124,-0.3,0.13,
4125,-0.285,0.125,
4126,-0.27,0.12,
4127,-0.255,0.14,
4128,-0.26,0.165,
4129,-0.29,0.185,
4130,-0.315,0.19,
4131,-0.355,0.19,
4132,-0.355,0.185,
4133,-0.36,0.17,
4134,-0.36,0.155,
4135,-0.34,0.155,
4136,-0.34,0.155,
4137,-0.315,0.14,
4138,-0.29,0.135,
4139,-0.285,0.13,
4140,-0.265,0.12,
4141,-0.23,0.105,
4142,-0.17,0.085,
4143,-0.145,0.1,
4144,-0.165,0.135,
4145,-0.24,0.185,
4146,-0.355,0.22,
4147,-0.445,0.245,
4148,-0.5,0.22,
4149,-0.485,0.195,
4150,-0.445,0.19,
4151,-0.37,0.16,
4152,-0.315,0.155,
4153,-0.275,0.155,
4154,-0.255,0.165,
4155,-0.26,0.16,
4156,-0.275,0.15,
4157,-0.305,0.145,
4158,-0.315,0.13,
4159,-0.32,0.135,
4160,-0.33,0.135,
4161,-0.325,0.135,
4162,-0.31,0.15,
4163,-0.3,0.145,
4164,-0.275,0.155,
4165,-0.265,0.14,
4166,-0.23,0.125,
4167,-0.225,0.115,
4168,-0.21,0.12,
4169,-0.24,0.13,
4170,-0.275,0.14,
4171,-0.325,0.175,
4172,-0.345,0.19,
4173,-0.38,0.205,
4174,-0.4,0.2,
4175,-0.395,0.215,
4176,-0.385,0.19,
4177,-0.34,0.17,
4178,-0.31,0.155,
4179,-0.285,0.15,
4180,-0.275,0.125,
4181,-0.275,0.13,
4182,-0.275,0.125,
4183,-0.305,0.135,
4184,-0.32,0.135,
4185,-0.33,0.14,
4186,-0.34,0.155,
4187,-0.34,0.155,
4188,-0.33,0.175,
4189,-0.32,0.175,
4190,-0.315,0.175,
4191,-0.305,0.17,
4192,-0.305,0.155,
4193,-0.305,0.15,
4194,-0.31,0.14,
4195,-0.31,0.14,
4196,-0.32,0.145,
4197,-0.315,0.14,
4198,-0.295,0.14,
4199,-0.29,0.13,
4200,-0.27,0.13,
4201,-0.235,0.14,
4202,-0.225,0.16,
4203,-0.26,0.175,
4204,-0.285,0.185,
4205,-0.32,0.195,
4206,-0.345,0.195,
4207,-0.365,0.19,
4208,-0.38,0.19,
4209,-0.375,0.185,
4210,-0.365,0.18,
4211,-0.355,0.185,
4212,-0.33,0.17,
4213,-0.29,0.15,
4214,-0.245,0.16,
4215,-0.225,0.155,
4216,-0.235,0.15,
4217,-0.255,0.145,
4218,-0.285,0.155,
4219,-0.315,0.17,
4220,-0.345,0.155,
4221,-0.365,0.165,
4222,-0.375,0.18,
4223,-0.365,0.195,
4224,-0.37,0.205,
4225,-0.355,0.195,
4226,-0.335,0.19,
4227,-0.315,0.18,
4228,-0.305,0.16,
4229,-0.295,0.145,
4230,-0.285,0.145,
4231,-0.28,0.13,
4232,-0.275,0.14,
4233,-0.285,0.145,
4234,-0.285,0.155,
4235,-0.29,0.165,
4236,-0.29,0.175,
4237,-0.3,0.18,
4238,-0.3,0.185,
4239,-0.305,0.18,
4240,-0.3,0.175,
4241,-0.295,0.155,
4242,-0.295,0.14,
4243,-0.285,0.125,
4244,-0.28,0.115,
4245,-0.26,0.135,
4246,-0.245,0.145,
4247,-0.245,0.155,
4248,-0.26,0.185,
4249,-0.275,0.215,
4250,-0.31,0.215,
4251,-0.335,0.215,
4252,-0.325,0.205,
4253,-0.31,0.18,
4254,-0.315,0.16,
4255,-0.295,0.145,
4256,-0.29,0.14,
4257,-0.29,0.145,
4258,-0.275,0.145,
4259,-0.265,0.16,
4260,-0.27,0.185,
4261,-0.29,0.2,
4262,-0.3,0.22,
4263,-0.325,0.2,
4264,-0.315,0.175,
4265,-0.3,0.175,
4266,-0.285,0.155,
4267,-0.29,0.165,
4268,-0.305,0.155,
4269,-0.285,0.165,
4270,-0.285,0.16,
4271,-0.285,0.17,
4272,-0.27,0.18,
4273,-0.25,0.19,
4274,-0.27,0.19,
4275,-0.28,0.205,
4276,-0.305,0.2,
4277,-0.315,0.18,
4278,-0.34,0.18,
4279,-0.34,0.16,
4280,-0.31,0.155,
4281,-0.295,0.145,
4282,-0.28,0.15,
4283,-0.27,0.145,
4284,-0.245,0.15,
4285,-0.23,0.135,
4286,-0.235,0.13,
4287,-0.235,0.16,
4288,-0.275,0.18,
4289,-0.31,0.185,
4290,-0.345,0.18,
4291,-0.355,0.175,
4292,-0.33,0.15,
4293,-0.295,0.14,
4294,-0.27,0.125,
4295,-0.255,0.135,
4296,-0.255,0.14,
4297,-0.28,0.175,
4298,-0.29,0.19,
4299,-0.31,0.185,
4300,-0.32,0.185,
4301,-0.315,0.155,
4302,-0.295,0.15,
4303,-0.295,0.13,
4304,-0.285,0.135,
4305,-0.295,0.135,
4306,-0.285,0.145,
4307,-0.29,0.175,
4308,-0.3,0.18,
4309,-0.295,0.175,
4310,-0.3,0.175,
4311,-0.29,0.175,
4312,-0.29,0.155,
4313,-0.28,0.145,
4314,-0.28,0.135,
4315,-0.285,0.12,
4316,-0.29,0.12,
4317,-0.285,0.115,
4318,-0.26,0.14,
4319,-0.235,0.13,
4320,-0.225,0.135,
4321,-0.22,0.15,
4322,-0.21,0.16,
4323,-0.245,0.17,
4324,-0.29,0.18,
4325,-0.325,0.175,
4326,-0.345,0.16,
4327,-0.34,0.155,
4328,-0.345,0.14,
4329,-0.335,0.155,
4330,-0.305,0.15,
4331,-0.29,0.165,
4332,-0.265,0.17,
4333,-0.25,0.16,
4334,-0.26,0.16,
4335,-0.245,0.155,
4336,-0.24,0.14,
4337,-0.24,0.13,
4338,-0.24,0.125,
4339,-0.235,0.12,
4340,-0.25,0.125,
4341,-0.25,0.145,
4342,-0.26,0.155,
4343,-0.28,0.18,
4344,-0.295,0.185,
4345,-0.305,0.18,
4346,-0.29,0.17,
4347,-0.285,0.155,
4348,-0.265,0.15,
4349,-0.25,0.14,
4350,-0.245,0.13,
4351,-0.25,0.13,
4352,-0.24,0.12,
4353,-0.235,0.12,
4354,-0.23,0.13,
4355,-0.23,0.14,
4356,-0.245,0.15,
4357,-0.25,0.165,
4358,-0.25,0.165,
4359,-0.25,0.175,
4360,-0.25,0.155,
4361,-0.255,0.16,
4362,-0.265,0.155,
4363,-0.265,0.15,
4364,-0.285,0.145,
4365,-0.29,0.155,
4366,-0.285,0.155,
4367,-0.275,0.15,
4368,-0.28,0.15,
4369,-0.255,0.16,
4370,-0.255,0.155,
4371,-0.26,0.145,
4372,-0.26,0.155,
4373,-0.275,0.15,
4374,-0.285,0.14,
4375,-0.285,0.13,
4376,-0.29,0.14,
4377,-0.3,0.145,
4378,-0.275,0.145,
4379,-0.27,0.145,
4380,-0.265,0.15,
4381,-0.26,0.14,
4382,-0.245,0.14,
4383,-0.25,0.145,
4384,-0.25,0.14,
4385,-0.235,0.14,
4386,-0.255,0.13,
4387,-0.265,0.125,
4388,-0.28,0.145,
4389,-0.285,0.14,
4390,-0.285,0.15,
4391,-0.285,0.15,
4392,-0.265,0.145,
4393,-0.24,0.155,
4394,-0.23,0.145,
4395,-0.24,0.15,
4396,-0.245,0.155,
4397,-0.27,0.145,
4398,-0.275,0.125,
4399,-0.27,0.125,
4400,-0.27,0.115,
4401,-0.26,0.12,
4402,-0.26,0.15,
4403,-0.26,0.15,
4404,-0.255,0.155,
4405,-0.255,0.155,
4406,-0.23,0.135,
4407,-0.24,0.14,
4408,-0.245,0.145,
4409,-0.255,0.14,
4410,-0.285,0.13,
4411,-0.305,0.14,
4412,-0.315,0.14,
4413,-0.31,0.13,
4414,-0.29,0.13,
4415,-0.265,0.15,
4416,-0.245,0.13,
4417,-0.225,0.14,
4418,-0.215,0.135,
4419,-0.21,0.12,
4420,-0.2,0.125,
4421,-0.215,0.125,
4422,-0.22,0.13,
4423,-0.235,0.13,
4424,-0.25,0.135,
4425,-0.265,0.13,
4426,-0.265,0.145,
4427,-0.265,0.16,
4428,-0.26,0.16,
4429,-0.24,0.165,
4430,-0.22,0.165,
4431,-0.195,0.15,
4432,-0.19,0.16,
4433,-0.18,0.145,
4434,-0.175,0.155,
4435,-0.17,0.14,
4436,-0.18,0.135,
4437,-0.17,0.145,
4438,-0.18,0.155,
4439,-0.19,0.165,
4440,-0.205,0.165,
4441,-0.205,0.16,
4442,-0.19,0.14,
4443,-0.175,0.115,
4444,-0.17,0.105,
4445,-0.155,0.09,
4446,-0.145,0.07,
4447,-0.135,0.08,
4448,-0.155,0.09,
4449,-0.19,0.105,
4450,-0.22,0.115,
4451,-0.25,0.14,
4452,-0.265,0.155,
4453,-0.28,0.15,
4454,-0.265,0.135,
4455,-0.25,0.115,
4456,-0.215,0.09,
4457,-0.195,0.085,
4458,-0.18,0.07,
4459,-0.185,0.075,
4460,-0.2,0.095,
4461,-0.215,0.13,
4462,-0.225,0.15,
4463,-0.26,0.155,
4464,-0.265,0.165,
4465,-0.27,0.165,
4466,-0.26,0.14,
4467,-0.25,0.13,
4468,-0.265,0.12,
4469,-0.24,0.105,
4470,-0.235,0.105,
4471,-0.23,0.1,
4472,-0.22,0.11,
4473,-0.24,0.13,
4474,-0.265,0.14,
4475,-0.29,0.16,
4476,-0.3,0.155,
4477,-0.295,0.175,
4478,-0.28,0.17,
4479,-0.27,0.16,
4480,-0.265,0.155,
4481,-0.255,0.135,
4482,-0.265,0.13,
4483,-0.265,0.135,
4484,-0.28,0.14,
4485,-0.29,0.145,
4486,-0.3,0.13,
4487,-0.275,0.14,
4488,-0.255,0.15,
4489,-0.26,0.15,
4490,-0.255,0.17,
4491,-0.265,0.175,
4492,-0.275,0.185,
4493,-0.295,0.17,
4494,-0.3,0.155,
4495,-0.31,0.155,
4496,-0.3,0.135,
4497,-0.28,0.135,
4498,-0.25,0.135,
4499,-0.225,0.125,
4500,-0.21,0.155,
4501,-0.185,0.16,
4502,-0.175,0.185,
4503,-0.165,0.205,
4504,-0.155,0.205,
4505,-0.14,0.2,
4506,-0.12,0.165,
4507,-0.11,0.105,
4508,-0.07,0.01,
4509,0.015,-0.11,
4510,0.12,-0.22,
4511,0.225,-0.325,R
4512,0.295,-0.415,
4513,0.3,-0.47,
4514,0.2,-0.48,
4515,0.0,-0.435,
4516,-0.225,-0.35,
4517,-0.425,-0.225,
4518,-0.54,-0.065,
4519,-0.595,0.11,
4520,-0.595,0.26,
4521,-0.55,0.36,
4522,-0.52,0.44,
4523,-0.505,0.47,
4524,-0.48,0.49,
4525,-0.475,0.49,
4526,-0.47,0.495,
4527,-0.475,0.495,
4528,-0.475,0.52,
4529,-0.495,0.53,
4530,-0.51,0.55,
4531,-0.5,0.555,
4532,-0.48,0.595,
4533,-0.44,0.615,
4534,-0.43,0.65,
4535,-0.415,0.66,
4536,-0.405,0.675,
4537,-0.41,0.69,
4538,-0.415,0.705,
4539,-0.435,0.7,
4540,-0.445,0.675,
4541,-0.46,0.66,
4542,-0.48,0.6,
4543,-0.485,0.56,
4544,-0.48,0.51,
4545,-0.455,0.43,
4546,-0.42,0.365,
4547,-0.385,0.3,
4548,-0.33,0.23,
4549,-0.3,0.2,
4550,-0.27,0.17,
4551,-0.27,0.15,
4552,-0.26,0.14,
4553,-0.265,0.14,
4554,-0.285,0.115,
4555,-0.29,0.1,
4556,-0.285,0.095,
4557,-0.285,0.1,
4558,-0.275,0.095,
4559,-0.26,0.1,
4560,-0.24,0.1,
4561,-0.22,0.105,
4562,-0.22,0.1,
4563,-0.22,0.11,
4564,-0.235,0.12,
4565,-0.25,0.105,
4566,-0.265,0.1,
4567,-0.275,0.09,
4568,-0.285,0.085,
4569,-0.28,0.085,
4570,-0.275,0.095,
4571,-0.275,0.095,
4572,-0.26,0.095,
4573,-0.24,0.09,
4574,-0.21,0.075,
4575,-0.2,0.08,
4576,-0.2,0.09,
4577,-0.225,0.085,
4578,-0.255,0.09,
4579,-0.275,0.095,
4580,-0.29,0.095,
4581,-0.28,0.075,
4582,-0.245,0.065,
4583,-0.2,0.06,
4584,-0.175,0.065,
4585,-0.17,0.085,
4586,-0.19,0.1,
4587,-0.235,0.105,
4588,-0.265,0.1,
4589,-0.275,0.08,
4590,-0.26,0.055,
4591,-0.235,0.04,
4592,-0.205,0.025,
4593,-0.185,0.025,
4594,-0.17,0.03,
4595,-0.195,0.045,
4596,-0.19,0.045,
4597,-0.195,0.045,
4598,-0.185,0.03,
4599,-0.19,0.005,
4600,-0.19,0.0,
4601,-0.175,-0.02,
4602,-0.16,-0.025,
4603,-0.15,-0.035,
4604,-0.15,-0.045,
4605,-0.12,-0.065,
4606,-0.105,-0.055,
4607,-0.12,-0.045,
4608,-0.105,-0.05,
4609,-0.11,-0.045,
4610,-0.085,-0.065,
4611,-0.075,-0.07,
4612,-0.075,-0.095,
4613,-0.065,-0.105,
4614,-0.065,-0.11,
4615,-0.08,-0.12,
4616,-0.095,-0.12,
4617,-0.1,-0.125,
4618,-0.105,-0.125,
4619,-0.09,-0.13,
4620,-0.09,-0.125,
4621,-0.07,-0.13,
4622,-0.045,-0.135,
4623,-0.025,-0.145,
4624,-0.02,-0.14,
4625,-0.03,-0.14,
4626,-0.045,-0.15,
4627,-0.05,-0.14,
4628,-0.065,-0.14,
4629,-0.06,-0.125,
4630,-0.065,-0.115,
4631,-0.06,-0.085,
4632,-0.065,-0.07,
4633,-0.06,-0.065,
4634,-0.055,-0.045,
4635,-0.055,-0.04,
4636,-0.06,-0.03,
4637,-0.05,-0.03,
4638,-0.06,-0.015,
4639,-0.055,-0.005,
4640,-0.06,-0.02,
4641,-0.06,0.015,
4642,-0.07,0.03,
4643,-0.085,0.05,
4644,-0.1,0.08,
4645,-0.115,0.115,
4646,-0.125,0.125,
4647,-0.145,0.135,
4648,-0.165,0.135,
4649,-0.175,0.13,
4650,-0.16,0.115,
4651,-0.17,0.1,
4652,-0.17,0.105,
4653,-0.18,0.115,
4654,-0.17,0.125,
4655,-0.185,0.15,
4656,-0.19,0.16,
4657,-0.225,0.175,
4658,-0.24,0.18,
4659,-0.27,0.16,
4660,-0.275,0.165,
4661,-0.265,0.125,
4662,-0.265,0.11,
4663,-0.26,0.09,
4664,-0.265,0.085,
4665,-0.27,0.08,
4666,-0.28,0.085,
4667,-0.28,0.095,
4668,-0.285,0.11,
4669,-0.28,0.135,
4670,-0.275,0.12,
4671,-0.28,0.115,
4672,-0.26,0.115,
4673,-0.255,0.11,
4674,-0.255,0.1,
4675,-0.26,0.09,
4676,-0.25,0.095,
4677,-0.24,0.11,
4678,-0.21,0.1,
4679,-0.185,0.11,
4680,-0.165,0.12,
4681,-0.16,0.13,
4682,-0.17,0.13,
4683,-0.18,0.115,
4684,-0.2,0.12,
4685,-0.21,0.115,
4686,-0.22,0.12,
4687,-0.235,0.115,
4688,-0.245,0.11,
4689,-0.245,0.11,
4690,-0.24,0.095,
4691,-0.22,0.11,
4692,-0.22,0.11,
4693,-0.2,0.115,
4694,-0.19,0.115,
4695,-0.185,0.105,
4696,-0.19,0.105,
4697,-0.19,0.115,
4698,-0.18,0.09,
4699,-0.17,0.09,
4700,-0.175,0.09,
4701,-0.175,0.115,
4702,-0.19,0.135,
4703,-0.22,0.18,
4704,-0.25,0.21,
4705,-0.255,0.22,
4706,-0.25,0.21,
4707,-0.235,0.175,
4708,-0.205,0.14,
4709,-0.175,0.13,
4710,-0.15,0.12,
4711,-0.165,0.125,
4712,-0.175,0.14,
4713,-0.215,0.165,
4714,-0.24,0.175,
4715,-0.25,0.19,
4716,-0.265,0.195,
4717,-0.245,0.185,
4718,-0.215,0.17,
4719,-0.2,0.165,
4720,-0.175,0.16,
4721,-0.165,0.15,
4722,-0.185,0.16,
4723,-0.205,0.165,
4724,-0.235,0.16,
4725,-0.265,0.16,
4726,-0.255,0.155,
4727,-0.245,0.17,
4728,-0.23,0.19,
4729,-0.22,0.17,
4730,-0.205,0.165,
4731,-0.2,0.175,
4732,-0.185,0.155,
4733,-0.19,0.15,
4734,-0.185,0.135,
4735,-0.185,0.13,
4736,-0.185,0.14,
4737,-0.19,0.135,
4738,-0.22,0.17,
4739,-0.24,0.185,
4740,-0.255,0.21,
4741,-0.24,0.235,
4742,-0.24,0.25,
4743,-0.23,0.265,
4744,-0.22,0.27,
4745,-0.225,0.265,
4746,-0.2,0.21,
4747,-0.14,0.115,
4748,-0.065,-0.025,
4749,0.05,-0.175,
4750,0.18,-0.315,
4751,0.26,-0.43,A
4752,0.31,-0.49,
4753,0.255,-0.505,
4754,0.125,-0.48,
4755,-0.07,-0.405,
4756,-0.275,-0.29,
4757,-0.46,-0.145,
4758,-0.545,0.025,
4759,-0.555,0.21,
4760,-0.535,0.38,
4761,-0.49,0.485,
4762,-0.425,0.545,
4763,-0.395,0.55,
4764,-0.39,0.55,
4765,-0.375,0.535,
4766,-0.38,0.51,
4767,-0.4,0.52,
4768,-0.4,0.515,
4769,-0.39,0.525,
4770,-0.375,0.545,
4771,-0.365,0.585,
4772,-0.355,0.625,
4773,-0.37,0.68,
4774,-0.395,0.71,
4775,-0.425,0.73,
4776,-0.45,0.75,
4777,-0.46,0.745,
4778,-0.465,0.735,
4779,-0.455,0.7,
4780,-0.445,0.655,
4781,-0.44,0.59,
4782,-0.43,0.53,
4783,-0.41,0.445,
4784,-0.385,0.355,
4785,-0.355,0.275,
4786,-0.325,0.2,
4787,-0.26,0.135,
4788,-0.205,0.075,
4789,-0.145,0.055,
4790,-0.135,0.035,
4791,-0.16,0.055,
4792,-0.2,0.08,
4793,-0.245,0.1,
4794,-0.305,0.105,
4795,-0.33,0.09,
4796,-0.32,0.075,
4797,-0.31,0.075,
4798,-0.285,0.07,
4799,-0.25,0.065,
4800,-0.24,0.06,
4801,-0.215,0.06,
4802,-0.21,0.05,
4803,-0.22,0.055,
4804,-0.21,0.05,
4805,-0.205,0.035,
4806,-0.195,0.02,
4807,-0.2,0.03,
4808,-0.22,0.04,
4809,-0.25,0.055,
4810,-0.255,0.065,
4811,-0.26,0.065,
4812,-0.24,0.07,
4813,-0.215,0.055,
4814,-0.21,0.045,
4815,-0.2,0.04,
4816,-0.185,0.035,
4817,-0.2,0.035,
4818,-0.225,0.025,
4819,-0.245,0.03,
4820,-0.265,0.02,
4821,-0.27,0.015,
4822,-0.25,0.025,
4823,-0.23,0.015,
4824,-0.22,0.02,
4825,-0.185,0.02,
4826,-0.175,0.015,
4827,-0.15,-0.005,
4828,-0.155,-0.005,
4829,-0.155,-0.025,
4830,-0.17,-0.03,
4831,-0.19,-0.03,
4832,-0.2,-0.03,
4833,-0.21,-0.03,
4834,-0.2,-0.05,
4835,-0.175,-0.05,
4836,-0.135,-0.07,
4837,-0.11,-0.075,
4838,-0.105,-0.07,
4839,-0.11,-0.08,
4840,-0.115,-0.09,
4841,-0.13,-0.115,
4842,-0.12,-0.135,
4843,-0.095,-0.145,
4844,-0.085,-0.165,
4845,-0.06,-0.17,
4846,-0.055,-0.145,
4847,-0.045,-0.14,
4848,-0.065,-0.125,
4849,-0.075,-0.125,
4850,-0.08,-0.14,
4851,-0.075,-0.155,
4852,-0.065,-0.17,
4853,-0.06,-0.18,
4854,-0.045,-0.185,
4855,-0.035,-0.19,
4856,-0.04,-0.175,
4857,-0.055,-0.17,
4858,-0.075,-0.165,
4859,-0.085,-0.155,
4860,-0.075,-0.145,
4861,-0.06,-0.13,
4862,-0.04,-0.11,
4863,-0.03,-0.09,
4864,-0.04,-0.08,
4865,-0.05,-0.08,
4866,-0.06,-0.075,
4867,-0.075,-0.07,
4868,-0.095,-0.065,
4869,-0.085,-0.04,
4870,-0.085,-0.03,
4871,-0.095,-0.005,
4872,-0.11,0.04,
4873,-0.13,0.045,
4874,-0.155,0.06,
4875,-0.18,0.09,
4876,-0.2,0.095,
4877,-0.205,0.085,
4878,-0.2,0.09,
4879,-0.18,0.08,
4880,-0.165,0.095,
4881,-0.165,0.11,
4882,-0.195,0.12,
4883,-0.23,0.14,
4884,-0.225,0.135,
4885,-0.235,0.145,
4886,-0.245,0.15,
4887,-0.26,0.155,
4888,-0.275,0.165,
4889,-0.295,0.155,
4890,-0.29,0.135,
4891,-0.285,0.12,
4892,-0.27,0.11,
4893,-0.255,0.12,
4894,-0.25,0.135,
4895,-0.26,0.145,
4896,-0.285,0.155,
4897,-0.285,0.155,
4898,-0.275,0.155,
4899,-0.26,0.15,
4900,-0.255,0.135,
4901,-0.24,0.13,
4902,-0.25,0.135,
4903,-0.24,0.11,
4904,-0.24,0.115,
4905,-0.23,0.105,
4906,-0.225,0.12,
4907,-0.24,0.135,
4908,-0.245,0.145,
4909,-0.24,0.145,
4910,-0.255,0.145,
4911,-0.245,0.14,
4912,-0.24,0.135,
4913,-0.245,0.135,
4914,-0.245,0.135,
4915,-0.25,0.115,
4916,-0.26,0.12,
4917,-0.255,0.12,
4918,-0.25,0.125,
4919,-0.24,0.13,
4920,-0.225,0.13,
4921,-0.225,0.14,
4922,-0.235,0.145,
4923,-0.245,0.135,
4924,-0.24,0.14,
4925,-0.255,0.12,
4926,-0.25,0.105,
4927,-0.25,0.095,
4928,-0.245,0.12,
4929,-0.245,0.125,
4930,-0.24,0.135,
4931,-0.23,0.135,
4932,-0.23,0.145,
4933,-0.215,0.13,
4934,-0.2,0.135,
4935,-0.195,0.13,
4936,-0.2,0.135,
4937,-0.225,0.135,
4938,-0.255,0.12,
4939,-0.27,0.11,
4940,-0.275,0.115,
4941,-0.265,0.12,
4942,-0.24,0.125,
4943,-0.23,0.125,
4944,-0.22,0.125,
4945,-0.235,0.13,
4946,-0.245,0.15,
4947,-0.255,0.145,
4948,-0.26,0.15,
4949,-0.285,0.145,
4950,-0.275,0.12,
4951,-0.27,0.105,
4952,-0.265,0.1,
4953,-0.25,0.105,
4954,-0.24,0.12,
4955,-0.235,0.12,
4956,-0.245,0.135,
4957,-0.26,0.14,
4958,-0.24,0.135,
4959,-0.245,0.125,
4960,-0.24,0.12,
4961,-0.215,0.115,
4962,-0.235,0.12,
4963,-0.24,0.11,
4964,-0.25,0.1,
4965,-0.25,0.105,
4966,-0.245,0.12,
4967,-0.24,0.125,
4968,-0.26,0.14,
4969,-0.265,0.135,
4970,-0.26,0.135,
4971,-0.275,0.135,
4972,-0.26,0.145,
4973,-0.265,0.14,
4974,-0.255,0.12,
4975,-0.265,0.12,
4976,-0.265,0.12,
4977,-0.275,0.11,
4978,-0.285,0.12,
4979,-0.275,0.125,
4980,-0.265,0.13,
4981,-0.245,0.13,
4982,-0.225,0.125,
4983,-0.225,0.12,
4984,-0.235,0.13,
4985,-0.25,0.115,
4986,-0.265,0.115,
4987,-0.27,0.105,
4988,-0.27,0.105,
4989,-0.255,0.105,
4990,-0.26,0.115,
4991,-0.25,0.115,
4992,-0.245,0.14,
4993,-0.24,0.14,
4994,-0.23,0.135,
4995,-0.23,0.13,
4996,-0.23,0.135,
4997,-0.23,0.13,
4998,-0.245,0.12,
4999,-0.25,0.105,
5000,-0.255,0.105,
5001,-0.265,0.11,
5002,-0.255,0.105,
5003,-0.245,0.115,
5004,-0.24,0.11,
5005,-0.24,0.13,
5006,-0.25,0.125,
5007,-0.235,0.125,
5008,-0.235,0.14,
5009,-0.24,0.115,
5010,-0.255,0.1,
5011,-0.26,0.095,
5012,-0.265,0.1,
5013,-0.26,0.105,
5014,-0.255,0.135,
5015,-0.265,0.135,
5016,-0.255,0.135,
5017,-0.26,0.13,
5018,-0.24,0.105,
5019,-0.24,0.115,
5020,-0.24,0.11,
5021,-0.245,0.11,
5022,-0.275,0.125,
5023,-0.3,0.135,
5024,-0.32,0.135,
5025,-0.315,0.135,
5026,-0.29,0.115,
5027,-0.27,0.125,
5028,-0.25,0.125,
5029,-0.23,0.115,
5030,-0.205,0.11,
5031,-0.215,0.11,
5032,-0.21,0.11,
5033,-0.22,0.11,
5034,-0.235,0.1,
5035,-0.25,0.095,
5036,-0.255,0.115,
5037,-0.29,0.125,
5038,-0.32,0.14,
5039,-0.325,0.135,
5040,-0.32,0.14,
5041,-0.3,0.13,
5042,-0.265,0.12,
5043,-0.24,0.115,
5044,-0.215,0.115,
5045,-0.205,0.105,
5046,-0.225,0.135,
5047,-0.26,0.115,
5048,-0.305,0.13,
5049,-0.31,0.12,
5050,-0.295,0.12,
5051,-0.28,0.11,
5052,-0.26,0.115,
5053,-0.235,0.125,
5054,-0.215,0.125,
5055,-0.22,0.12,
5056,-0.24,0.13,
5057,-0.25,0.12,
5058,-0.265,0.12,
5059,-0.285,0.095,
5060,-0.275,0.1,
5061,-0.275,0.1,
5062,-0.275,0.105,
5063,-0.255,0.11,
5064,-0.25,0.125,
5065,-0.255,0.12,
5066,-0.245,0.105,
5067,-0.24,0.105,
5068,-0.215,0.095,
5069,-0.205,0.075,
5070,-0.195,0.07,
5071,-0.2,0.085,
5072,-0.225,0.08,
5073,-0.24,0.09,
5074,-0.285,0.11,
5075,-0.295,0.12,
5076,-0.315,0.135,
5077,-0.31,0.13,
5078,-0.28,0.11,
5079,-0.265,0.1,
5080,-0.23,0.1,
5081,-0.225,0.095,
5082,-0.23,0.085,
5083,-0.25,0.085,
5084,-0.27,0.08,
5085,-0.265,0.08,
5086,-0.25,0.075,
5087,-0.24,0.1,
5088,-0.245,0.1,
5089,-0.255,0.135,
5090,-0.26,0.13,
5091,-0.285,0.125,
5092,-0.275,0.12,
5093,-0.26,0.105,
5094,-0.27,0.105,
5095,-0.265,0.095,
5096,-0.27,0.085,
5097,-0.25,0.105,
5098,-0.24,0.1,
5099,-0.225,0.1,
5100,-0.215,0.11,
5101,-0.215,0.13,
5102,-0.225,0.135,
5103,-0.24,0.14,
5104,-0.255,0.135,
5105,-0.26,0.12,
5106,-0.265,0.11,
5107,-0.27,0.105,
5108,-0.265,0.095,
5109,-0.255,0.105,
5110,-0.26,0.115,
5111,-0.27,0.12,
5112,-0.265,0.135,
5113,-0.275,0.13,
5114,-0.265,0.145,
5115,-0.26,0.14,
5116,-0.265,0.13,
5117,-0.255,0.105,
5118,-0.25,0.11,
5119,-0.245,0.08,
5120,-0.23,0.08,
5121,-0.22,0.08,
5122,-0.22,0.095,
5123,-0.225,0.12,
5124,-0.25,0.13,
5125,-0.275,0.15,
5126,-0.285,0.13,
5127,-0.285,0.125,
5128,-0.26,0.11,
5129,-0.235,0.1,
5130,-0.225,0.085,
5131,-0.23,0.095,
5132,-0.245,0.09,
5133,-0.26,0.1,
5134,-0.265,0.1,
5135,-0.26,0.1,
5136,-0.23,0.09,
5137,-0.22,0.1,
5138,-0.205,0.105,
5139,-0.215,0.1,
5140,-0.215,0.11,
5141,-0.21,0.095,
5142,-0.225,0.115,
5143,-0.24,0.11,
5144,-0.26,0.115,
5145,-0.285,0.115,
5146,-0.285,0.12,
5147,-0.27,0.11,
5148,-0.245,0.11,
5149,-0.22,0.11,
5150,-0.215,0.115,
5151,-0.225,0.11,
5152,-0.24,0.125,
5153,-0.24,0.11,
5154,-0.26,0.11,
5155,-0.26,0.085,
5156,-0.265,0.095,
5157,-0.25,0.09,
5158,-0.24,0.095,
5159,-0.245,0.105,
5160,-0.235,0.13,
5161,-0.24,0.13,
5162,-0.24,0.135,
5163,-0.245,0.12,
5164,-0.24,0.115,
5165,-0.235,0.12,
5166,-0.255,0.105,
5167,-0.26,0.105,
5168,-0.245,0.09,
5169,-0.24,0.09,
5170,-0.22,0.095,
5171,-0.22,0.105,
5172,-0.215,0.13,
5173,-0.23,0.14,
5174,-0.23,0.135,
5175,-0.245,0.13,
5176,-0.24,0.125,
5177,-0.23,0.115,
5178,-0.255,0.11,
5179,-0.26,0.11,
5180,-0.27,0.105,
5181,-0.315,0.11,
5182,-0.29,0.105,
5183,-0.265,0.105,
5184,-0.24,0.095,
5185,-0.2,0.1,
5186,-0.18,0.105,
5187,-0.175,0.105,
5188,-0.225,0.12,
5189,-0.255,0.14,
5190,-0.3,0.135,
5191,-0.32,0.115,
5192,-0.315,0.11,
5193,-0.295,0.105,
5194,-0.275,0.105,
5195,-0.245,0.105,
5196,-0.23,0.095,
5197,-0.215,0.095,
5198,-0.19,0.09,
5199,-0.175,0.085,
5200,-0.185,0.095,
5201,-0.205,0.095,
5202,-0.235,0.105,
5203,-0.26,0.095,
5204,-0.27,0.105,
5205,-0.27,0.11,
5206,-0.29,0.125,
5207,-0.295,0.13,
5208,-0.305,0.135,
5209,-0.295,0.145,
5210,-0.27,0.125,
5211,-0.245,0.105,
5212,-0.235,0.085,
5213,-0.215,0.075,
5214,-0.21,0.065,
5215,-0.21,0.06,
5216,-0.22,0.06,
5217,-0.22,0.07,
5218,-0.21,0.08,
5219,-0.205,0.105,
5220,-0.23,0.11,
5221,-0.265,0.155,
5222,-0.28,0.15,
5223,-0.315,0.15,
5224,-0.31,0.135,
5225,-0.295,0.115,
5226,-0.28,0.085,
5227,-0.26,0.07,
5228,-0.245,0.065,
5229,-0.25,0.07,
5230,-0.245,0.085,
5231,-0.24,0.085,
5232,-0.235,0.085,
5233,-0.21,0.085,
5234,-0.19,0.075,
5235,-0.185,0.08,
5236,-0.185,0.09,
5237,-0.22,0.09,
5238,-0.265,0.095,
5239,-0.295,0.105,
5240,-0.295,0.095,
5241,-0.29,0.085,
5242,-0.28,0.095,
5243,-0.275,0.09,
5244,-0.275,0.105,
5245,-0.245,0.1,
5246,-0.23,0.085,
5247,-0.215,0.085,
5248,-0.195,0.07,
5249,-0.19,0.08,
5250,-0.205,0.09,
5251,-0.235,0.09,
5252,-0.265,0.1,
5253,-0.28,0.11,
5254,-0.265,0.115,
5255,-0.27,0.105,
5256,-0.255,0.1,
5257,-0.24,0.105,
5258,-0.215,0.105,
5259,-0.21,0.1,
5260,-0.22,0.1,
5261,-0.215,0.11,
5262,-0.205,0.105,
5263,-0.205,0.105,
5264,-0.19,0.095,
5265,-0.185,0.1,
5266,-0.17,0.115,
5267,-0.16,0.125,
5268,-0.16,0.13,
5269,-0.15,0.14,
5270,-0.15,0.155,
5271,-0.16,0.14,
5272,-0.17,0.125,
5273,-0.185,0.1,
5274,-0.17,0.09,
5275,-0.175,0.075,
5276,-0.165,0.07,
5277,-0.17,0.07,
5278,-0.185,0.065,
5279,-0.195,0.075,
5280,-0.195,0.075,
5281,-0.19,0.08,
5282,-0.17,0.075,
5283,-0.16,0.08,
5284,-0.165,0.07,
5285,-0.185,0.08,
5286,-0.22,0.07,
5287,-0.235,0.055,
5288,-0.24,0.06,
5289,-0.225,0.065,
5290,-0.235,0.06,
5291,-0.23,0.08,
5292,-0.24,0.1,
5293,-0.24,0.12,
5294,-0.235,0.135,
5295,-0.245,0.11,
5296,-0.24,0.11,
5297,-0.24,0.095,
5298,-0.245,0.1,
5299,-0.25,0.08,
5300,-0.255,0.085,
5301,-0.255,0.08,
5302,-0.275,0.08,
5303,-0.255,0.105,
5304,-0.24,0.1,
5305,-0.23,0.12,
5306,-0.22,0.105,
5307,-0.21,0.095,
5308,-0.21,0.11,
5309,-0.22,0.1,
5310,-0.22,0.09,
5311,-0.24,0.09,
5312,-0.25,0.095,
5313,-0.27,0.105,
5314,-0.285,0.1,
5315,-0.27,0.115,
5316,-0.275,0.11,
5317,-0.265,0.12,
5318,-0.245,0.105,
5319,-0.23,0.105,
5320,-0.225,0.11,
5321,-0.225,0.1,
5322,-0.25,0.105,
5323,-0.265,0.11,
5324,-0.27,0.105,
5325,-0.29,0.115,
5326,-0.275,0.105,
5327,-0.275,0.115,
5328,-0.255,0.12,
5329,-0.205,0.125,
5330,-0.185,0.13,
5331,-0.165,0.14,
5332,-0.145,0.15,
5333,-0.12,0.15,
5334,-0.105,0.15,
5335,-0.11,0.125,
5336,-0.125,0.09,
5337,-0.125,0.025,
5338,-0.095,-0.06,
5339,-0.06,-0.155,
5340,0.005,-0.265,
5341,0.08,-0.37,R
5342,0.17,-0.47,
5343,0.22,-0.535,
5344,0.185,-0.575,
5345,0.075,-0.565,
5346,-0.115,-0.49,
5347,-0.305,-0.35,
5348,-0.45,-0.18,
5349,-0.525,0.03,
5350,-0.535,0.205,
5351,-0.53,0.35,
5352,-0.49,0.45,
5353,-0.47,0.495,
5354,-0.455,0.505,
5355,-0.445,0.505,
5356,-0.45,0.485,
5357,-0.465,0.495,
5358,-0.47,0.49,
5359,-0.485,0.52,
5360,-0.495,0.535,
5361,-0.47,0.57,
5362,-0.445,0.6,
5363,-0.405,0.625,
5364,-0.38,0.665,
5365,-0.375,0.685,
5366,-0.395,0.71,
5367,-0.42,0.71,
5368,-0.455,0.7,
5369,-0.46,0.675,
5370,-0.46,0.635,
5371,-0.45,0.59,
5372,-0.435,0.52,
5373,-0.405,0.445,
5374,-0.39,0.4,
5375,-0.365,0.33,
5376,-0.335,0.28,
5377,-0.32,0.22,
5378,-0.3,0.175,
5379,-0.29,0.13,
5380,-0.27,0.1,
5381,-0.245,0.075,
5382,-0.235,0.06,
5383,-0.225,0.065,
5384,-0.225,0.05,
5385,-0.24,0.06,
5386,-0.245,0.055,
5387,-0.23,0.055,
5388,-0.21,0.065,
5389,-0.2,0.08,
5390,-0.22,0.085,
5391,-0.255,0.085,
5392,-0.255,0.07,
5393,-0.25,0.065,
5394,-0.24,0.05,
5395,-0.245,0.035,
5396,-0.235,0.045,
5397,-0.235,0.04,
5398,-0.235,0.04,
5399,-0.21,0.04,
5400,-0.215,0.04,
5401,-0.195,0.04,
5402,-0.195,0.045,
5403,-0.195,0.055,
5404,-0.2,0.05,
5405,-0.225,0.05,
5406,-0.235,0.045,
5407,-0.245,0.05,
5408,-0.265,0.015,
5409,-0.25,0.01,
5410,-0.235,-0.005,
5411,-0.2,0.0,
5412,-0.175,0.005,
5413,-0.17,0.035,
5414,-0.185,0.04,
5415,-0.195,0.035,
5416,-0.21,0.025,
5417,-0.195,0.01,
5418,-0.185,-0.015,
5419,-0.17,-0.02,
5420,-0.175,-0.015,
5421,-0.185,0.005,
5422,-0.2,-0.005,
5423,-0.21,-0.015,
5424,-0.21,-0.02,
5425,-0.175,-0.025,
5426,-0.155,-0.03,
5427,-0.13,-0.035,
5428,-0.13,-0.05,
5429,-0.14,-0.07,
5430,-0.15,-0.085,
5431,-0.15,-0.095,
5432,-0.14,-0.095,
5433,-0.135,-0.11,
5434,-0.115,-0.11,
5435,-0.115,-0.115,
5436,-0.115,-0.11,
5437,-0.11,-0.12,
5438,-0.105,-0.125,
5439,-0.1,-0.13,
5440,-0.1,-0.15,
5441,-0.08,-0.16,
5442,-0.085,-0.165,
5443,-0.085,-0.16,
5444,-0.085,-0.175,
5445,-0.08,-0.185,
5446,-0.08,-0.19,
5447,-0.07,-0.185,
5448,-0.06,-0.185,
5449,-0.055,-0.18,
5450,-0.05,-0.165,
5451,-0.055,-0.17,
5452,-0.055,-0.17,
5453,-0.065,-0.165,
5454,-0.06,-0.18,
5455,-0.035,-0.17,
5456,-0.04,-0.185,
5457,-0.045,-0.165,
5458,-0.055,-0.16,
5459,-0.065,-0.13,
5460,-0.06,-0.125,
5461,-0.05,-0.1,
5462,-0.04,-0.095,
5463,-0.035,-0.1,
5464,-0.025,-0.075,
5465,-0.03,-0.065,
5466,-0.045,-0.045,
5467,-0.06,-0.03,
5468,-0.085,-0.015,
5469,-0.11,0.015,
5470,-0.135,0.025,
5471,-0.15,0.04,
5472,-0.155,0.065,
5473,-0.15,0.08,
5474,-0.13,0.085,
5475,-0.125,0.08,
5476,-0.115,0.085,
5477,-0.12,0.075,
5478,-0.13,0.07,
5479,-0.135,0.07,
5480,-0.155,0.08,
5481,-0.165,0.08,
5482,-0.18,0.08,
5483,-0.18,0.075,
5484,-0.185,0.11,
5485,-0.195,0.12,
5486,-0.21,0.125,
5487,-0.24,0.12,
5488,-0.24,0.11,
5489,-0.235,0.095,
5490,-0.24,0.075,
5491,-0.245,0.055,
5492,-0.25,0.055,
5493,-0.255,0.06,
5494,-0.25,0.06,
5495,-0.25,0.065,
5496,-0.22,0.065,
5497,-0.19,0.065,
5498,-0.175,0.065,
5499,-0.185,0.08,
5500,-0.2,0.065,
5501,-0.21,0.07,
5502,-0.23,0.055,
5503,-0.225,0.045,
5504,-0.21,0.04,
5505,-0.17,0.025,
5506,-0.13,0.035,
5507,-0.11,0.055,
5508,-0.105,0.09,
5509,-0.145,0.12,
5510,-0.18,0.14,
5511,-0.215,0.12,
5512,-0.245,0.115,
5513,-0.24,0.095,
5514,-0.21,0.07,
5515,-0.185,0.065,
5516,-0.16,0.05,
5517,-0.145,0.065,
5518,-0.135,0.085,
5519,-0.14,0.09,
5520,-0.15,0.095,
5521,-0.16,0.105,
5522,-0.16,0.115,
5523,-0.175,0.11,
5524,-0.175,0.1,
5525,-0.185,0.1,
5526,-0.175,0.105,
5527,-0.165,0.11,
5528,-0.15,0.105,
5529,-0.145,0.12,
5530,-0.145,0.13,
5531,-0.13,0.155,
5532,-0.13,0.16,
5533,-0.135,0.165,
5534,-0.12,0.175,
5535,-0.12,0.17,
5536,-0.135,0.155,
5537,-0.14,0.145,
5538,-0.14,0.12,
5539,-0.16,0.125,
5540,-0.15,0.115,
5541,-0.135,0.125,
5542,-0.13,0.12,
5543,-0.13,0.135,
5544,-0.13,0.135,
5545,-0.13,0.15,
5546,-0.13,0.145,
5547,-0.115,0.135,
5548,-0.085,0.135,
5549,-0.075,0.135,
5550,-0.09,0.115,
5551,-0.11,0.145,
5552,-0.13,0.14,
5553,-0.16,0.15,
5554,-0.18,0.155,
5555,-0.16,0.135,
5556,-0.135,0.135,
5557,-0.105,0.135,
5558,-0.095,0.13,
5559,-0.105,0.12,
5560,-0.12,0.125,
5561,-0.125,0.135,
5562,-0.13,0.13,
5563,-0.14,0.13,
5564,-0.16,0.125,
5565,-0.175,0.125,
5566,-0.145,0.12,
5567,-0.13,0.12,
5568,-0.105,0.13,
5569,-0.11,0.15,
5570,-0.125,0.15,
5571,-0.14,0.16,
5572,-0.135,0.17,
5573,-0.11,0.165,
5574,-0.085,0.165,
5575,-0.07,0.17,
5576,-0.08,0.18,
5577,-0.095,0.195,
5578,-0.095,0.18,
5579,-0.1,0.13,
5580,-0.065,0.05,
5581,0.005,-0.065,
5582,0.095,-0.185,
5583,0.18,-0.295,
5584,0.24,-0.375,A
5585,0.315,-0.465,
5586,0.32,-0.5,
5587,0.26,-0.505,
5588,0.115,-0.47,
5589,-0.075,-0.375,
5590,-0.25,-0.24,
5591,-0.385,-0.075,
5592,-0.435,0.11,
5593,-0.415,0.26,
5594,-0.35,0.375,
5595,-0.29,0.445,
5596,-0.255,0.465,
5597,-0.245,0.48,
5598,-0.26,0.465,
5599,-0.295,0.45,
5600,-0.36,0.465,
5601,-0.4,0.48,
5602,-0.43,0.51,
5603,-0.4,0.535,
5604,-0.35,0.57,
5605,-0.275,0.585,
5606,-0.215,0.605,
5607,-0.205,0.625,
5608,-0.215,0.625,
5609,-0.25,0.635,
5610,-0.27,0.635,
5611,-0.325,0.615,
5612,-0.355,0.585,
5613,-0.385,0.56,
5614,-0.37,0.505,
5615,-0.35,0.46,
5616,-0.295,0.39,
5617,-0.255,0.32,
5618,-0.21,0.26,
5619,-0.18,0.205,
5620,-0.165,0.15,
5621,-0.16,0.11,
5622,-0.145,0.055,
5623,-0.13,0.05,
5624,-0.095,0.02,
5625,-0.085,0.03,
5626,-0.08,0.035,
5627,-0.075,0.06,
5628,-0.105,0.075,
5629,-0.135,0.095,
5630,-0.15,0.11,
5631,-0.17,0.09,
5632,-0.17,0.07,
5633,-0.155,0.05,
5634,-0.115,0.03,
5635,-0.085,0.02,
5636,-0.065,0.01,
5637,-0.08,0.03,
5638,-0.105,0.03,
5639,-0.13,0.05,
5640,-0.14,0.06,
5641,-0.15,0.045,
5642,-0.135,0.055,
5643,-0.125,0.04,
5644,-0.105,0.02,
5645,-0.08,-0.005,
5646,-0.08,-0.02,
5647,-0.075,-0.015,
5648,-0.085,-0.015,
5649,-0.1,-0.01,
5650,-0.1,-0.015,
5651,-0.105,-0.01,
5652,-0.085,-0.01,
5653,-0.08,-0.005,
5654,-0.06,-0.01,
5655,-0.055,-0.005,
5656,-0.06,-0.03,
5657,-0.055,-0.04,
5658,-0.085,-0.04,
5659,-0.08,-0.045,
5660,-0.075,-0.06,
5661,-0.085,-0.045,
5662,-0.065,-0.045,
5663,-0.07,-0.045,
5664,-0.07,-0.03,
5665,-0.075,-0.045,
5666,-0.06,-0.045,
5667,-0.045,-0.055,
5668,-0.04,-0.055,
5669,-0.02,-0.08,
5670,-0.025,-0.1,
5671,-0.02,-0.105,
5672,-0.02,-0.115,
5673,-0.025,-0.135,
5674,-0.005,-0.135,
5675,0.015,-0.13,
5676,0.02,-0.135,
5677,0.03,-0.145,
5678,0.045,-0.145,
5679,0.05,-0.155,
5680,0.055,-0.16,
5681,0.05,-0.18,
5682,0.055,-0.2,
5683,0.05,-0.215,
5684,0.06,-0.215,
5685,0.09,-0.225,
5686,0.1,-0.215,
5687,0.105,-0.2,
5688,0.08,-0.19,
5689,0.075,-0.185,
5690,0.065,-0.2,
5691,0.09,-0.205,
5692,0.11,-0.22,
5693,0.105,-0.235,
5694,0.115,-0.235,
5695,0.115,-0.23,
5696,0.105,-0.215,
5697,0.1,-0.205,
5698,0.085,-0.19,
5699,0.075,-0.17,
5700,0.075,-0.15,
5701,0.08,-0.13,
5702,0.08,-0.105,
5703,0.07,-0.095,
5704,0.055,-0.085,
5705,0.05,-0.08,
5706,0.045,-0.09,
5707,0.045,-0.085,
5708,0.02,-0.07,
5709,0.01,-0.035,
5710,0.005,-0.015,
5711,-0.015,0.005,
5712,-0.04,0.03,
5713,-0.05,0.05,
5714,-0.06,0.05,
5715,-0.065,0.05,
5716,-0.07,0.045,
5717,-0.07,0.045,
5718,-0.075,0.04,
5719,-0.085,0.045,
5720,-0.085,0.045,
5721,-0.09,0.045,
5722,-0.08,0.06,
5723,-0.08,0.09,
5724,-0.095,0.115,
5725,-0.11,0.12,
5726,-0.12,0.115,
5727,-0.13,0.105,
5728,-0.115,0.095,
5729,-0.105,0.095,
5730,-0.11,0.075,
5731,-0.13,0.08,
5732,-0.155,0.095,
5733,-0.19,0.11,
5734,-0.2,0.095,
5735,-0.205,0.12,
5736,-0.19,0.115,
5737,-0.18,0.11,
5738,-0.16,0.11,
5739,-0.15,0.11,
5740,-0.13,0.11,
5741,-0.125,0.095,
5742,-0.13,0.09,
5743,-0.14,0.07,
5744,-0.145,0.075,
5745,-0.15,0.07,
5746,-0.15,0.065,
5747,-0.145,0.095,
5748,-0.13,0.075,
5749,-0.105,0.08,
5750,-0.09,0.085,
5751,-0.095,0.08,
5752,-0.13,0.09,
5753,-0.14,0.085,
5754,-0.17,0.085,
5755,-0.195,0.08,
5756,-0.18,0.075,
5757,-0.16,0.05,
5758,-0.12,0.05,
5759,-0.105,0.08,
5760,-0.135,0.08,
5761,-0.14,0.09,
5762,-0.165,0.085,
5763,-0.185,0.085,
5764,-0.2,0.07,
5765,-0.2,0.05,
5766,-0.2,0.025,
5767,-0.215,0.02,
5768,-0.22,0.005,
5769,-0.215,0.02,
5770,-0.21,0.025,
5771,-0.215,0.04,
5772,-0.19,0.04,
5773,-0.175,0.055,
5774,-0.165,0.06,
5775,-0.18,0.055,
5776,-0.18,0.045,
5777,-0.195,0.04,
5778,-0.19,0.045,
5779,-0.185,0.03,
5780,-0.18,0.035,
5781,-0.15,0.045,
5782,-0.115,0.03,
5783,-0.095,0.04,
5784,-0.09,0.065,
5785,-0.1,0.07,
5786,-0.135,0.095,
5787,-0.165,0.095,
5788,-0.185,0.075,
5789,-0.19,0.055,
5790,-0.17,0.045,
5791,-0.16,0.015,
5792,-0.15,0.025,
5793,-0.14,0.025,
5794,-0.15,0.035,
5795,-0.17,0.04,
5796,-0.17,0.04,
5797,-0.17,0.055,
5798,-0.17,0.055,
5799,-0.175,0.07,
5800,-0.18,0.08,
5801,-0.215,0.095,
5802,-0.235,0.1,
5803,-0.245,0.09,
5804,-0.215,0.075,
5805,-0.19,0.08,
5806,-0.165,0.08,
5807,-0.15,0.09,
5808,-0.125,0.095,
5809,-0.12,0.1,
5810,-0.135,0.125,
5811,-0.17,0.14,
5812,-0.205,0.14,
5813,-0.23,0.13,
5814,-0.255,0.135,
5815,-0.245,0.11,
5816,-0.225,0.105,
5817,-0.2,0.1,
5818,-0.185,0.095,
5819,-0.16,0.09,
5820,-0.15,0.1,
5821,-0.13,0.1,
5822,-0.105,0.095,
5823,-0.09,0.1,
5824,-0.105,0.11,
5825,-0.145,0.105,
5826,-0.19,0.12,
5827,-0.255,0.14,
5828,-0.27,0.13,
5829,-0.28,0.125,
5830,-0.28,0.115,
5831,-0.25,0.125,
5832,-0.21,0.125,
5833,-0.18,0.115,
5834,-0.16,0.12,
5835,-0.135,0.09,
5836,-0.11,0.065,
5837,-0.07,0.05,
5838,-0.06,0.045,
5839,-0.08,0.065,
5840,-0.12,0.105,
5841,-0.18,0.14,
5842,-0.25,0.165,
5843,-0.275,0.195,
5844,-0.27,0.2,
5845,-0.235,0.195,
5846,-0.2,0.2,
5847,-0.145,0.18,
5848,-0.11,0.18,
5849,-0.075,0.165,
5850,-0.035,0.12,
5851,-0.005,0.055,
5852,0.06,-0.015,
5853,0.13,-0.135,
5854,0.21,-0.23,
5855,0.3,-0.33,A
5856,0.38,-0.41,
5857,0.405,-0.47,
5858,0.345,-0.475,
5859,0.155,-0.45,
5860,-0.105,-0.38,
5861,-0.33,-0.26,
5862,-0.49,-0.125,
5863,-0.555,0.04,
5864,-0.565,0.22,
5865,-0.535,0.36,
5866,-0.485,0.435,
5867,-0.44,0.47,
5868,-0.4,0.47,
5869,-0.345,0.48,
5870,-0.32,0.46,
5871,-0.33,0.46,
5872,-0.36,0.48,
5873,-0.405,0.5,
5874,-0.455,0.545,
5875,-0.475,0.56,
5876,-0.46,0.575,
5877,-0.43,0.6,
5878,-0.39,0.615,
5879,-0.355,0.625,
5880,-0.34,0.635,
5881,-0.355,0.635,
5882,-0.37,0.65,
5883,-0.39,0.615,
5884,-0.395,0.595,
5885,-0.41,0.545,
5886,-0.4,0.495,
5887,-0.385,0.42,
5888,-0.375,0.35,
5889,-0.35,0.285,
5890,-0.31,0.225,
5891,-0.27,0.165,
5892,-0.23,0.115,
5893,-0.215,0.1,
5894,-0.185,0.065,
5895,-0.17,0.04,
5896,-0.145,0.03,
5897,-0.145,0.02,
5898,-0.16,0.03,
5899,-0.19,0.035,
5900,-0.24,0.05,
5901,-0.255,0.05,
5902,-0.26,0.055,
5903,-0.245,0.05,
5904,-0.215,0.05,
5905,-0.19,0.055,
5906,-0.155,0.035,
5907,-0.155,0.035,
5908,-0.145,0.025,
5909,-0.18,0.02,
5910,-0.19,0.03,
5911,-0.21,0.045,
5912,-0.225,0.045,
5913,-0.23,0.025,
5914,-0.22,0.04,
5915,-0.215,0.045,
5916,-0.2,0.04,
5917,-0.185,0.02,
5918,-0.165,0.025,
5919,-0.16,0.025,
5920,-0.155,0.02,
5921,-0.175,0.015,
5922,-0.185,0.005,
5923,-0.195,0.005,
5924,-0.21,0.0,
5925,-0.19,-0.005,
5926,-0.17,0.005,
5927,-0.175,0.01,
5928,-0.175,0.02,
5929,-0.18,0.025,
5930,-0.17,0.025,
5931,-0.145,0.01,
5932,-0.135,-0.015,
5933,-0.095,-0.05,
5934,-0.06,-0.075,
5935,-0.055,-0.075,
5936,-0.08,-0.045,
5937,-0.12,-0.03,
5938,-0.165,-0.02,
5939,-0.2,-0.015,
5940,-0.22,-0.03,
5941,-0.205,-0.025,
5942,-0.18,-0.055,
5943,-0.155,-0.065,
5944,-0.115,-0.095,
5945,-0.09,-0.13,
5946,-0.055,-0.13,
5947,-0.05,-0.17,
5948,-0.025,-0.19,
5949,-0.005,-0.19,
5950,0.01,-0.175,
5951,0.015,-0.165,
5952,-0.02,-0.14,
5953,-0.05,-0.13,
5954,-0.06,-0.14,
5955,-0.065,-0.155,
5956,-0.045,-0.175,
5957,-0.02,-0.205,
5958,0.0,-0.23,
5959,0.03,-0.235,
5960,0.03,-0.225,
5961,0.02,-0.215,
5962,0.005,-0.205,
5963,0.005,-0.195,
5964,0.005,-0.17,
5965,0.015,-0.17,
5966,0.03,-0.16,
5967,0.045,-0.15,
5968,0.045,-0.145,
5969,0.025,-0.145,
5970,-0.005,-0.125,
5971,-0.045,-0.115,
5972,-0.06,-0.09,
5973,-0.075,-0.06,
5974,-0.075,-0.04,
5975,-0.07,-0.02,
5976,-0.085,-0.005,
5977,-0.09,0.01,
5978,-0.08,0.015,
5979,-0.07,0.02,
5980,-0.065,0.05,
5981,-0.08,0.065,
5982,-0.105,0.065,
5983,-0.14,0.07,
5984,-0.16,0.075,
5985,-0.17,0.08,
5986,-0.185,0.095,
5987,-0.18,0.115,
5988,-0.17,0.115,
5989,-0.165,0.105,
5990,-0.165,0.11,
5991,-0.17,0.095,
5992,-0.19,0.115,
5993,-0.18,0.095,
5994,-0.195,0.11,
5995,-0.205,0.095,
5996,-0.205,0.09,
5997,-0.215,0.085,
5998,-0.205,0.085,
5999,-0.19,0.085,
6000,-0.165,0.1,
6001,-0.155,0.095,
6002,-0.145,0.115,
6003,-0.165,0.12,
6004,-0.185,0.12,
6005,-0.2,0.12,
6006,-0.215,0.115,
6007,-0.23,0.105,
6008,-0.22,0.105,
6009,-0.225,0.105,
6010,-0.215,0.095,
6011,-0.225,0.11,
6012,-0.215,0.115,
6013,-0.22,0.125,
6014,-0.215,0.135,
6015,-0.21,0.125,
6016,-0.2,0.12,
6017,-0.195,0.09,
6018,-0.19,0.095,
6019,-0.185,0.075,
6020,-0.175,0.075,
6021,-0.17,0.08,
6022,-0.16,0.085,
6023,-0.155,0.09,
6024,-0.16,0.1,
6025,-0.165,0.11,
6026,-0.175,0.12,
6027,-0.175,0.12,
6028,-0.175,0.095,
6029,-0.17,0.08,
6030,-0.165,0.07,
6031,-0.155,0.065,
6032,-0.155,0.07,
6033,-0.175,0.085,
6034,-0.18,0.09,
6035,-0.195,0.11,
6036,-0.205,0.1,
6037,-0.19,0.095,
6038,-0.17,0.11,
6039,-0.15,0.095,
6040,-0.15,0.095,
6041,-0.15,0.085,
6042,-0.15,0.075,
6043,-0.175,0.075,
6044,-0.2,0.1,
6045,-0.225,0.095,
6046,-0.24,0.095,
6047,-0.23,0.11,
6048,-0.22,0.105,
6049,-0.205,0.115,
6050,-0.205,0.11,
6051,-0.195,0.095,
6052,-0.175,0.08,
6053,-0.16,0.07,
6054,-0.16,0.055,
6055,-0.165,0.06,
6056,-0.175,0.075,
6057,-0.19,0.075,
6058,-0.205,0.08,
6059,-0.195,0.08,
6060,-0.2,0.095,
6061,-0.195,0.115,
6062,-0.19,0.11,
6063,-0.205,0.115,
6064,-0.205,0.11,
6065,-0.21,0.095,
6066,-0.225,0.085,
6067,-0.235,0.07,
6068,-0.23,0.07,
6069,-0.23,0.075,
6070,-0.22,0.085,
6071,-0.205,0.095,
6072,-0.2,0.095,
6073,-0.2,0.11,
6074,-0.205,0.12,
6075,-0.215,0.125,
6076,-0.225,0.12,
6077,-0.215,0.105,
6078,-0.225,0.085,
6079,-0.205,0.08,
6080,-0.175,0.055,
6081,-0.16,0.06,
6082,-0.15,0.065,
6083,-0.155,0.09,
6084,-0.19,0.11,
6085,-0.23,0.12,
6086,-0.24,0.13,
6087,-0.25,0.115,
6088,-0.235,0.1,
6089,-0.2,0.09,
6090,-0.17,0.09,
6091,-0.175,0.085,
6092,-0.195,0.09,
6093,-0.22,0.1,
6094,-0.235,0.115,
6095,-0.24,0.105,
6096,-0.22,0.105,
6097,-0.215,0.1,
6098,-0.185,0.1,
6099,-0.18,0.11,
6100,-0.18,0.095,
6101,-0.19,0.115,
6102,-0.21,0.095,
6103,-0.215,0.085,
6104,-0.22,0.08,
6105,-0.225,0.075,
6106,-0.225,0.095,
6107,-0.23,0.105,
6108,-0.22,0.1,
6109,-0.22,0.105,
6110,-0.195,0.105,
6111,-0.195,0.095,
6112,-0.185,0.09,
6113,-0.17,0.08,
6114,-0.16,0.065,
6115,-0.16,0.075,
6116,-0.19,0.085,
6117,-0.215,0.105,
6118,-0.225,0.1,
6119,-0.225,0.09,
6120,-0.21,0.105,
6121,-0.21,0.105,
6122,-0.2,0.115,
6123,-0.225,0.12,
6124,-0.23,0.11,
6125,-0.24,0.1,
6126,-0.24,0.095,
6127,-0.24,0.08,
6128,-0.225,0.05,
6129,-0.215,0.065,
6130,-0.195,0.05,
6131,-0.175,0.07,
6132,-0.16,0.075,
6133,-0.17,0.11,
6134,-0.18,0.125,
6135,-0.2,0.12,
6136,-0.22,0.105,
6137,-0.21,0.095,
6138,-0.22,0.075,
6139,-0.245,0.075,
6140,-0.24,0.075,
6141,-0.245,0.08,
6142,-0.235,0.09,
6143,-0.22,0.1,
6144,-0.225,0.115,
6145,-0.23,0.115,
6146,-0.225,0.105,
6147,-0.215,0.1,
6148,-0.2,0.105,
6149,-0.195,0.095,
6150,-0.195,0.09,
6151,-0.205,0.085,
6152,-0.215,0.08,
6153,-0.22,0.065,
6154,-0.21,0.075,
6155,-0.21,0.085,
6156,-0.21,0.1,
6157,-0.2,0.1,
6158,-0.205,0.095,
6159,-0.21,0.09,
6160,-0.22,0.105,
6161,-0.205,0.1,
6162,-0.215,0.1,
6163,-0.22,0.075,
6164,-0.215,0.075,
6165,-0.215,0.075,
6166,-0.195,0.09,
6167,-0.2,0.1,
6168,-0.21,0.115,
6169,-0.21,0.125,
6170,-0.22,0.115,
6171,-0.225,0.105,
6172,-0.21,0.105,
6173,-0.195,0.085,
6174,-0.19,0.08,
6175,-0.185,0.065,
6176,-0.175,0.055,
6177,-0.195,0.07,
6178,-0.2,0.07,
6179,-0.21,0.095,
6180,-0.22,0.11,
6181,-0.235,0.115,
6182,-0.23,0.11,
6183,-0.22,0.105,
6184,-0.205,0.1,
6185,-0.195,0.1,
6186,-0.19,0.09,
6187,-0.19,0.07,
6188,-0.2,0.065,
6189,-0.195,0.065,
6190,-0.195,0.07,
6191,-0.19,0.075,
6192,-0.175,0.095,
6193,-0.185,0.105,
6194,-0.21,0.115,
6195,-0.23,0.11,
6196,-0.245,0.115,
6197,-0.255,0.1,
6198,-0.24,0.085,
6199,-0.24,0.07,
6200,-0.22,0.065,
6201,-0.2,0.07,
6202,-0.195,0.085,
6203,-0.205,0.11,
6204,-0.215,0.11,
6205,-0.225,0.11,
6206,-0.22,0.11,
6207,-0.205,0.09,
6208,-0.2,0.085,
6209,-0.205,0.075,
6210,-0.205,0.085,
6211,-0.205,0.07,
6212,-0.215,0.06,
6213,-0.21,0.055,
6214,-0.215,0.08,
6215,-0.235,0.08,
6216,-0.25,0.1,
6217,-0.245,0.11,
6218,-0.235,0.1,
6219,-0.225,0.085,
6220,-0.2,0.08,
6221,-0.175,0.055,
6222,-0.17,0.055,
6223,-0.165,0.045,
6224,-0.19,0.06,
6225,-0.195,0.075,
6226,-0.215,0.075,
6227,-0.215,0.09,
6228,-0.2,0.08,
6229,-0.185,0.08,
6230,-0.185,0.085,
6231,-0.2,0.085,
6232,-0.21,0.085,
6233,-0.245,0.095,
6234,-0.275,0.09,
6235,-0.29,0.09,
6236,-0.29,0.06,
6237,-0.26,0.06,
6238,-0.24,0.055,
6239,-0.22,0.055,
6240,-0.195,0.06,
6241,-0.18,0.085,
6242,-0.185,0.105,
6243,-0.21,0.1,
6244,-0.225,0.11,
6245,-0.235,0.095,
6246,-0.24,0.065,
6247,-0.24,0.055,
6248,-0.22,0.045,
6249,-0.22,0.045,
6250,-0.215,0.055,
6251,-0.215,0.085,
6252,-0.23,0.095,
6253,-0.235,0.1,
6254,-0.215,0.095,
6255,-0.215,0.075,
6256,-0.195,0.065,
6257,-0.195,0.055,
6258,-0.2,0.05,
6259,-0.205,0.065,
6260,-0.22,0.065,
6261,-0.24,0.055,
6262,-0.225,0.055,
6263,-0.21,0.06,
6264,-0.21,0.08,
6265,-0.225,0.085,
6266,-0.215,0.075,
6267,-0.215,0.06,
6268,-0.205,0.05,
6269,-0.195,0.06,
6270,-0.215,0.055,
6271,-0.23,0.065,
6272,-0.245,0.065,
6273,-0.245,0.08,
6274,-0.255,0.075,
6275,-0.225,0.085,
6276,-0.215,0.085,
6277,-0.205,0.09,
6278,-0.19,0.085,
6279,-0.195,0.07,
6280,-0.195,0.075,
6281,-0.21,0.075,
6282,-0.22,0.065,
6283,-0.24,0.05,
6284,-0.235,0.04,
6285,-0.225,0.045,
6286,-0.205,0.05,
6287,-0.195,0.06,
6288,-0.19,0.07,
6289,-0.195,0.08,
6290,-0.205,0.085,
6291,-0.205,0.08,
6292,-0.205,0.075,
6293,-0.2,0.08,
6294,-0.225,0.07,
6295,-0.23,0.07,
6296,-0.225,0.05,
6297,-0.22,0.045,
6298,-0.205,0.055,
6299,-0.215,0.05,
6300,-0.19,0.045,
6301,-0.195,0.075,
6302,-0.175,0.075,
6303,-0.195,0.08,
6304,-0.21,0.08,
6305,-0.225,0.075,
6306,-0.24,0.06,
6307,-0.255,0.07,
6308,-0.26,0.065,
6309,-0.25,0.07,
6310,-0.245,0.075,
6311,-0.225,0.07,
6312,-0.2,0.065,
6313,-0.195,0.07,
6314,-0.18,0.055,
6315,-0.165,0.05,
6316,-0.155,0.075,
6317,-0.17,0.075,
6318,-0.195,0.08,
6319,-0.235,0.07,
6320,-0.255,0.075,
6321,-0.27,0.08,
6322,-0.265,0.07,
6323,-0.25,0.07,
6324,-0.23,0.07,
6325,-0.22,0.07,
6326,-0.19,0.07,
6327,-0.18,0.06,
6328,-0.17,0.06,
6329,-0.155,0.065,
6330,-0.165,0.055,
6331,-0.185,0.035,
6332,-0.205,0.065,
6333,-0.225,0.06,
6334,-0.255,0.06,
6335,-0.25,0.07,
6336,-0.23,0.07,
6337,-0.2,0.065,
6338,-0.18,0.07,
6339,-0.19,0.075,
6340,-0.215,0.095,
6341,-0.245,0.075,
6342,-0.235,0.09,
6343,-0.245,0.085,
6344,-0.25,0.075,
6345,-0.25,0.07,
6346,-0.225,0.06,
6347,-0.2,0.055,
6348,-0.19,0.055,
6349,-0.17,0.065,
6350,-0.15,0.05,
6351,-0.14,0.055,
6352,-0.16,0.055,
6353,-0.18,0.065,
6354,-0.215,0.075,
6355,-0.265,0.085,
6356,-0.285,0.08,
6357,-0.28,0.07,
6358,-0.25,0.055,
6359,-0.235,0.055,
6360,-0.205,0.055,
6361,-0.19,0.07,
6362,-0.19,0.08,
6363,-0.205,0.1,
6364,-0.235,0.11,
6365,-0.26,0.105,
6366,-0.29,0.095,
6367,-0.305,0.085,
6368,-0.305,0.07,
6369,-0.28,0.065,
6370,-0.24,0.055,
6371,-0.22,0.065,
6372,-0.2,0.08,
6373,-0.19,0.085,
6374,-0.205,0.1,
6375,-0.215,0.09,
6376,-0.23,0.09,
6377,-0.25,0.085,
6378,-0.27,0.075,
6379,-0.265,0.045,
6380,-0.25,0.045,
6381,-0.215,0.035,
6382,-0.18,0.035,
6383,-0.165,0.06,
6384,-0.16,0.075,
6385,-0.165,0.08,
6386,-0.185,0.09,
6387,-0.2,0.09,
6388,-0.215,0.085,
6389,-0.225,0.09,
6390,-0.225,0.085,
6391,-0.23,0.07,
6392,-0.23,0.065,
6393,-0.23,0.07,
6394,-0.23,0.06,
6395,-0.215,0.075,
6396,-0.195,0.065,
6397,-0.185,0.075,
6398,-0.175,0.08,
6399,-0.2,0.09,
6400,-0.22,0.105,
6401,-0.24,0.11,
6402,-0.25,0.1,
6403,-0.25,0.1,
6404,-0.23,0.08,
6405,-0.215,0.075,
6406,-0.17,0.075,
6407,-0.16,0.095,
6408,-0.155,0.1,
6409,-0.155,0.115,
6410,-0.16,0.12,
6411,-0.15,0.105,
6412,-0.14,0.09,
6413,-0.135,0.085,
6414,-0.145,0.075,
6415,-0.15,0.07,
6416,-0.16,0.07,
6417,-0.18,0.065,
6418,-0.185,0.065,
6419,-0.175,0.06,
6420,-0.16,0.055,
6421,-0.15,0.05,
6422,-0.145,0.07,
6423,-0.155,0.07,
6424,-0.175,0.075,
6425,-0.205,0.065,
6426,-0.215,0.065,
6427,-0.23,0.05,
6428,-0.23,0.03,
6429,-0.22,0.025,
6430,-0.2,0.035,
6431,-0.19,0.045,
6432,-0.19,0.04,
6433,-0.185,0.06,
6434,-0.18,0.07,
6435,-0.18,0.095,
6436,-0.205,0.1,
6437,-0.215,0.115,
6438,-0.24,0.095,
6439,-0.235,0.07,
6440,-0.23,0.07,
6441,-0.22,0.055,
6442,-0.22,0.055,
6443,-0.215,0.07,
6444,-0.225,0.09,
6445,-0.225,0.09,
6446,-0.245,0.095,
6447,-0.255,0.095,
6448,-0.255,0.085,
6449,-0.25,0.08,
6450,-0.255,0.07,
6451,-0.265,0.065,
6452,-0.235,0.065,
6453,-0.23,0.085,
6454,-0.22,0.095,
6455,-0.225,0.09,
6456,-0.235,0.105,
6457,-0.245,0.1,
6458,-0.22,0.1,
6459,-0.215,0.09,
6460,-0.2,0.08,
6461,-0.215,0.085,
6462,-0.23,0.085,
6463,-0.255,0.085,
6464,-0.275,0.085,
6465,-0.285,0.085,
6466,-0.265,0.08,
6467,-0.25,0.095,
6468,-0.225,0.085,
6469,-0.2,0.095,
6470,-0.195,0.12,
6471,-0.22,0.145,
6472,-0.255,0.155,
6473,-0.27,0.165,
6474,-0.25,0.165,
6475,-0.21,0.155,
6476,-0.16,0.12,
6477,-0.115,0.09,
6478,-0.08,0.03,
6479,-0.025,-0.045,
6480,0.035,-0.15,
6481,0.12,-0.265,
6482,0.195,-0.38,R
6483,0.245,-0.475,
6484,0.235,-0.545,
6485,0.15,-0.565,
6486,-0.035,-0.525,
6487,-0.24,-0.425,
6488,-0.42,-0.265,
6489,-0.52,-0.065,
6490,-0.55,0.115,
6491,-0.525,0.28,
6492,-0.485,0.395,
6493,-0.465,0.46,
6494,-0.445,0.495,
6495,-0.445,0.495,
6496,-0.445,0.485,
6497,-0.46,0.485,
6498,-0.485,0.48,
6499,-0.5,0.5,
6500,-0.51,0.515,
6501,-0.505,0.535,
6502,-0.475,0.56,
6503,-0.445,0.585,
6504,-0.42,0.625,
6505,-0.39,0.655,
6506,-0.395,0.68,
6507,-0.405,0.685,
6508,-0.44,0.69,
6509,-0.445,0.665,
6510,-0.465,0.61,
6511,-0.465,0.57,
6512,-0.455,0.51,
6513,-0.435,0.46,
6514,-0.395,0.395,
6515,-0.38,0.335,
6516,-0.36,0.285,
6517,-0.33,0.22,
6518,-0.305,0.165,
6519,-0.265,0.105,
6520,-0.24,0.085,
6521,-0.21,0.06,
6522,-0.21,0.05,
6523,-0.21,0.06,
6524,-0.245,0.065,
6525,-0.25,0.06,
6526,-0.24,0.045,
6527,-0.22,0.055,
6528,-0.19,0.05,
6529,-0.19,0.075,
6530,-0.215,0.09,
6531,-0.25,0.09,
6532,-0.29,0.1,
6533,-0.28,0.07,
6534,-0.275,0.055,
6535,-0.265,0.045,
6536,-0.255,0.035,
6537,-0.26,0.06,
6538,-0.265,0.055,
6539,-0.27,0.06,
6540,-0.275,0.06,
6541,-0.265,0.065,
6542,-0.26,0.05,
6543,-0.255,0.06,
6544,-0.245,0.045,
6545,-0.25,0.04,
6546,-0.23,0.035,
6547,-0.23,0.03,
6548,-0.24,0.015,
6549,-0.215,0.015,
6550,-0.205,0.035,
6551,-0.21,0.025,
6552,-0.21,0.03,
6553,-0.195,0.03,
6554,-0.195,0.02,
6555,-0.22,0.015,
6556,-0.205,-0.005,
6557,-0.2,-0.02,
6558,-0.19,-0.035,
6559,-0.15,-0.04,
6560,-0.14,-0.035,
6561,-0.16,-0.01,
6562,-0.195,0.0,
6563,-0.245,0.005,
6564,-0.255,0.0,
6565,-0.23,-0.02,
6566,-0.2,-0.035,
6567,-0.17,-0.045,
6568,-0.13,-0.05,
6569,-0.125,-0.04,
6570,-0.15,-0.055,
6571,-0.16,-0.065,
6572,-0.17,-0.09,
6573,-0.18,-0.1,
6574,-0.17,-0.105,
6575,-0.145,-0.12,
6576,-0.12,-0.12,
6577,-0.1,-0.13,
6578,-0.075,-0.125,
6579,-0.095,-0.12,
6580,-0.105,-0.125,
6581,-0.115,-0.14,
6582,-0.085,-0.145,
6583,-0.07,-0.175,
6584,-0.07,-0.18,
6585,-0.08,-0.185,
6586,-0.07,-0.19,
6587,-0.07,-0.18,
6588,-0.065,-0.18,
6589,-0.065,-0.16,
6590,-0.06,-0.16,
6591,-0.055,-0.17,
6592,-0.07,-0.155,
6593,-0.075,-0.155,
6594,-0.085,-0.19,
6595,-0.075,-0.195,
6596,-0.06,-0.2,
6597,-0.055,-0.185,
6598,-0.035,-0.175,
6599,-0.04,-0.145,
6600,-0.05,-0.13,
6601,-0.07,-0.115,
6602,-0.045,-0.14,
6603,-0.04,-0.12,
6604,-0.03,-0.08,
6605,-0.05,-0.065,
6606,-0.07,-0.065,
6607,-0.095,-0.055,
6608,-0.115,-0.045,
6609,-0.105,-0.04,
6610,-0.095,-0.01,
6611,-0.12,0.01,
6612,-0.145,0.02,
6613,-0.16,0.03,
6614,-0.15,0.035,
6615,-0.145,0.045,
6616,-0.16,0.06,
6617,-0.16,0.08,
6618,-0.17,0.09,
6619,-0.185,0.065,
6620,-0.185,0.065,
6621,-0.19,0.075,
6622,-0.2,0.08,
6623,-0.22,0.1,
6624,-0.23,0.1,
6625,-0.24,0.11,
6626,-0.235,0.105,
6627,-0.26,0.115,
6628,-0.3,0.11,
6629,-0.33,0.09,
6630,-0.345,0.07,
6631,-0.355,0.045,
6632,-0.345,0.04,
6633,-0.315,0.035,
6634,-0.285,0.03,
6635,-0.265,0.045,
6636,-0.25,0.045,
6637,-0.25,0.06,
6638,-0.255,0.065,
6639,-0.25,0.075,
6640,-0.255,0.08,
6641,-0.255,0.06,
6642,-0.275,0.055,
6643,-0.275,0.05,
6644,-0.275,0.04,
6645,-0.26,0.04,
6646,-0.235,0.05,
6647,-0.22,0.065,
6648,-0.22,0.08,
6649,-0.215,0.09,
6650,-0.22,0.1,
6651,-0.225,0.115,
6652,-0.245,0.1,
6653,-0.235,0.095,
6654,-0.26,0.075,
6655,-0.265,0.07,
6656,-0.28,0.075,
6657,-0.27,0.07,
6658,-0.26,0.07,
6659,-0.23,0.075,
6660,-0.215,0.07,
6661,-0.21,0.075,
6662,-0.21,0.065,
6663,-0.215,0.085,
6664,-0.24,0.08,
6665,-0.245,0.085,
6666,-0.265,0.075,
6667,-0.26,0.07,
6668,-0.25,0.065,
6669,-0.225,0.065,
6670,-0.205,0.075,
6671,-0.2,0.095,
6672,-0.2,0.13,
6673,-0.22,0.155,
6674,-0.23,0.165,
6675,-0.24,0.145,
6676,-0.235,0.135,
6677,-0.225,0.115,
6678,-0.22,0.09,
6679,-0.2,0.08,
6680,-0.19,0.085,
6681,-0.2,0.1,
6682,-0.215,0.11,
6683,-0.245,0.13,
6684,-0.265,0.135,
6685,-0.26,0.14,
6686,-0.245,0.12,
6687,-0.215,0.11,
6688,-0.185,0.095,
6689,-0.175,0.105,
6690,-0.205,0.12,
6691,-0.235,0.13,
6692,-0.285,0.155,
6693,-0.295,0.15,
6694,-0.3,0.155,
6695,-0.285,0.145,
6696,-0.265,0.145,
6697,-0.245,0.125,
6698,-0.225,0.135,
6699,-0.22,0.135,
6700,-0.225,0.13,
6701,-0.225,0.125,
6702,-0.255,0.13,
6703,-0.26,0.105,
6704,-0.26,0.115,
6705,-0.25,0.1,
6706,-0.235,0.095,
6707,-0.21,0.095,
6708,-0.205,0.12,
6709,-0.2,0.13,
6710,-0.195,0.14,
6711,-0.195,0.165,
6712,-0.195,0.195,
6713,-0.205,0.21,
6714,-0.23,0.225,
6715,-0.26,0.2,
6716,-0.24,0.145,
6717,-0.185,0.045,
6718,-0.1,-0.08,
6719,-0.005,-0.2,
6720,0.095,-0.33,
6721,0.145,-0.425,A
6722,0.17,-0.505,
6723,0.125,-0.53,
6724,0.03,-0.52,
6725,-0.12,-0.465,
6726,-0.275,-0.365,
6727,-0.395,-0.205,
6728,-0.48,0.0,
6729,-0.505,0.205,
6730,-0.5,0.37,
6731,-0.455,0.46,
6732,-0.435,0.505,
6733,-0.405,0.5,
6734,-0.38,0.495,
6735,-0.365,0.46,
